PE IR       SUBTECH     SPECTRUM    ASCII       PEDS        4.00        
   -1
3S-H10-C030_1.ASC
22/02/16
16:48:22.00
22/02/16
16:48:54.00
uco
Sample 030 By uco Date Wednesday, February 16 2022
450.000000
#HDR
-1
-1
#GR
cm-1
A
1.0
0.0
4000.000000
-1.000000
3551
8
0.163614
-0.004148
#DATA
4000.000000	-0.003519
3999.000000	-0.003500
3998.000000	-0.003480
3997.000000	-0.003461
3996.000000	-0.003442
3995.000000	-0.003421
3994.000000	-0.003407
3993.000000	-0.003399
3992.000000	-0.003398
3991.000000	-0.003402
3990.000000	-0.003412
3989.000000	-0.003426
3988.000000	-0.003437
3987.000000	-0.003438
3986.000000	-0.003421
3985.000000	-0.003388
3984.000000	-0.003350
3983.000000	-0.003323
3982.000000	-0.003313
3981.000000	-0.003321
3980.000000	-0.003335
3979.000000	-0.003344
3978.000000	-0.003344
3977.000000	-0.003336
3976.000000	-0.003325
3975.000000	-0.003318
3974.000000	-0.003316
3973.000000	-0.003321
3972.000000	-0.003331
3971.000000	-0.003342
3970.000000	-0.003352
3969.000000	-0.003355
3968.000000	-0.003347
3967.000000	-0.003331
3966.000000	-0.003311
3965.000000	-0.003292
3964.000000	-0.003279
3963.000000	-0.003268
3962.000000	-0.003258
3961.000000	-0.003248
3960.000000	-0.003241
3959.000000	-0.003239
3958.000000	-0.003243
3957.000000	-0.003251
3956.000000	-0.003261
3955.000000	-0.003270
3954.000000	-0.003276
3953.000000	-0.003276
3952.000000	-0.003270
3951.000000	-0.003261
3950.000000	-0.003258
3949.000000	-0.003263
3948.000000	-0.003272
3947.000000	-0.003278
3946.000000	-0.003276
3945.000000	-0.003269
3944.000000	-0.003264
3943.000000	-0.003263
3942.000000	-0.003264
3941.000000	-0.003260
3940.000000	-0.003255
3939.000000	-0.003255
3938.000000	-0.003260
3937.000000	-0.003264
3936.000000	-0.003259
3935.000000	-0.003244
3934.000000	-0.003230
3933.000000	-0.003231
3932.000000	-0.003247
3931.000000	-0.003270
3930.000000	-0.003285
3929.000000	-0.003285
3928.000000	-0.003270
3927.000000	-0.003244
3926.000000	-0.003220
3925.000000	-0.003205
3924.000000	-0.003201
3923.000000	-0.003199
3922.000000	-0.003195
3921.000000	-0.003194
3920.000000	-0.003198
3919.000000	-0.003206
3918.000000	-0.003218
3917.000000	-0.003233
3916.000000	-0.003250
3915.000000	-0.003265
3914.000000	-0.003274
3913.000000	-0.003278
3912.000000	-0.003278
3911.000000	-0.003270
3910.000000	-0.003253
3909.000000	-0.003224
3908.000000	-0.003191
3907.000000	-0.003164
3906.000000	-0.003158
3905.000000	-0.003177
3904.000000	-0.003206
3903.000000	-0.003230
3902.000000	-0.003246
3901.000000	-0.003271
3900.000000	-0.003307
3899.000000	-0.003335
3898.000000	-0.003335
3897.000000	-0.003305
3896.000000	-0.003262
3895.000000	-0.003221
3894.000000	-0.003191
3893.000000	-0.003178
3892.000000	-0.003183
3891.000000	-0.003190
3890.000000	-0.003186
3889.000000	-0.003177
3888.000000	-0.003189
3887.000000	-0.003236
3886.000000	-0.003298
3885.000000	-0.003329
3884.000000	-0.003304
3883.000000	-0.003249
3882.000000	-0.003213
3881.000000	-0.003216
3880.000000	-0.003237
3879.000000	-0.003243
3878.000000	-0.003227
3877.000000	-0.003209
3876.000000	-0.003207
3875.000000	-0.003208
3874.000000	-0.003191
3873.000000	-0.003154
3872.000000	-0.003122
3871.000000	-0.003123
3870.000000	-0.003150
3869.000000	-0.003164
3868.000000	-0.003143
3867.000000	-0.003118
3866.000000	-0.003133
3865.000000	-0.003190
3864.000000	-0.003249
3863.000000	-0.003275
3862.000000	-0.003267
3861.000000	-0.003241
3860.000000	-0.003201
3859.000000	-0.003144
3858.000000	-0.003074
3857.000000	-0.003007
3856.000000	-0.002966
3855.000000	-0.002983
3854.000000	-0.003073
3853.000000	-0.003184
3852.000000	-0.003233
3851.000000	-0.003225
3850.000000	-0.003224
3849.000000	-0.003247
3848.000000	-0.003258
3847.000000	-0.003237
3846.000000	-0.003202
3845.000000	-0.003172
3844.000000	-0.003158
3843.000000	-0.003160
3842.000000	-0.003180
3841.000000	-0.003220
3840.000000	-0.003272
3839.000000	-0.003316
3838.000000	-0.003331
3837.000000	-0.003312
3836.000000	-0.003279
3835.000000	-0.003256
3834.000000	-0.003255
3833.000000	-0.003261
3832.000000	-0.003251
3831.000000	-0.003221
3830.000000	-0.003188
3829.000000	-0.003181
3828.000000	-0.003214
3827.000000	-0.003264
3826.000000	-0.003293
3825.000000	-0.003280
3824.000000	-0.003242
3823.000000	-0.003219
3822.000000	-0.003240
3821.000000	-0.003288
3820.000000	-0.003317
3819.000000	-0.003311
3818.000000	-0.003308
3817.000000	-0.003334
3816.000000	-0.003366
3815.000000	-0.003372
3814.000000	-0.003353
3813.000000	-0.003341
3812.000000	-0.003354
3811.000000	-0.003365
3810.000000	-0.003346
3809.000000	-0.003314
3808.000000	-0.003304
3807.000000	-0.003317
3806.000000	-0.003317
3805.000000	-0.003283
3804.000000	-0.003242
3803.000000	-0.003228
3802.000000	-0.003241
3801.000000	-0.003257
3800.000000	-0.003250
3799.000000	-0.003239
3798.000000	-0.003261
3797.000000	-0.003317
3796.000000	-0.003366
3795.000000	-0.003378
3794.000000	-0.003369
3793.000000	-0.003369
3792.000000	-0.003387
3791.000000	-0.003409
3790.000000	-0.003416
3789.000000	-0.003409
3788.000000	-0.003402
3787.000000	-0.003403
3786.000000	-0.003408
3785.000000	-0.003407
3784.000000	-0.003395
3783.000000	-0.003380
3782.000000	-0.003379
3781.000000	-0.003404
3780.000000	-0.003446
3779.000000	-0.003474
3778.000000	-0.003468
3777.000000	-0.003443
3776.000000	-0.003427
3775.000000	-0.003430
3774.000000	-0.003437
3773.000000	-0.003431
3772.000000	-0.003410
3771.000000	-0.003383
3770.000000	-0.003358
3769.000000	-0.003329
3768.000000	-0.003302
3767.000000	-0.003294
3766.000000	-0.003319
3765.000000	-0.003362
3764.000000	-0.003391
3763.000000	-0.003396
3762.000000	-0.003394
3761.000000	-0.003411
3760.000000	-0.003446
3759.000000	-0.003480
3758.000000	-0.003494
3757.000000	-0.003492
3756.000000	-0.003484
3755.000000	-0.003478
3754.000000	-0.003475
3753.000000	-0.003478
3752.000000	-0.003492
3751.000000	-0.003516
3750.000000	-0.003534
3749.000000	-0.003532
3748.000000	-0.003512
3747.000000	-0.003489
3746.000000	-0.003480
3745.000000	-0.003494
3744.000000	-0.003509
3743.000000	-0.003495
3742.000000	-0.003466
3741.000000	-0.003474
3740.000000	-0.003515
3739.000000	-0.003522
3738.000000	-0.003467
3737.000000	-0.003386
3736.000000	-0.003340
3735.000000	-0.003356
3734.000000	-0.003414
3733.000000	-0.003481
3732.000000	-0.003525
3731.000000	-0.003529
3730.000000	-0.003499
3729.000000	-0.003468
3728.000000	-0.003465
3727.000000	-0.003494
3726.000000	-0.003528
3725.000000	-0.003541
3724.000000	-0.003525
3723.000000	-0.003497
3722.000000	-0.003480
3721.000000	-0.003485
3720.000000	-0.003510
3719.000000	-0.003536
3718.000000	-0.003545
3717.000000	-0.003527
3716.000000	-0.003489
3715.000000	-0.003443
3714.000000	-0.003397
3713.000000	-0.003352
3712.000000	-0.003305
3711.000000	-0.003263
3710.000000	-0.003241
3709.000000	-0.003253
3708.000000	-0.003298
3707.000000	-0.003356
3706.000000	-0.003404
3705.000000	-0.003434
3704.000000	-0.003453
3703.000000	-0.003469
3702.000000	-0.003479
3701.000000	-0.003470
3700.000000	-0.003438
3699.000000	-0.003392
3698.000000	-0.003348
3697.000000	-0.003311
3696.000000	-0.003277
3695.000000	-0.003244
3694.000000	-0.003219
3693.000000	-0.003209
3692.000000	-0.003208
3691.000000	-0.003202
3690.000000	-0.003177
3689.000000	-0.003139
3688.000000	-0.003095
3687.000000	-0.003060
3686.000000	-0.003043
3685.000000	-0.003044
3684.000000	-0.003041
3683.000000	-0.003009
3682.000000	-0.002944
3681.000000	-0.002861
3680.000000	-0.002765
3679.000000	-0.002655
3678.000000	-0.002547
3677.000000	-0.002488
3676.000000	-0.002514
3675.000000	-0.002582
3674.000000	-0.002620
3673.000000	-0.002628
3672.000000	-0.002654
3671.000000	-0.002696
3670.000000	-0.002707
3669.000000	-0.002659
3668.000000	-0.002577
3667.000000	-0.002508
3666.000000	-0.002469
3665.000000	-0.002435
3664.000000	-0.002385
3663.000000	-0.002321
3662.000000	-0.002264
3661.000000	-0.002224
3660.000000	-0.002197
3659.000000	-0.002173
3658.000000	-0.002145
3657.000000	-0.002108
3656.000000	-0.002053
3655.000000	-0.001972
3654.000000	-0.001880
3653.000000	-0.001808
3652.000000	-0.001770
3651.000000	-0.001749
3650.000000	-0.001715
3649.000000	-0.001645
3648.000000	-0.001544
3647.000000	-0.001439
3646.000000	-0.001352
3645.000000	-0.001287
3644.000000	-0.001239
3643.000000	-0.001206
3642.000000	-0.001181
3641.000000	-0.001154
3640.000000	-0.001115
3639.000000	-0.001060
3638.000000	-0.000991
3637.000000	-0.000913
3636.000000	-0.000833
3635.000000	-0.000752
3634.000000	-0.000670
3633.000000	-0.000586
3632.000000	-0.000503
3631.000000	-0.000425
3630.000000	-0.000353
3629.000000	-0.000280
3628.000000	-0.000191
3627.000000	-0.000087
3626.000000	0.000000
3625.000000	0.000048
3624.000000	0.000076
3623.000000	0.000107
3622.000000	0.000142
3621.000000	0.000173
3620.000000	0.000208
3619.000000	0.000272
3618.000000	0.000370
3617.000000	0.000479
3616.000000	0.000571
3615.000000	0.000642
3614.000000	0.000709
3613.000000	0.000793
3612.000000	0.000899
3611.000000	0.001017
3610.000000	0.001130
3609.000000	0.001227
3608.000000	0.001307
3607.000000	0.001376
3606.000000	0.001442
3605.000000	0.001505
3604.000000	0.001568
3603.000000	0.001641
3602.000000	0.001729
3601.000000	0.001829
3600.000000	0.001937
3599.000000	0.002051
3598.000000	0.002163
3597.000000	0.002266
3596.000000	0.002359
3595.000000	0.002447
3594.000000	0.002534
3593.000000	0.002614
3592.000000	0.002681
3591.000000	0.002741
3590.000000	0.002805
3589.000000	0.002890
3588.000000	0.002999
3587.000000	0.003123
3586.000000	0.003245
3585.000000	0.003351
3584.000000	0.003444
3583.000000	0.003546
3582.000000	0.003673
3581.000000	0.003822
3580.000000	0.003974
3579.000000	0.004112
3578.000000	0.004237
3577.000000	0.004356
3576.000000	0.004471
3575.000000	0.004578
3574.000000	0.004672
3573.000000	0.004756
3572.000000	0.004839
3571.000000	0.004930
3570.000000	0.005037
3569.000000	0.005153
3568.000000	0.005270
3567.000000	0.005380
3566.000000	0.005482
3565.000000	0.005578
3564.000000	0.005674
3563.000000	0.005778
3562.000000	0.005891
3561.000000	0.006007
3560.000000	0.006119
3559.000000	0.006233
3558.000000	0.006361
3557.000000	0.006507
3556.000000	0.006660
3555.000000	0.006803
3554.000000	0.006925
3553.000000	0.007030
3552.000000	0.007133
3551.000000	0.007243
3550.000000	0.007356
3549.000000	0.007460
3548.000000	0.007550
3547.000000	0.007632
3546.000000	0.007715
3545.000000	0.007802
3544.000000	0.007895
3543.000000	0.007998
3542.000000	0.008114
3541.000000	0.008235
3540.000000	0.008349
3539.000000	0.008455
3538.000000	0.008563
3537.000000	0.008680
3536.000000	0.008800
3535.000000	0.008916
3534.000000	0.009019
3533.000000	0.009112
3532.000000	0.009201
3531.000000	0.009291
3530.000000	0.009384
3529.000000	0.009475
3528.000000	0.009567
3527.000000	0.009664
3526.000000	0.009762
3525.000000	0.009850
3524.000000	0.009924
3523.000000	0.009996
3522.000000	0.010085
3521.000000	0.010198
3520.000000	0.010327
3519.000000	0.010456
3518.000000	0.010574
3517.000000	0.010675
3516.000000	0.010763
3515.000000	0.010842
3514.000000	0.010918
3513.000000	0.010996
3512.000000	0.011082
3511.000000	0.011179
3510.000000	0.011284
3509.000000	0.011390
3508.000000	0.011491
3507.000000	0.011585
3506.000000	0.011670
3505.000000	0.011745
3504.000000	0.011816
3503.000000	0.011893
3502.000000	0.011982
3501.000000	0.012075
3500.000000	0.012168
3499.000000	0.012266
3498.000000	0.012376
3497.000000	0.012494
3496.000000	0.012609
3495.000000	0.012711
3494.000000	0.012802
3493.000000	0.012887
3492.000000	0.012970
3491.000000	0.013052
3490.000000	0.013134
3489.000000	0.013215
3488.000000	0.013297
3487.000000	0.013383
3486.000000	0.013474
3485.000000	0.013568
3484.000000	0.013656
3483.000000	0.013731
3482.000000	0.013796
3481.000000	0.013865
3480.000000	0.013949
3479.000000	0.014052
3478.000000	0.014167
3477.000000	0.014275
3476.000000	0.014370
3475.000000	0.014453
3474.000000	0.014532
3473.000000	0.014606
3472.000000	0.014672
3471.000000	0.014732
3470.000000	0.014795
3469.000000	0.014863
3468.000000	0.014934
3467.000000	0.015001
3466.000000	0.015059
3465.000000	0.015106
3464.000000	0.015141
3463.000000	0.015171
3462.000000	0.015209
3461.000000	0.015267
3460.000000	0.015343
3459.000000	0.015427
3458.000000	0.015504
3457.000000	0.015564
3456.000000	0.015606
3455.000000	0.015644
3454.000000	0.015690
3453.000000	0.015752
3452.000000	0.015829
3451.000000	0.015914
3450.000000	0.015994
3449.000000	0.016060
3448.000000	0.016107
3447.000000	0.016145
3446.000000	0.016182
3445.000000	0.016221
3444.000000	0.016257
3443.000000	0.016293
3442.000000	0.016340
3441.000000	0.016406
3440.000000	0.016490
3439.000000	0.016586
3438.000000	0.016685
3437.000000	0.016778
3436.000000	0.016860
3435.000000	0.016928
3434.000000	0.016981
3433.000000	0.017021
3432.000000	0.017051
3431.000000	0.017080
3430.000000	0.017114
3429.000000	0.017152
3428.000000	0.017191
3427.000000	0.017238
3426.000000	0.017305
3425.000000	0.017391
3424.000000	0.017480
3423.000000	0.017555
3422.000000	0.017612
3421.000000	0.017658
3420.000000	0.017700
3419.000000	0.017740
3418.000000	0.017777
3417.000000	0.017817
3416.000000	0.017872
3415.000000	0.017951
3414.000000	0.018053
3413.000000	0.018158
3412.000000	0.018242
3411.000000	0.018294
3410.000000	0.018324
3409.000000	0.018348
3408.000000	0.018380
3407.000000	0.018423
3406.000000	0.018466
3405.000000	0.018497
3404.000000	0.018513
3403.000000	0.018524
3402.000000	0.018544
3401.000000	0.018583
3400.000000	0.018639
3399.000000	0.018705
3398.000000	0.018772
3397.000000	0.018829
3396.000000	0.018870
3395.000000	0.018898
3394.000000	0.018927
3393.000000	0.018966
3392.000000	0.019018
3391.000000	0.019079
3390.000000	0.019142
3389.000000	0.019205
3388.000000	0.019265
3387.000000	0.019323
3386.000000	0.019382
3385.000000	0.019444
3384.000000	0.019510
3383.000000	0.019574
3382.000000	0.019633
3381.000000	0.019687
3380.000000	0.019743
3379.000000	0.019817
3378.000000	0.019917
3377.000000	0.020037
3376.000000	0.020159
3375.000000	0.020264
3374.000000	0.020345
3373.000000	0.020405
3372.000000	0.020462
3371.000000	0.020531
3370.000000	0.020621
3369.000000	0.020723
3368.000000	0.020828
3367.000000	0.020934
3366.000000	0.021046
3365.000000	0.021161
3364.000000	0.021270
3363.000000	0.021361
3362.000000	0.021435
3361.000000	0.021502
3360.000000	0.021582
3359.000000	0.021687
3358.000000	0.021819
3357.000000	0.021970
3356.000000	0.022123
3355.000000	0.022270
3354.000000	0.022399
3353.000000	0.022507
3352.000000	0.022594
3351.000000	0.022673
3350.000000	0.022761
3349.000000	0.022871
3348.000000	0.023004
3347.000000	0.023149
3346.000000	0.023293
3345.000000	0.023421
3344.000000	0.023530
3343.000000	0.023630
3342.000000	0.023733
3341.000000	0.023840
3340.000000	0.023943
3339.000000	0.024040
3338.000000	0.024136
3337.000000	0.024237
3336.000000	0.024341
3335.000000	0.024436
3334.000000	0.024517
3333.000000	0.024590
3332.000000	0.024667
3331.000000	0.024760
3330.000000	0.024863
3329.000000	0.024959
3328.000000	0.025035
3327.000000	0.025088
3326.000000	0.025131
3325.000000	0.025176
3324.000000	0.025234
3323.000000	0.025311
3322.000000	0.025403
3321.000000	0.025491
3320.000000	0.025553
3319.000000	0.025580
3318.000000	0.025583
3317.000000	0.025586
3316.000000	0.025604
3315.000000	0.025642
3314.000000	0.025692
3313.000000	0.025739
3312.000000	0.025771
3311.000000	0.025784
3310.000000	0.025783
3309.000000	0.025771
3308.000000	0.025761
3307.000000	0.025766
3306.000000	0.025797
3305.000000	0.025852
3304.000000	0.025920
3303.000000	0.025988
3302.000000	0.026045
3301.000000	0.026079
3300.000000	0.026085
3299.000000	0.026068
3298.000000	0.026043
3297.000000	0.026019
3296.000000	0.026005
3295.000000	0.026000
3294.000000	0.025998
3293.000000	0.025988
3292.000000	0.025965
3291.000000	0.025943
3290.000000	0.025941
3289.000000	0.025961
3288.000000	0.025981
3287.000000	0.025977
3286.000000	0.025945
3285.000000	0.025894
3284.000000	0.025835
3283.000000	0.025770
3282.000000	0.025702
3281.000000	0.025637
3280.000000	0.025577
3279.000000	0.025513
3278.000000	0.025432
3277.000000	0.025332
3276.000000	0.025222
3275.000000	0.025111
3274.000000	0.025004
3273.000000	0.024902
3272.000000	0.024810
3271.000000	0.024740
3270.000000	0.024693
3269.000000	0.024653
3268.000000	0.024599
3267.000000	0.024519
3266.000000	0.024422
3265.000000	0.024326
3264.000000	0.024242
3263.000000	0.024167
3262.000000	0.024090
3261.000000	0.023999
3260.000000	0.023888
3259.000000	0.023754
3258.000000	0.023610
3257.000000	0.023470
3256.000000	0.023349
3255.000000	0.023252
3254.000000	0.023168
3253.000000	0.023077
3252.000000	0.022968
3251.000000	0.022839
3250.000000	0.022705
3249.000000	0.022581
3248.000000	0.022477
3247.000000	0.022391
3246.000000	0.022311
3245.000000	0.022231
3244.000000	0.022146
3243.000000	0.022057
3242.000000	0.021960
3241.000000	0.021857
3240.000000	0.021753
3239.000000	0.021657
3238.000000	0.021573
3237.000000	0.021491
3236.000000	0.021397
3235.000000	0.021290
3234.000000	0.021180
3233.000000	0.021087
3232.000000	0.021017
3231.000000	0.020968
3230.000000	0.020924
3229.000000	0.020864
3228.000000	0.020777
3227.000000	0.020673
3226.000000	0.020573
3225.000000	0.020495
3224.000000	0.020439
3223.000000	0.020391
3222.000000	0.020332
3221.000000	0.020252
3220.000000	0.020154
3219.000000	0.020046
3218.000000	0.019940
3217.000000	0.019840
3216.000000	0.019749
3215.000000	0.019673
3214.000000	0.019613
3213.000000	0.019563
3212.000000	0.019509
3211.000000	0.019439
3210.000000	0.019348
3209.000000	0.019240
3208.000000	0.019127
3207.000000	0.019027
3206.000000	0.018951
3205.000000	0.018894
3204.000000	0.018843
3203.000000	0.018787
3202.000000	0.018721
3201.000000	0.018642
3200.000000	0.018547
3199.000000	0.018439
3198.000000	0.018326
3197.000000	0.018215
3196.000000	0.018107
3195.000000	0.017996
3194.000000	0.017884
3193.000000	0.017776
3192.000000	0.017675
3191.000000	0.017573
3190.000000	0.017469
3189.000000	0.017364
3188.000000	0.017265
3187.000000	0.017167
3186.000000	0.017064
3185.000000	0.016955
3184.000000	0.016847
3183.000000	0.016746
3182.000000	0.016653
3181.000000	0.016559
3180.000000	0.016464
3179.000000	0.016373
3178.000000	0.016289
3177.000000	0.016205
3176.000000	0.016112
3175.000000	0.016005
3174.000000	0.015892
3173.000000	0.015781
3172.000000	0.015675
3171.000000	0.015575
3170.000000	0.015478
3169.000000	0.015384
3168.000000	0.015289
3167.000000	0.015188
3166.000000	0.015077
3165.000000	0.014959
3164.000000	0.014842
3163.000000	0.014738
3162.000000	0.014648
3161.000000	0.014564
3160.000000	0.014472
3159.000000	0.014367
3158.000000	0.014257
3157.000000	0.014155
3156.000000	0.014068
3155.000000	0.013992
3154.000000	0.013916
3153.000000	0.013833
3152.000000	0.013747
3151.000000	0.013666
3150.000000	0.013598
3149.000000	0.013541
3148.000000	0.013491
3147.000000	0.013443
3146.000000	0.013393
3145.000000	0.013335
3144.000000	0.013265
3143.000000	0.013179
3142.000000	0.013084
3141.000000	0.012991
3140.000000	0.012912
3139.000000	0.012851
3138.000000	0.012806
3137.000000	0.012768
3136.000000	0.012728
3135.000000	0.012684
3134.000000	0.012643
3133.000000	0.012605
3132.000000	0.012564
3131.000000	0.012513
3130.000000	0.012458
3129.000000	0.012412
3128.000000	0.012386
3127.000000	0.012377
3126.000000	0.012372
3125.000000	0.012354
3124.000000	0.012315
3123.000000	0.012257
3122.000000	0.012193
3121.000000	0.012134
3120.000000	0.012086
3119.000000	0.012057
3118.000000	0.012051
3117.000000	0.012070
3116.000000	0.012108
3115.000000	0.012158
3114.000000	0.012213
3113.000000	0.012263
3112.000000	0.012296
3111.000000	0.012307
3110.000000	0.012303
3109.000000	0.012303
3108.000000	0.012321
3107.000000	0.012358
3106.000000	0.012407
3105.000000	0.012464
3104.000000	0.012519
3103.000000	0.012560
3102.000000	0.012583
3101.000000	0.012596
3100.000000	0.012616
3099.000000	0.012658
3098.000000	0.012724
3097.000000	0.012805
3096.000000	0.012883
3095.000000	0.012943
3094.000000	0.012982
3093.000000	0.013004
3092.000000	0.013022
3091.000000	0.013046
3090.000000	0.013082
3089.000000	0.013131
3088.000000	0.013184
3087.000000	0.013227
3086.000000	0.013258
3085.000000	0.013283
3084.000000	0.013310
3083.000000	0.013335
3082.000000	0.013345
3081.000000	0.013336
3080.000000	0.013322
3079.000000	0.013326
3078.000000	0.013363
3077.000000	0.013428
3076.000000	0.013502
3075.000000	0.013563
3074.000000	0.013603
3073.000000	0.013627
3072.000000	0.013637
3071.000000	0.013633
3070.000000	0.013612
3069.000000	0.013576
3068.000000	0.013533
3067.000000	0.013489
3066.000000	0.013449
3065.000000	0.013414
3064.000000	0.013379
3063.000000	0.013334
3062.000000	0.013274
3061.000000	0.013202
3060.000000	0.013123
3059.000000	0.013043
3058.000000	0.012965
3057.000000	0.012899
3056.000000	0.012849
3055.000000	0.012807
3054.000000	0.012756
3053.000000	0.012690
3052.000000	0.012614
3051.000000	0.012541
3050.000000	0.012476
3049.000000	0.012412
3048.000000	0.012343
3047.000000	0.012264
3046.000000	0.012182
3045.000000	0.012107
3044.000000	0.012048
3043.000000	0.012011
3042.000000	0.011990
3041.000000	0.011973
3040.000000	0.011950
3039.000000	0.011919
3038.000000	0.011881
3037.000000	0.011840
3036.000000	0.011802
3035.000000	0.011773
3034.000000	0.011761
3033.000000	0.011767
3032.000000	0.011787
3031.000000	0.011817
3030.000000	0.011853
3029.000000	0.011895
3028.000000	0.011945
3027.000000	0.012008
3026.000000	0.012095
3025.000000	0.012210
3024.000000	0.012351
3023.000000	0.012510
3022.000000	0.012687
3021.000000	0.012886
3020.000000	0.013112
3019.000000	0.013365
3018.000000	0.013652
3017.000000	0.013982
3016.000000	0.014362
3015.000000	0.014792
3014.000000	0.015263
3013.000000	0.015761
3012.000000	0.016269
3011.000000	0.016771
3010.000000	0.017245
3009.000000	0.017671
3008.000000	0.018033
3007.000000	0.018318
3006.000000	0.018522
3005.000000	0.018647
3004.000000	0.018694
3003.000000	0.018663
3002.000000	0.018562
3001.000000	0.018400
3000.000000	0.018189
2999.000000	0.017944
2998.000000	0.017690
2997.000000	0.017461
2996.000000	0.017287
2995.000000	0.017182
2994.000000	0.017148
2993.000000	0.017182
2992.000000	0.017280
2991.000000	0.017440
2990.000000	0.017662
2989.000000	0.017944
2988.000000	0.018282
2987.000000	0.018666
2986.000000	0.019090
2985.000000	0.019556
2984.000000	0.020073
2983.000000	0.020649
2982.000000	0.021289
2981.000000	0.021995
2980.000000	0.022769
2979.000000	0.023604
2978.000000	0.024493
2977.000000	0.025437
2976.000000	0.026450
2975.000000	0.027552
2974.000000	0.028761
2973.000000	0.030086
2972.000000	0.031529
2971.000000	0.033089
2970.000000	0.034768
2969.000000	0.036571
2968.000000	0.038502
2967.000000	0.040551
2966.000000	0.042688
2965.000000	0.044860
2964.000000	0.047015
2963.000000	0.049113
2962.000000	0.051127
2961.000000	0.053035
2960.000000	0.054812
2959.000000	0.056431
2958.000000	0.057863
2957.000000	0.059081
2956.000000	0.060060
2955.000000	0.060788
2954.000000	0.061281
2953.000000	0.061587
2952.000000	0.061785
2951.000000	0.061984
2950.000000	0.062301
2949.000000	0.062843
2948.000000	0.063692
2947.000000	0.064905
2946.000000	0.066516
2945.000000	0.068535
2944.000000	0.070959
2943.000000	0.073786
2942.000000	0.077023
2941.000000	0.080675
2940.000000	0.084720
2939.000000	0.089120
2938.000000	0.093834
2937.000000	0.098828
2936.000000	0.104074
2935.000000	0.109541
2934.000000	0.115187
2933.000000	0.120957
2932.000000	0.126783
2931.000000	0.132581
2930.000000	0.138262
2929.000000	0.143727
2928.000000	0.148859
2927.000000	0.153516
2926.000000	0.157525
2925.000000	0.160680
2924.000000	0.162768
2923.000000	0.163614
2922.000000	0.163118
2921.000000	0.161281
2920.000000	0.158196
2919.000000	0.154026
2918.000000	0.148972
2917.000000	0.143262
2916.000000	0.137143
2915.000000	0.130868
2914.000000	0.124665
2913.000000	0.118707
2912.000000	0.113112
2911.000000	0.107946
2910.000000	0.103217
2909.000000	0.098894
2908.000000	0.094933
2907.000000	0.091297
2906.000000	0.087955
2905.000000	0.084873
2904.000000	0.082002
2903.000000	0.079302
2902.000000	0.076745
2901.000000	0.074320
2900.000000	0.072017
2899.000000	0.069822
2898.000000	0.067710
2897.000000	0.065657
2896.000000	0.063643
2895.000000	0.061661
2894.000000	0.059720
2893.000000	0.057836
2892.000000	0.056022
2891.000000	0.054285
2890.000000	0.052626
2889.000000	0.051047
2888.000000	0.049556
2887.000000	0.048168
2886.000000	0.046905
2885.000000	0.045795
2884.000000	0.044868
2883.000000	0.044146
2882.000000	0.043648
2881.000000	0.043393
2880.000000	0.043396
2879.000000	0.043672
2878.000000	0.044224
2877.000000	0.045038
2876.000000	0.046077
2875.000000	0.047263
2874.000000	0.048477
2873.000000	0.049589
2872.000000	0.050508
2871.000000	0.051235
2870.000000	0.051866
2869.000000	0.052563
2868.000000	0.053512
2867.000000	0.054883
2866.000000	0.056812
2865.000000	0.059386
2864.000000	0.062646
2863.000000	0.066597
2862.000000	0.071218
2861.000000	0.076447
2860.000000	0.082171
2859.000000	0.088208
2858.000000	0.094301
2857.000000	0.100116
2856.000000	0.105242
2855.000000	0.109233
2854.000000	0.111654
2853.000000	0.112166
2852.000000	0.110614
2851.000000	0.107077
2850.000000	0.101838
2849.000000	0.095312
2848.000000	0.087963
2847.000000	0.080252
2846.000000	0.072593
2845.000000	0.065307
2844.000000	0.058616
2843.000000	0.052649
2842.000000	0.047453
2841.000000	0.043010
2840.000000	0.039251
2839.000000	0.036082
2838.000000	0.033410
2837.000000	0.031149
2836.000000	0.029219
2835.000000	0.027548
2834.000000	0.026074
2833.000000	0.024755
2832.000000	0.023557
2831.000000	0.022455
2830.000000	0.021438
2829.000000	0.020506
2828.000000	0.019660
2827.000000	0.018889
2826.000000	0.018181
2825.000000	0.017526
2824.000000	0.016915
2823.000000	0.016344
2822.000000	0.015814
2821.000000	0.015324
2820.000000	0.014869
2819.000000	0.014441
2818.000000	0.014041
2817.000000	0.013679
2816.000000	0.013358
2815.000000	0.013061
2814.000000	0.012767
2813.000000	0.012472
2812.000000	0.012183
2811.000000	0.011910
2810.000000	0.011654
2809.000000	0.011414
2808.000000	0.011191
2807.000000	0.010984
2806.000000	0.010790
2805.000000	0.010603
2804.000000	0.010424
2803.000000	0.010251
2802.000000	0.010083
2801.000000	0.009922
2800.000000	0.009763
2799.000000	0.009603
2798.000000	0.009445
2797.000000	0.009296
2796.000000	0.009162
2795.000000	0.009036
2794.000000	0.008913
2793.000000	0.008790
2792.000000	0.008669
2791.000000	0.008549
2790.000000	0.008430
2789.000000	0.008318
2788.000000	0.008214
2787.000000	0.008113
2786.000000	0.008006
2785.000000	0.007890
2784.000000	0.007767
2783.000000	0.007641
2782.000000	0.007517
2781.000000	0.007406
2780.000000	0.007311
2779.000000	0.007232
2778.000000	0.007161
2777.000000	0.007094
2776.000000	0.007027
2775.000000	0.006953
2774.000000	0.006868
2773.000000	0.006780
2772.000000	0.006700
2771.000000	0.006636
2770.000000	0.006583
2769.000000	0.006536
2768.000000	0.006490
2767.000000	0.006444
2766.000000	0.006391
2765.000000	0.006326
2764.000000	0.006249
2763.000000	0.006167
2762.000000	0.006085
2761.000000	0.006010
2760.000000	0.005951
2759.000000	0.005912
2758.000000	0.005892
2757.000000	0.005883
2756.000000	0.005875
2755.000000	0.005863
2754.000000	0.005847
2753.000000	0.005826
2752.000000	0.005799
2751.000000	0.005768
2750.000000	0.005739
2749.000000	0.005716
2748.000000	0.005692
2747.000000	0.005656
2746.000000	0.005614
2745.000000	0.005580
2744.000000	0.005559
2743.000000	0.005546
2742.000000	0.005535
2741.000000	0.005525
2740.000000	0.005518
2739.000000	0.005510
2738.000000	0.005494
2737.000000	0.005470
2736.000000	0.005439
2735.000000	0.005409
2734.000000	0.005388
2733.000000	0.005383
2732.000000	0.005388
2731.000000	0.005387
2730.000000	0.005369
2729.000000	0.005334
2728.000000	0.005287
2727.000000	0.005235
2726.000000	0.005182
2725.000000	0.005134
2724.000000	0.005091
2723.000000	0.005044
2722.000000	0.004992
2721.000000	0.004944
2720.000000	0.004911
2719.000000	0.004892
2718.000000	0.004873
2717.000000	0.004846
2716.000000	0.004813
2715.000000	0.004781
2714.000000	0.004757
2713.000000	0.004739
2712.000000	0.004724
2711.000000	0.004708
2710.000000	0.004689
2709.000000	0.004671
2708.000000	0.004654
2707.000000	0.004636
2706.000000	0.004615
2705.000000	0.004594
2704.000000	0.004580
2703.000000	0.004574
2702.000000	0.004572
2701.000000	0.004568
2700.000000	0.004557
2699.000000	0.004539
2698.000000	0.004519
2697.000000	0.004507
2696.000000	0.004507
2695.000000	0.004515
2694.000000	0.004527
2693.000000	0.004542
2692.000000	0.004561
2691.000000	0.004584
2690.000000	0.004612
2689.000000	0.004642
2688.000000	0.004669
2687.000000	0.004683
2686.000000	0.004678
2685.000000	0.004662
2684.000000	0.004648
2683.000000	0.004652
2682.000000	0.004676
2681.000000	0.004711
2680.000000	0.004734
2679.000000	0.004724
2678.000000	0.004682
2677.000000	0.004629
2676.000000	0.004592
2675.000000	0.004581
2674.000000	0.004590
2673.000000	0.004604
2672.000000	0.004607
2671.000000	0.004590
2670.000000	0.004555
2669.000000	0.004513
2668.000000	0.004473
2667.000000	0.004439
2666.000000	0.004407
2665.000000	0.004377
2664.000000	0.004343
2663.000000	0.004296
2662.000000	0.004236
2661.000000	0.004173
2660.000000	0.004113
2659.000000	0.004052
2658.000000	0.003982
2657.000000	0.003898
2656.000000	0.003806
2655.000000	0.003714
2654.000000	0.003630
2653.000000	0.003554
2652.000000	0.003482
2651.000000	0.003406
2650.000000	0.003330
2649.000000	0.003259
2648.000000	0.003190
2647.000000	0.003114
2646.000000	0.003034
2645.000000	0.002964
2644.000000	0.002911
2643.000000	0.002862
2642.000000	0.002802
2641.000000	0.002729
2640.000000	0.002650
2639.000000	0.002570
2638.000000	0.002493
2637.000000	0.002425
2636.000000	0.002372
2635.000000	0.002329
2634.000000	0.002283
2633.000000	0.002230
2632.000000	0.002171
2631.000000	0.002108
2630.000000	0.002043
2629.000000	0.001978
2628.000000	0.001917
2627.000000	0.001860
2626.000000	0.001807
2625.000000	0.001758
2624.000000	0.001712
2623.000000	0.001665
2622.000000	0.001614
2621.000000	0.001561
2620.000000	0.001512
2619.000000	0.001467
2618.000000	0.001428
2617.000000	0.001392
2616.000000	0.001348
2615.000000	0.001290
2614.000000	0.001224
2613.000000	0.001163
2612.000000	0.001111
2611.000000	0.001061
2610.000000	0.001012
2609.000000	0.000974
2608.000000	0.000952
2607.000000	0.000937
2606.000000	0.000922
2605.000000	0.000904
2604.000000	0.000882
2603.000000	0.000856
2602.000000	0.000828
2601.000000	0.000806
2600.000000	0.000788
2599.000000	0.000757
2598.000000	0.000712
2597.000000	0.000668
2596.000000	0.000635
2595.000000	0.000607
2594.000000	0.000574
2593.000000	0.000533
2592.000000	0.000487
2591.000000	0.000441
2590.000000	0.000403
2589.000000	0.000378
2588.000000	0.000359
2587.000000	0.000327
2586.000000	0.000286
2585.000000	0.000259
2584.000000	0.000256
2583.000000	0.000255
2582.000000	0.000227
2581.000000	0.000172
2580.000000	0.000110
2579.000000	0.000059
2578.000000	0.000030
2577.000000	0.000025
2576.000000	0.000034
2575.000000	0.000031
2574.000000	-0.000001
2573.000000	-0.000058
2572.000000	-0.000117
2571.000000	-0.000157
2570.000000	-0.000166
2569.000000	-0.000152
2568.000000	-0.000145
2567.000000	-0.000176
2566.000000	-0.000239
2565.000000	-0.000300
2564.000000	-0.000324
2563.000000	-0.000313
2562.000000	-0.000282
2561.000000	-0.000248
2560.000000	-0.000222
2559.000000	-0.000216
2558.000000	-0.000239
2557.000000	-0.000283
2556.000000	-0.000337
2555.000000	-0.000389
2554.000000	-0.000424
2553.000000	-0.000435
2552.000000	-0.000432
2551.000000	-0.000434
2550.000000	-0.000439
2549.000000	-0.000436
2548.000000	-0.000423
2547.000000	-0.000420
2546.000000	-0.000433
2545.000000	-0.000442
2544.000000	-0.000424
2543.000000	-0.000384
2542.000000	-0.000343
2541.000000	-0.000318
2540.000000	-0.000326
2539.000000	-0.000371
2538.000000	-0.000432
2537.000000	-0.000470
2536.000000	-0.000462
2535.000000	-0.000426
2534.000000	-0.000390
2533.000000	-0.000358
2532.000000	-0.000328
2531.000000	-0.000310
2530.000000	-0.000312
2529.000000	-0.000322
2528.000000	-0.000319
2527.000000	-0.000295
2526.000000	-0.000261
2525.000000	-0.000235
2524.000000	-0.000234
2523.000000	-0.000262
2522.000000	-0.000306
2521.000000	-0.000345
2520.000000	-0.000379
2519.000000	-0.000422
2518.000000	-0.000482
2517.000000	-0.000544
2516.000000	-0.000586
2515.000000	-0.000604
2514.000000	-0.000604
2513.000000	-0.000593
2512.000000	-0.000577
2511.000000	-0.000565
2510.000000	-0.000558
2509.000000	-0.000560
2508.000000	-0.000577
2507.000000	-0.000611
2506.000000	-0.000641
2505.000000	-0.000647
2504.000000	-0.000634
2503.000000	-0.000625
2502.000000	-0.000621
2501.000000	-0.000609
2500.000000	-0.000597
2499.000000	-0.000616
2498.000000	-0.000665
2497.000000	-0.000704
2496.000000	-0.000697
2495.000000	-0.000660
2494.000000	-0.000634
2493.000000	-0.000648
2492.000000	-0.000706
2491.000000	-0.000791
2490.000000	-0.000872
2489.000000	-0.000914
2488.000000	-0.000911
2487.000000	-0.000885
2486.000000	-0.000859
2485.000000	-0.000846
2484.000000	-0.000855
2483.000000	-0.000895
2482.000000	-0.000952
2481.000000	-0.000993
2480.000000	-0.000999
2479.000000	-0.000982
2478.000000	-0.000955
2477.000000	-0.000915
2476.000000	-0.000873
2475.000000	-0.000856
2474.000000	-0.000889
2473.000000	-0.000950
2472.000000	-0.000998
2471.000000	-0.001006
2470.000000	-0.000979
2469.000000	-0.000944
2468.000000	-0.000927
2467.000000	-0.000936
2466.000000	-0.000950
2465.000000	-0.000946
2464.000000	-0.000931
2463.000000	-0.000929
2462.000000	-0.000947
2461.000000	-0.000961
2460.000000	-0.000954
2459.000000	-0.000932
2458.000000	-0.000909
2457.000000	-0.000891
2456.000000	-0.000886
2455.000000	-0.000904
2454.000000	-0.000936
2453.000000	-0.000955
2452.000000	-0.000952
2451.000000	-0.000948
2450.000000	-0.000957
2449.000000	-0.000973
2448.000000	-0.000983
2447.000000	-0.000987
2446.000000	-0.000982
2445.000000	-0.000956
2444.000000	-0.000910
2443.000000	-0.000866
2442.000000	-0.000839
2441.000000	-0.000826
2440.000000	-0.000822
2439.000000	-0.000836
2438.000000	-0.000860
2437.000000	-0.000878
2436.000000	-0.000884
2435.000000	-0.000896
2434.000000	-0.000920
2433.000000	-0.000939
2432.000000	-0.000944
2431.000000	-0.000951
2430.000000	-0.000970
2429.000000	-0.000987
2428.000000	-0.000983
2427.000000	-0.000966
2426.000000	-0.000955
2425.000000	-0.000954
2424.000000	-0.000959
2423.000000	-0.000962
2422.000000	-0.000953
2421.000000	-0.000929
2420.000000	-0.000904
2419.000000	-0.000900
2418.000000	-0.000919
2417.000000	-0.000934
2416.000000	-0.000928
2415.000000	-0.000904
2414.000000	-0.000865
2413.000000	-0.000807
2412.000000	-0.000740
2411.000000	-0.000695
2410.000000	-0.000694
2409.000000	-0.000729
2408.000000	-0.000781
2407.000000	-0.000835
2406.000000	-0.000873
2405.000000	-0.000875
2404.000000	-0.000847
2403.000000	-0.000817
2402.000000	-0.000798
2401.000000	-0.000775
2400.000000	-0.000738
2399.000000	-0.000703
2398.000000	-0.000679
2397.000000	-0.000658
2396.000000	-0.000629
2395.000000	-0.000604
2394.000000	-0.000593
2393.000000	-0.000585
2392.000000	-0.000565
2391.000000	-0.000535
2390.000000	-0.000503
2389.000000	-0.000471
2388.000000	-0.000440
2387.000000	-0.000420
2386.000000	-0.000416
2385.000000	-0.000413
2384.000000	-0.000398
2383.000000	-0.000373
2382.000000	-0.000349
2381.000000	-0.000330
2380.000000	-0.000311
2379.000000	-0.000285
2378.000000	-0.000245
2377.000000	-0.000195
2376.000000	-0.000162
2375.000000	-0.000165
2374.000000	-0.000194
2373.000000	-0.000224
2372.000000	-0.000253
2371.000000	-0.000287
2370.000000	-0.000304
2369.000000	-0.000264
2368.000000	-0.000171
2367.000000	-0.000070
2366.000000	0.000014
2365.000000	0.000083
2364.000000	0.000126
2363.000000	0.000126
2362.000000	0.000102
2361.000000	0.000091
2360.000000	0.000113
2359.000000	0.000141
2358.000000	0.000144
2357.000000	0.000131
2356.000000	0.000121
2355.000000	0.000156
2354.000000	0.000217
2353.000000	0.000239
2352.000000	0.000183
2351.000000	0.000105
2350.000000	0.000122
2349.000000	0.000289
2348.000000	0.000564
2347.000000	0.000806
2346.000000	0.000871
2345.000000	0.000754
2344.000000	0.000575
2343.000000	0.000451
2342.000000	0.000385
2341.000000	0.000348
2340.000000	0.000331
2339.000000	0.000330
2338.000000	0.000344
2337.000000	0.000378
2336.000000	0.000426
2335.000000	0.000450
2334.000000	0.000423
2333.000000	0.000362
2332.000000	0.000320
2331.000000	0.000306
2330.000000	0.000310
2329.000000	0.000311
2328.000000	0.000342
2327.000000	0.000417
2326.000000	0.000525
2325.000000	0.000612
2324.000000	0.000617
2323.000000	0.000518
2322.000000	0.000363
2321.000000	0.000237
2320.000000	0.000184
2319.000000	0.000172
2318.000000	0.000168
2317.000000	0.000149
2316.000000	0.000107
2315.000000	0.000010
2314.000000	-0.000124
2313.000000	-0.000238
2312.000000	-0.000288
2311.000000	-0.000306
2310.000000	-0.000330
2309.000000	-0.000358
2308.000000	-0.000359
2307.000000	-0.000336
2306.000000	-0.000309
2305.000000	-0.000287
2304.000000	-0.000274
2303.000000	-0.000290
2302.000000	-0.000346
2301.000000	-0.000419
2300.000000	-0.000472
2299.000000	-0.000498
2298.000000	-0.000507
2297.000000	-0.000512
2296.000000	-0.000516
2295.000000	-0.000534
2294.000000	-0.000567
2293.000000	-0.000601
2292.000000	-0.000632
2291.000000	-0.000676
2290.000000	-0.000735
2289.000000	-0.000783
2288.000000	-0.000801
2287.000000	-0.000802
2286.000000	-0.000808
2285.000000	-0.000817
2284.000000	-0.000830
2283.000000	-0.000859
2282.000000	-0.000910
2281.000000	-0.000961
2280.000000	-0.001003
2279.000000	-0.001049
2278.000000	-0.001093
2277.000000	-0.001109
2276.000000	-0.001103
2275.000000	-0.001121
2274.000000	-0.001174
2273.000000	-0.001215
2272.000000	-0.001208
2271.000000	-0.001187
2270.000000	-0.001186
2269.000000	-0.001191
2268.000000	-0.001187
2267.000000	-0.001197
2266.000000	-0.001222
2265.000000	-0.001214
2264.000000	-0.001140
2263.000000	-0.001050
2262.000000	-0.001014
2261.000000	-0.001037
2260.000000	-0.001088
2259.000000	-0.001152
2258.000000	-0.001223
2257.000000	-0.001286
2256.000000	-0.001342
2255.000000	-0.001419
2254.000000	-0.001507
2253.000000	-0.001548
2252.000000	-0.001516
2251.000000	-0.001466
2250.000000	-0.001452
2249.000000	-0.001463
2248.000000	-0.001472
2247.000000	-0.001490
2246.000000	-0.001520
2245.000000	-0.001537
2244.000000	-0.001549
2243.000000	-0.001617
2242.000000	-0.001750
2241.000000	-0.001868
2240.000000	-0.001900
2239.000000	-0.001880
2238.000000	-0.001872
2237.000000	-0.001880
2236.000000	-0.001886
2235.000000	-0.001904
2234.000000	-0.001928
2233.000000	-0.001895
2232.000000	-0.001777
2231.000000	-0.001658
2230.000000	-0.001638
2229.000000	-0.001717
2228.000000	-0.001817
2227.000000	-0.001881
2226.000000	-0.001888
2225.000000	-0.001839
2224.000000	-0.001784
2223.000000	-0.001795
2222.000000	-0.001875
2221.000000	-0.001948
2220.000000	-0.001979
2219.000000	-0.002000
2218.000000	-0.002010
2217.000000	-0.001944
2216.000000	-0.001803
2215.000000	-0.001715
2214.000000	-0.001773
2213.000000	-0.001916
2212.000000	-0.002021
2211.000000	-0.002047
2210.000000	-0.002023
2209.000000	-0.001985
2208.000000	-0.001986
2207.000000	-0.002081
2206.000000	-0.002220
2205.000000	-0.002263
2204.000000	-0.002158
2203.000000	-0.002005
2202.000000	-0.001896
2201.000000	-0.001796
2200.000000	-0.001672
2199.000000	-0.001604
2198.000000	-0.001661
2197.000000	-0.001772
2196.000000	-0.001815
2195.000000	-0.001789
2194.000000	-0.001778
2193.000000	-0.001838
2192.000000	-0.001967
2191.000000	-0.002133
2190.000000	-0.002259
2189.000000	-0.002278
2188.000000	-0.002230
2187.000000	-0.002226
2186.000000	-0.002262
2185.000000	-0.002217
2184.000000	-0.002069
2183.000000	-0.001967
2182.000000	-0.002006
2181.000000	-0.002106
2180.000000	-0.002185
2179.000000	-0.002276
2178.000000	-0.002386
2177.000000	-0.002419
2176.000000	-0.002359
2175.000000	-0.002362
2174.000000	-0.002532
2173.000000	-0.002756
2172.000000	-0.002870
2171.000000	-0.002843
2170.000000	-0.002712
2169.000000	-0.002488
2168.000000	-0.002247
2167.000000	-0.002157
2166.000000	-0.002287
2165.000000	-0.002499
2164.000000	-0.002658
2163.000000	-0.002802
2162.000000	-0.002999
2161.000000	-0.003216
2160.000000	-0.003451
2159.000000	-0.003779
2158.000000	-0.004107
2157.000000	-0.004148
2156.000000	-0.003803
2155.000000	-0.003288
2154.000000	-0.002808
2153.000000	-0.002393
2152.000000	-0.002057
2151.000000	-0.001887
2150.000000	-0.001882
2149.000000	-0.001899
2148.000000	-0.001849
2147.000000	-0.001803
2146.000000	-0.001830
2145.000000	-0.001880
2144.000000	-0.001915
2143.000000	-0.001976
2142.000000	-0.002053
2141.000000	-0.002032
2140.000000	-0.001860
2139.000000	-0.001645
2138.000000	-0.001509
2137.000000	-0.001470
2136.000000	-0.001508
2135.000000	-0.001615
2134.000000	-0.001722
2133.000000	-0.001697
2132.000000	-0.001506
2131.000000	-0.001264
2130.000000	-0.001089
2129.000000	-0.001000
2128.000000	-0.000980
2127.000000	-0.001027
2126.000000	-0.001106
2125.000000	-0.001135
2124.000000	-0.001096
2123.000000	-0.001061
2122.000000	-0.001072
2121.000000	-0.001069
2120.000000	-0.000991
2119.000000	-0.000871
2118.000000	-0.000765
2117.000000	-0.000687
2116.000000	-0.000637
2115.000000	-0.000639
2114.000000	-0.000671
2113.000000	-0.000668
2112.000000	-0.000609
2111.000000	-0.000547
2110.000000	-0.000506
2109.000000	-0.000438
2108.000000	-0.000339
2107.000000	-0.000305
2106.000000	-0.000403
2105.000000	-0.000568
2104.000000	-0.000695
2103.000000	-0.000756
2102.000000	-0.000767
2101.000000	-0.000729
2100.000000	-0.000675
2099.000000	-0.000681
2098.000000	-0.000762
2097.000000	-0.000822
2096.000000	-0.000793
2095.000000	-0.000734
2094.000000	-0.000718
2093.000000	-0.000724
2092.000000	-0.000697
2091.000000	-0.000654
2090.000000	-0.000633
2089.000000	-0.000627
2088.000000	-0.000613
2087.000000	-0.000605
2086.000000	-0.000608
2085.000000	-0.000585
2084.000000	-0.000521
2083.000000	-0.000474
2082.000000	-0.000490
2081.000000	-0.000543
2080.000000	-0.000588
2079.000000	-0.000627
2078.000000	-0.000671
2077.000000	-0.000716
2076.000000	-0.000785
2075.000000	-0.000927
2074.000000	-0.001123
2073.000000	-0.001280
2072.000000	-0.001355
2071.000000	-0.001389
2070.000000	-0.001402
2069.000000	-0.001364
2068.000000	-0.001313
2067.000000	-0.001353
2066.000000	-0.001479
2065.000000	-0.001552
2064.000000	-0.001508
2063.000000	-0.001459
2062.000000	-0.001506
2061.000000	-0.001605
2060.000000	-0.001679
2059.000000	-0.001733
2058.000000	-0.001766
2057.000000	-0.001713
2056.000000	-0.001580
2055.000000	-0.001488
2054.000000	-0.001496
2053.000000	-0.001521
2052.000000	-0.001516
2051.000000	-0.001577
2050.000000	-0.001765
2049.000000	-0.001967
2048.000000	-0.002063
2047.000000	-0.002102
2046.000000	-0.002151
2045.000000	-0.002153
2044.000000	-0.002091
2043.000000	-0.002089
2042.000000	-0.002204
2041.000000	-0.002295
2040.000000	-0.002271
2039.000000	-0.002277
2038.000000	-0.002469
2037.000000	-0.002778
2036.000000	-0.003050
2035.000000	-0.003238
2034.000000	-0.003304
2033.000000	-0.003181
2032.000000	-0.002981
2031.000000	-0.002976
2030.000000	-0.003197
2029.000000	-0.003333
2028.000000	-0.003191
2027.000000	-0.002974
2026.000000	-0.002906
2025.000000	-0.002897
2024.000000	-0.002784
2023.000000	-0.002653
2022.000000	-0.002678
2021.000000	-0.002854
2020.000000	-0.003075
2019.000000	-0.003288
2018.000000	-0.003430
2017.000000	-0.003427
2016.000000	-0.003377
2015.000000	-0.003488
2014.000000	-0.003737
2013.000000	-0.003841
2012.000000	-0.003669
2011.000000	-0.003423
2010.000000	-0.003293
2009.000000	-0.003226
2008.000000	-0.003152
2007.000000	-0.003134
2006.000000	-0.003158
2005.000000	-0.003056
2004.000000	-0.002813
2003.000000	-0.002650
2002.000000	-0.002677
2001.000000	-0.002748
2000.000000	-0.002739
1999.000000	-0.002743
1998.000000	-0.002840
1997.000000	-0.002926
1996.000000	-0.002931
1995.000000	-0.002964
1994.000000	-0.003091
1993.000000	-0.003176
1992.000000	-0.003107
1991.000000	-0.002992
1990.000000	-0.002961
1989.000000	-0.002973
1988.000000	-0.002963
1987.000000	-0.002969
1986.000000	-0.002991
1985.000000	-0.002930
1984.000000	-0.002777
1983.000000	-0.002677
1982.000000	-0.002673
1981.000000	-0.002634
1980.000000	-0.002548
1979.000000	-0.002645
1978.000000	-0.003013
1977.000000	-0.003372
1976.000000	-0.003492
1975.000000	-0.003522
1974.000000	-0.003634
1973.000000	-0.003713
1972.000000	-0.003628
1971.000000	-0.003490
1970.000000	-0.003440
1969.000000	-0.003441
1968.000000	-0.003435
1967.000000	-0.003453
1966.000000	-0.003450
1965.000000	-0.003286
1964.000000	-0.002999
1963.000000	-0.002808
1962.000000	-0.002775
1961.000000	-0.002735
1960.000000	-0.002628
1959.000000	-0.002627
1958.000000	-0.002803
1957.000000	-0.002986
1956.000000	-0.003042
1955.000000	-0.003046
1954.000000	-0.003073
1953.000000	-0.003068
1952.000000	-0.003033
1951.000000	-0.003084
1950.000000	-0.003241
1949.000000	-0.003343
1948.000000	-0.003297
1947.000000	-0.003221
1946.000000	-0.003248
1945.000000	-0.003346
1944.000000	-0.003441
1943.000000	-0.003522
1942.000000	-0.003541
1941.000000	-0.003399
1940.000000	-0.003131
1939.000000	-0.002920
1938.000000	-0.002859
1937.000000	-0.002865
1936.000000	-0.002874
1935.000000	-0.002925
1934.000000	-0.003006
1933.000000	-0.003001
1932.000000	-0.002889
1931.000000	-0.002794
1930.000000	-0.002796
1929.000000	-0.002824
1928.000000	-0.002816
1927.000000	-0.002835
1926.000000	-0.002923
1925.000000	-0.003007
1924.000000	-0.003018
1923.000000	-0.002998
1922.000000	-0.003011
1921.000000	-0.003038
1920.000000	-0.003065
1919.000000	-0.003127
1918.000000	-0.003190
1917.000000	-0.003156
1916.000000	-0.003019
1915.000000	-0.002886
1914.000000	-0.002816
1913.000000	-0.002780
1912.000000	-0.002776
1911.000000	-0.002855
1910.000000	-0.003005
1909.000000	-0.003119
1908.000000	-0.003140
1907.000000	-0.003124
1906.000000	-0.003090
1905.000000	-0.002992
1904.000000	-0.002845
1903.000000	-0.002749
1902.000000	-0.002737
1901.000000	-0.002717
1900.000000	-0.002635
1899.000000	-0.002580
1898.000000	-0.002614
1897.000000	-0.002678
1896.000000	-0.002708
1895.000000	-0.002736
1894.000000	-0.002810
1893.000000	-0.002897
1892.000000	-0.002965
1891.000000	-0.003036
1890.000000	-0.003098
1889.000000	-0.003092
1888.000000	-0.003018
1887.000000	-0.002961
1886.000000	-0.002947
1885.000000	-0.002902
1884.000000	-0.002813
1883.000000	-0.002773
1882.000000	-0.002835
1881.000000	-0.002920
1880.000000	-0.002950
1879.000000	-0.002957
1878.000000	-0.002966
1877.000000	-0.002939
1876.000000	-0.002879
1875.000000	-0.002847
1874.000000	-0.002868
1873.000000	-0.002920
1872.000000	-0.003027
1871.000000	-0.003244
1870.000000	-0.003507
1869.000000	-0.003629
1868.000000	-0.003547
1867.000000	-0.003412
1866.000000	-0.003328
1865.000000	-0.003246
1864.000000	-0.003124
1863.000000	-0.003031
1862.000000	-0.003017
1861.000000	-0.003027
1860.000000	-0.003002
1859.000000	-0.002975
1858.000000	-0.002960
1857.000000	-0.002905
1856.000000	-0.002803
1855.000000	-0.002746
1854.000000	-0.002780
1853.000000	-0.002828
1852.000000	-0.002831
1851.000000	-0.002862
1850.000000	-0.002962
1849.000000	-0.003075
1848.000000	-0.003203
1847.000000	-0.003432
1846.000000	-0.003746
1845.000000	-0.003922
1844.000000	-0.003808
1843.000000	-0.003588
1842.000000	-0.003480
1841.000000	-0.003392
1840.000000	-0.003201
1839.000000	-0.003004
1838.000000	-0.002928
1837.000000	-0.002942
1836.000000	-0.002938
1835.000000	-0.002908
1834.000000	-0.002937
1833.000000	-0.003048
1832.000000	-0.003177
1831.000000	-0.003262
1830.000000	-0.003234
1829.000000	-0.003101
1828.000000	-0.003012
1827.000000	-0.003086
1826.000000	-0.003237
1825.000000	-0.003278
1824.000000	-0.003180
1823.000000	-0.003078
1822.000000	-0.003034
1821.000000	-0.002965
1820.000000	-0.002849
1819.000000	-0.002789
1818.000000	-0.002820
1817.000000	-0.002834
1816.000000	-0.002747
1815.000000	-0.002636
1814.000000	-0.002612
1813.000000	-0.002651
1812.000000	-0.002678
1811.000000	-0.002676
1810.000000	-0.002664
1809.000000	-0.002631
1808.000000	-0.002558
1807.000000	-0.002479
1806.000000	-0.002413
1805.000000	-0.002344
1804.000000	-0.002307
1803.000000	-0.002396
1802.000000	-0.002589
1801.000000	-0.002658
1800.000000	-0.002451
1799.000000	-0.002095
1798.000000	-0.001832
1797.000000	-0.001739
1796.000000	-0.001753
1795.000000	-0.001841
1794.000000	-0.001975
1793.000000	-0.002030
1792.000000	-0.001936
1791.000000	-0.001820
1790.000000	-0.001764
1789.000000	-0.001656
1788.000000	-0.001449
1787.000000	-0.001283
1786.000000	-0.001253
1785.000000	-0.001262
1784.000000	-0.001178
1783.000000	-0.001031
1782.000000	-0.000896
1781.000000	-0.000708
1780.000000	-0.000443
1779.000000	-0.000203
1778.000000	-0.000046
1777.000000	0.000123
1776.000000	0.000351
1775.000000	0.000491
1774.000000	0.000524
1773.000000	0.000791
1772.000000	0.001546
1771.000000	0.002432
1770.000000	0.003049
1769.000000	0.003573
1768.000000	0.004399
1767.000000	0.005625
1766.000000	0.007087
1765.000000	0.008730
1764.000000	0.010694
1763.000000	0.013181
1762.000000	0.016304
1761.000000	0.019950
1760.000000	0.023885
1759.000000	0.028167
1758.000000	0.033273
1757.000000	0.039623
1756.000000	0.046776
1755.000000	0.053728
1754.000000	0.060231
1753.000000	0.066985
1752.000000	0.074620
1751.000000	0.082786
1750.000000	0.090568
1749.000000	0.097511
1748.000000	0.103448
1747.000000	0.107930
1746.000000	0.110682
1745.000000	0.111839
1744.000000	0.111498
1743.000000	0.109725
1742.000000	0.106686
1741.000000	0.102440
1740.000000	0.096939
1739.000000	0.090700
1738.000000	0.084653
1737.000000	0.079014
1736.000000	0.073046
1735.000000	0.065838
1734.000000	0.058080
1733.000000	0.051719
1732.000000	0.047208
1731.000000	0.043860
1730.000000	0.041122
1729.000000	0.038652
1728.000000	0.036329
1727.000000	0.034102
1726.000000	0.031979
1725.000000	0.029975
1724.000000	0.028050
1723.000000	0.026251
1722.000000	0.024687
1721.000000	0.023344
1720.000000	0.022010
1719.000000	0.020445
1718.000000	0.018733
1717.000000	0.017234
1716.000000	0.016212
1715.000000	0.015766
1714.000000	0.015848
1713.000000	0.016185
1712.000000	0.016463
1711.000000	0.016575
1710.000000	0.016635
1709.000000	0.016787
1708.000000	0.017057
1707.000000	0.017397
1706.000000	0.017961
1705.000000	0.018565
1704.000000	0.019116
1703.000000	0.018923
1702.000000	0.020056
1701.000000	0.021259
1700.000000	0.022179
1699.000000	0.023159
1698.000000	0.023806
1697.000000	0.024638
1696.000000	0.025645
1695.000000	0.026751
1694.000000	0.027594
1693.000000	0.028563
1692.000000	0.028730
1691.000000	0.029607
1690.000000	0.030789
1689.000000	0.031608
1688.000000	0.032340
1687.000000	0.032659
1686.000000	0.032819
1685.000000	0.033477
1684.000000	0.035137
1683.000000	0.037072
1682.000000	0.038610
1681.000000	0.040026
1680.000000	0.041569
1679.000000	0.043077
1678.000000	0.044443
1677.000000	0.045845
1676.000000	0.047547
1675.000000	0.049493
1674.000000	0.051235
1673.000000	0.052591
1672.000000	0.053877
1671.000000	0.055411
1670.000000	0.057250
1669.000000	0.059238
1668.000000	0.061035
1667.000000	0.062459
1666.000000	0.063717
1665.000000	0.065109
1664.000000	0.066762
1663.000000	0.068576
1662.000000	0.070263
1661.000000	0.071705
1660.000000	0.072932
1659.000000	0.074178
1658.000000	0.075187
1657.000000	0.076387
1656.000000	0.076589
1655.000000	0.078765
1654.000000	0.077545
1653.000000	0.077295
1652.000000	0.078728
1651.000000	0.079250
1650.000000	0.080136
1649.000000	0.081344
1648.000000	0.082440
1647.000000	0.082946
1646.000000	0.083165
1645.000000	0.083417
1644.000000	0.083801
1643.000000	0.084333
1642.000000	0.084901
1641.000000	0.085389
1640.000000	0.085787
1639.000000	0.086062
1638.000000	0.086132
1637.000000	0.086003
1636.000000	0.085874
1635.000000	0.085890
1634.000000	0.085906
1633.000000	0.085741
1632.000000	0.085530
1631.000000	0.085256
1630.000000	0.084747
1629.000000	0.084008
1628.000000	0.083112
1627.000000	0.082052
1626.000000	0.080767
1625.000000	0.079234
1624.000000	0.077442
1623.000000	0.075470
1622.000000	0.073506
1621.000000	0.071686
1620.000000	0.069949
1619.000000	0.068040
1618.000000	0.065650
1617.000000	0.062851
1616.000000	0.060230
1615.000000	0.058202
1614.000000	0.056687
1613.000000	0.055374
1612.000000	0.053924
1611.000000	0.052231
1610.000000	0.050435
1609.000000	0.048673
1608.000000	0.046987
1607.000000	0.045421
1606.000000	0.044019
1605.000000	0.042755
1604.000000	0.041542
1603.000000	0.040379
1602.000000	0.039355
1601.000000	0.038495
1600.000000	0.037746
1599.000000	0.037082
1598.000000	0.036519
1597.000000	0.036031
1596.000000	0.035572
1595.000000	0.035180
1594.000000	0.034925
1593.000000	0.034792
1592.000000	0.034701
1591.000000	0.034647
1590.000000	0.034701
1589.000000	0.034882
1588.000000	0.035136
1587.000000	0.035435
1586.000000	0.035799
1585.000000	0.036227
1584.000000	0.036697
1583.000000	0.037222
1582.000000	0.037871
1581.000000	0.038609
1580.000000	0.039361
1579.000000	0.040058
1578.000000	0.040755
1577.000000	0.041494
1576.000000	0.042230
1575.000000	0.042951
1574.000000	0.043696
1573.000000	0.044470
1572.000000	0.045243
1571.000000	0.046037
1570.000000	0.046924
1569.000000	0.047892
1568.000000	0.048835
1567.000000	0.049742
1566.000000	0.050710
1565.000000	0.051779
1564.000000	0.052861
1563.000000	0.053865
1562.000000	0.054805
1561.000000	0.055747
1560.000000	0.056718
1559.000000	0.057699
1558.000000	0.058717
1557.000000	0.059699
1556.000000	0.060670
1555.000000	0.061440
1554.000000	0.062371
1553.000000	0.061830
1552.000000	0.062308
1551.000000	0.063016
1550.000000	0.063492
1549.000000	0.064087
1548.000000	0.064660
1547.000000	0.065111
1546.000000	0.065318
1545.000000	0.065348
1544.000000	0.065294
1543.000000	0.065253
1542.000000	0.065270
1541.000000	0.065196
1540.000000	0.064876
1539.000000	0.064470
1538.000000	0.064206
1537.000000	0.064163
1536.000000	0.064332
1535.000000	0.064303
1534.000000	0.063820
1533.000000	0.063120
1532.000000	0.062421
1531.000000	0.061770
1530.000000	0.061185
1529.000000	0.060614
1528.000000	0.059902
1527.000000	0.058930
1526.000000	0.057891
1525.000000	0.057111
1524.000000	0.056530
1523.000000	0.055733
1522.000000	0.054478
1521.000000	0.053115
1520.000000	0.052169
1519.000000	0.051708
1518.000000	0.051468
1517.000000	0.051096
1516.000000	0.050445
1515.000000	0.049635
1514.000000	0.048801
1513.000000	0.047958
1512.000000	0.047017
1511.000000	0.045911
1510.000000	0.044590
1509.000000	0.042977
1508.000000	0.040948
1507.000000	0.038748
1506.000000	0.037455
1505.000000	0.037414
1504.000000	0.037558
1503.000000	0.037534
1502.000000	0.037316
1501.000000	0.036826
1500.000000	0.036164
1499.000000	0.035355
1498.000000	0.034327
1497.000000	0.033152
1496.000000	0.032094
1495.000000	0.031364
1494.000000	0.030989
1493.000000	0.030840
1492.000000	0.030618
1491.000000	0.030071
1490.000000	0.029295
1489.000000	0.028723
1488.000000	0.028672
1487.000000	0.029037
1486.000000	0.029567
1485.000000	0.030172
1484.000000	0.030818
1483.000000	0.031439
1482.000000	0.032111
1481.000000	0.032958
1480.000000	0.033957
1479.000000	0.034993
1478.000000	0.036123
1477.000000	0.037501
1476.000000	0.039097
1475.000000	0.040862
1474.000000	0.043316
1473.000000	0.047415
1472.000000	0.053182
1471.000000	0.059482
1470.000000	0.065483
1469.000000	0.070999
1468.000000	0.075774
1467.000000	0.079466
1466.000000	0.082052
1465.000000	0.083843
1464.000000	0.085077
1463.000000	0.085859
1462.000000	0.086416
1461.000000	0.086961
1460.000000	0.087463
1459.000000	0.087741
1458.000000	0.087849
1457.000000	0.087983
1456.000000	0.088091
1455.000000	0.088085
1454.000000	0.088084
1453.000000	0.088023
1452.000000	0.087608
1451.000000	0.086855
1450.000000	0.086015
1449.000000	0.085239
1448.000000	0.084538
1447.000000	0.083953
1446.000000	0.083544
1445.000000	0.083283
1444.000000	0.082997
1443.000000	0.082573
1442.000000	0.082042
1441.000000	0.081469
1440.000000	0.080781
1439.000000	0.079796
1438.000000	0.078402
1437.000000	0.076721
1436.000000	0.075151
1435.000000	0.074021
1434.000000	0.073303
1433.000000	0.072702
1432.000000	0.071917
1431.000000	0.070877
1430.000000	0.069729
1429.000000	0.068651
1428.000000	0.067768
1427.000000	0.067089
1426.000000	0.066536
1425.000000	0.066091
1424.000000	0.065801
1423.000000	0.065711
1422.000000	0.065722
1421.000000	0.065656
1420.000000	0.065445
1419.000000	0.065154
1418.000000	0.064905
1417.000000	0.064819
1416.000000	0.064845
1415.000000	0.064729
1414.000000	0.064273
1413.000000	0.063457
1412.000000	0.062381
1411.000000	0.061243
1410.000000	0.060259
1409.000000	0.059531
1408.000000	0.059014
1407.000000	0.058605
1406.000000	0.058216
1405.000000	0.057850
1404.000000	0.057557
1403.000000	0.057348
1402.000000	0.057125
1401.000000	0.056743
1400.000000	0.056127
1399.000000	0.055333
1398.000000	0.054508
1397.000000	0.053740
1396.000000	0.053034
1395.000000	0.052417
1394.000000	0.051997
1393.000000	0.051836
1392.000000	0.051845
1391.000000	0.051878
1390.000000	0.051799
1389.000000	0.051550
1388.000000	0.051244
1387.000000	0.051132
1386.000000	0.051416
1385.000000	0.052095
1384.000000	0.052987
1383.000000	0.053910
1382.000000	0.054794
1381.000000	0.055628
1380.000000	0.056354
1379.000000	0.056808
1378.000000	0.056815
1377.000000	0.056297
1376.000000	0.055266
1375.000000	0.053819
1374.000000	0.052233
1373.000000	0.050889
1372.000000	0.049944
1371.000000	0.049235
1370.000000	0.048526
1369.000000	0.047732
1368.000000	0.046910
1367.000000	0.046126
1366.000000	0.045326
1365.000000	0.044369
1364.000000	0.043177
1363.000000	0.041863
1362.000000	0.040729
1361.000000	0.040038
1360.000000	0.039770
1359.000000	0.039709
1358.000000	0.039672
1357.000000	0.039599
1356.000000	0.039515
1355.000000	0.039462
1354.000000	0.039470
1353.000000	0.039547
1352.000000	0.039683
1351.000000	0.039854
1350.000000	0.040035
1349.000000	0.040225
1348.000000	0.040431
1347.000000	0.040656
1346.000000	0.040900
1345.000000	0.041171
1344.000000	0.041455
1343.000000	0.041678
1342.000000	0.041715
1341.000000	0.041482
1340.000000	0.041038
1339.000000	0.040597
1338.000000	0.040372
1337.000000	0.040385
1336.000000	0.040484
1335.000000	0.040503
1334.000000	0.040375
1333.000000	0.040103
1332.000000	0.039724
1331.000000	0.039286
1330.000000	0.038853
1329.000000	0.038490
1328.000000	0.038232
1327.000000	0.038080
1326.000000	0.038009
1325.000000	0.038005
1324.000000	0.038055
1323.000000	0.038131
1322.000000	0.038194
1321.000000	0.038223
1320.000000	0.038217
1319.000000	0.038192
1318.000000	0.038158
1317.000000	0.038125
1316.000000	0.038077
1315.000000	0.037971
1314.000000	0.037784
1313.000000	0.037547
1312.000000	0.037326
1311.000000	0.037163
1310.000000	0.037036
1309.000000	0.036901
1308.000000	0.036741
1307.000000	0.036575
1306.000000	0.036425
1305.000000	0.036295
1304.000000	0.036170
1303.000000	0.036025
1302.000000	0.035850
1301.000000	0.035654
1300.000000	0.035457
1299.000000	0.035266
1298.000000	0.035082
1297.000000	0.034924
1296.000000	0.034829
1295.000000	0.034832
1294.000000	0.034943
1293.000000	0.035149
1292.000000	0.035419
1291.000000	0.035728
1290.000000	0.036077
1289.000000	0.036490
1288.000000	0.036992
1287.000000	0.037589
1286.000000	0.038271
1285.000000	0.039010
1284.000000	0.039755
1283.000000	0.040434
1282.000000	0.041001
1281.000000	0.041456
1280.000000	0.041811
1279.000000	0.042063
1278.000000	0.042210
1277.000000	0.042279
1276.000000	0.042307
1275.000000	0.042314
1274.000000	0.042317
1273.000000	0.042348
1272.000000	0.042445
1271.000000	0.042630
1270.000000	0.042907
1269.000000	0.043272
1268.000000	0.043698
1267.000000	0.044141
1266.000000	0.044576
1265.000000	0.045015
1264.000000	0.045482
1263.000000	0.045974
1262.000000	0.046483
1261.000000	0.047023
1260.000000	0.047606
1259.000000	0.048222
1258.000000	0.048854
1257.000000	0.049495
1256.000000	0.050139
1255.000000	0.050782
1254.000000	0.051452
1253.000000	0.052210
1252.000000	0.053092
1251.000000	0.054080
1250.000000	0.055131
1249.000000	0.056219
1248.000000	0.057327
1247.000000	0.058428
1246.000000	0.059496
1245.000000	0.060511
1244.000000	0.061446
1243.000000	0.062269
1242.000000	0.062985
1241.000000	0.063617
1240.000000	0.064157
1239.000000	0.064554
1238.000000	0.064780
1237.000000	0.064850
1236.000000	0.064771
1235.000000	0.064532
1234.000000	0.064142
1233.000000	0.063640
1232.000000	0.063049
1231.000000	0.062360
1230.000000	0.061578
1229.000000	0.060725
1228.000000	0.059795
1227.000000	0.058760
1226.000000	0.057628
1225.000000	0.056461
1224.000000	0.055313
1223.000000	0.054191
1222.000000	0.053094
1221.000000	0.052043
1220.000000	0.051060
1219.000000	0.050156
1218.000000	0.049352
1217.000000	0.048684
1216.000000	0.048173
1215.000000	0.047804
1214.000000	0.047567
1213.000000	0.047461
1212.000000	0.047478
1211.000000	0.047593
1210.000000	0.047793
1209.000000	0.048079
1208.000000	0.048427
1207.000000	0.048793
1206.000000	0.049160
1205.000000	0.049555
1204.000000	0.049990
1203.000000	0.050429
1202.000000	0.050840
1201.000000	0.051225
1200.000000	0.051589
1199.000000	0.051915
1198.000000	0.052199
1197.000000	0.052472
1196.000000	0.052758
1195.000000	0.053051
1194.000000	0.053347
1193.000000	0.053676
1192.000000	0.054060
1191.000000	0.054487
1190.000000	0.054948
1189.000000	0.055466
1188.000000	0.056075
1187.000000	0.056785
1186.000000	0.057601
1185.000000	0.058543
1184.000000	0.059615
1183.000000	0.060803
1182.000000	0.062104
1181.000000	0.063528
1180.000000	0.065052
1179.000000	0.066617
1178.000000	0.068206
1177.000000	0.069850
1176.000000	0.071552
1175.000000	0.073259
1174.000000	0.074933
1173.000000	0.076590
1172.000000	0.078237
1171.000000	0.079841
1170.000000	0.081380
1169.000000	0.082875
1168.000000	0.084319
1167.000000	0.085648
1166.000000	0.086819
1165.000000	0.087842
1164.000000	0.088715
1163.000000	0.089382
1162.000000	0.089800
1161.000000	0.089978
1160.000000	0.089923
1159.000000	0.089618
1158.000000	0.089078
1157.000000	0.088356
1156.000000	0.087478
1155.000000	0.086433
1154.000000	0.085265
1153.000000	0.084070
1152.000000	0.082913
1151.000000	0.081785
1150.000000	0.080673
1149.000000	0.079588
1148.000000	0.078516
1147.000000	0.077403
1146.000000	0.076221
1145.000000	0.074963
1144.000000	0.073570
1143.000000	0.071923
1142.000000	0.069957
1141.000000	0.067687
1140.000000	0.065144
1139.000000	0.062341
1138.000000	0.059345
1137.000000	0.056301
1136.000000	0.053348
1135.000000	0.050569
1134.000000	0.048031
1133.000000	0.045828
1132.000000	0.044040
1131.000000	0.042691
1130.000000	0.041787
1129.000000	0.041334
1128.000000	0.041332
1127.000000	0.041731
1126.000000	0.042461
1125.000000	0.043474
1124.000000	0.044704
1123.000000	0.046052
1122.000000	0.047406
1121.000000	0.048683
1120.000000	0.049808
1119.000000	0.050707
1118.000000	0.051346
1117.000000	0.051740
1116.000000	0.051903
1115.000000	0.051818
1114.000000	0.051500
1113.000000	0.051027
1112.000000	0.050480
1111.000000	0.049911
1110.000000	0.049374
1109.000000	0.048951
1108.000000	0.048698
1107.000000	0.048617
1106.000000	0.048699
1105.000000	0.048964
1104.000000	0.049409
1103.000000	0.049968
1102.000000	0.050560
1101.000000	0.051139
1100.000000	0.051668
1099.000000	0.052093
1098.000000	0.052386
1097.000000	0.052558
1096.000000	0.052613
1095.000000	0.052530
1094.000000	0.052312
1093.000000	0.052018
1092.000000	0.051707
1091.000000	0.051392
1090.000000	0.051078
1089.000000	0.050794
1088.000000	0.050555
1087.000000	0.050343
1086.000000	0.050139
1085.000000	0.049933
1084.000000	0.049683
1083.000000	0.049312
1082.000000	0.048775
1081.000000	0.048084
1080.000000	0.047254
1079.000000	0.046287
1078.000000	0.045219
1077.000000	0.044128
1076.000000	0.043054
1075.000000	0.041992
1074.000000	0.040966
1073.000000	0.040059
1072.000000	0.039331
1071.000000	0.038768
1070.000000	0.038341
1069.000000	0.038060
1068.000000	0.037930
1067.000000	0.037906
1066.000000	0.037930
1065.000000	0.037986
1064.000000	0.038072
1063.000000	0.038155
1062.000000	0.038194
1061.000000	0.038177
1060.000000	0.038094
1059.000000	0.037919
1058.000000	0.037643
1057.000000	0.037293
1056.000000	0.036899
1055.000000	0.036461
1054.000000	0.035991
1053.000000	0.035528
1052.000000	0.035098
1051.000000	0.034699
1050.000000	0.034332
1049.000000	0.034014
1048.000000	0.033737
1047.000000	0.033465
1046.000000	0.033193
1045.000000	0.032963
1044.000000	0.032808
1043.000000	0.032727
1042.000000	0.032736
1041.000000	0.032872
1040.000000	0.033135
1039.000000	0.033488
1038.000000	0.033913
1037.000000	0.034432
1036.000000	0.035019
1035.000000	0.035584
1034.000000	0.036055
1033.000000	0.036432
1032.000000	0.036713
1031.000000	0.036843
1030.000000	0.036782
1029.000000	0.036560
1028.000000	0.036223
1027.000000	0.035788
1026.000000	0.035279
1025.000000	0.034758
1024.000000	0.034260
1023.000000	0.033765
1022.000000	0.033257
1021.000000	0.032775
1020.000000	0.032352
1019.000000	0.031970
1018.000000	0.031605
1017.000000	0.031255
1016.000000	0.030897
1015.000000	0.030461
1014.000000	0.029911
1013.000000	0.029288
1012.000000	0.028647
1011.000000	0.027993
1010.000000	0.027320
1009.000000	0.026656
1008.000000	0.026029
1007.000000	0.025417
1006.000000	0.024807
1005.000000	0.024228
1004.000000	0.023713
1003.000000	0.023238
1002.000000	0.022760
1001.000000	0.022267
1000.000000	0.021768
999.000000	0.021264
998.000000	0.020758
997.000000	0.020268
996.000000	0.019797
995.000000	0.019325
994.000000	0.018854
993.000000	0.018427
992.000000	0.018069
991.000000	0.017767
990.000000	0.017508
989.000000	0.017300
988.000000	0.017126
987.000000	0.016932
986.000000	0.016697
985.000000	0.016464
984.000000	0.016264
983.000000	0.016079
982.000000	0.015903
981.000000	0.015779
980.000000	0.015734
979.000000	0.015729
978.000000	0.015719
977.000000	0.015725
976.000000	0.015786
975.000000	0.015891
974.000000	0.016007
973.000000	0.016125
972.000000	0.016244
971.000000	0.016331
970.000000	0.016359
969.000000	0.016331
968.000000	0.016233
967.000000	0.015999
966.000000	0.015589
965.000000	0.015036
964.000000	0.014387
963.000000	0.013642
962.000000	0.012804
961.000000	0.011931
960.000000	0.011091
959.000000	0.010295
958.000000	0.009529
957.000000	0.008805
956.000000	0.008140
955.000000	0.007514
954.000000	0.006911
953.000000	0.006354
952.000000	0.005872
951.000000	0.005452
950.000000	0.005074
949.000000	0.004750
948.000000	0.004490
947.000000	0.004259
946.000000	0.004021
945.000000	0.003785
944.000000	0.003572
943.000000	0.003370
942.000000	0.003155
941.000000	0.002940
940.000000	0.002729
939.000000	0.002491
938.000000	0.002198
937.000000	0.001876
936.000000	0.001561
935.000000	0.001249
934.000000	0.000924
933.000000	0.000608
932.000000	0.000330
931.000000	0.000084
930.000000	-0.000139
929.000000	-0.000322
928.000000	-0.000457
927.000000	-0.000582
926.000000	-0.000726
925.000000	-0.000866
924.000000	-0.000971
923.000000	-0.001060
922.000000	-0.001173
921.000000	-0.001313
920.000000	-0.001467
919.000000	-0.001650
918.000000	-0.001870
917.000000	-0.002094
916.000000	-0.002296
915.000000	-0.002489
914.000000	-0.002690
913.000000	-0.002868
912.000000	-0.002993
911.000000	-0.003084
910.000000	-0.003163
909.000000	-0.003216
908.000000	-0.003227
907.000000	-0.003229
906.000000	-0.003254
905.000000	-0.003277
904.000000	-0.003266
903.000000	-0.003236
902.000000	-0.003225
901.000000	-0.003238
900.000000	-0.003270
899.000000	-0.003344
898.000000	-0.003459
897.000000	-0.003562
896.000000	-0.003610
895.000000	-0.003623
894.000000	-0.003638
893.000000	-0.003638
892.000000	-0.003596
891.000000	-0.003538
890.000000	-0.003497
889.000000	-0.003443
888.000000	-0.003319
887.000000	-0.003102
886.000000	-0.002776
885.000000	-0.002291
884.000000	-0.001593
883.000000	-0.000658
882.000000	0.000577
881.000000	0.002256
880.000000	0.004496
879.000000	0.007216
878.000000	0.010106
877.000000	0.012725
876.000000	0.014605
875.000000	0.015363
874.000000	0.014849
873.000000	0.013228
872.000000	0.010879
871.000000	0.008257
870.000000	0.005794
869.000000	0.003804
868.000000	0.002375
867.000000	0.001381
866.000000	0.000655
865.000000	0.000117
864.000000	-0.000268
863.000000	-0.000548
862.000000	-0.000758
861.000000	-0.000887
860.000000	-0.000951
859.000000	-0.001014
858.000000	-0.001109
857.000000	-0.001183
856.000000	-0.001180
855.000000	-0.001124
854.000000	-0.001059
853.000000	-0.000983
852.000000	-0.000906
851.000000	-0.000881
850.000000	-0.000944
849.000000	-0.001056
848.000000	-0.001195
847.000000	-0.001395
846.000000	-0.001663
845.000000	-0.001921
844.000000	-0.002103
843.000000	-0.002245
842.000000	-0.002407
841.000000	-0.002581
840.000000	-0.002732
839.000000	-0.002874
838.000000	-0.003013
837.000000	-0.003109
836.000000	-0.003154
835.000000	-0.003219
834.000000	-0.003354
833.000000	-0.003500
832.000000	-0.003583
831.000000	-0.003621
830.000000	-0.003659
829.000000	-0.003679
828.000000	-0.003655
827.000000	-0.003629
826.000000	-0.003637
825.000000	-0.003631
824.000000	-0.003562
823.000000	-0.003479
822.000000	-0.003437
821.000000	-0.003410
820.000000	-0.003353
819.000000	-0.003295
818.000000	-0.003270
817.000000	-0.003239
816.000000	-0.003166
815.000000	-0.003097
814.000000	-0.003087
813.000000	-0.003117
812.000000	-0.003149
811.000000	-0.003195
810.000000	-0.003272
809.000000	-0.003344
808.000000	-0.003391
807.000000	-0.003454
806.000000	-0.003551
805.000000	-0.003619
804.000000	-0.003624
803.000000	-0.003622
802.000000	-0.003652
801.000000	-0.003651
800.000000	-0.003564
799.000000	-0.003457
798.000000	-0.003417
797.000000	-0.003415
796.000000	-0.003371
795.000000	-0.003288
794.000000	-0.003213
793.000000	-0.003140
792.000000	-0.003037
791.000000	-0.002914
790.000000	-0.002788
789.000000	-0.002644
788.000000	-0.002483
787.000000	-0.002351
786.000000	-0.002254
785.000000	-0.002131
784.000000	-0.001948
783.000000	-0.001766
782.000000	-0.001637
781.000000	-0.001533
780.000000	-0.001413
779.000000	-0.001297
778.000000	-0.001190
777.000000	-0.001042
776.000000	-0.000846
775.000000	-0.000688
774.000000	-0.000620
773.000000	-0.000566
772.000000	-0.000434
771.000000	-0.000226
770.000000	0.000016
769.000000	0.000288
768.000000	0.000567
767.000000	0.000781
766.000000	0.000909
765.000000	0.001028
764.000000	0.001189
763.000000	0.001333
762.000000	0.001403
761.000000	0.001447
760.000000	0.001526
759.000000	0.001614
758.000000	0.001690
757.000000	0.001810
756.000000	0.002004
755.000000	0.002198
754.000000	0.002333
753.000000	0.002468
752.000000	0.002678
751.000000	0.002943
750.000000	0.003229
749.000000	0.003579
748.000000	0.004023
747.000000	0.004491
746.000000	0.004922
745.000000	0.005355
744.000000	0.005835
743.000000	0.006313
742.000000	0.006762
741.000000	0.007267
740.000000	0.007898
739.000000	0.008594
738.000000	0.009268
737.000000	0.009956
736.000000	0.010727
735.000000	0.011558
734.000000	0.012393
733.000000	0.013272
732.000000	0.014262
731.000000	0.015357
730.000000	0.016533
729.000000	0.017838
728.000000	0.019313
727.000000	0.020899
726.000000	0.022515
725.000000	0.024129
724.000000	0.025647
723.000000	0.026861
722.000000	0.027594
721.000000	0.027836
720.000000	0.027656
719.000000	0.027107
718.000000	0.026325
717.000000	0.025581
716.000000	0.025098
715.000000	0.024860
714.000000	0.024684
713.000000	0.024428
712.000000	0.024017
711.000000	0.023408
710.000000	0.022649
709.000000	0.021919
708.000000	0.021370
707.000000	0.020976
706.000000	0.020653
705.000000	0.020408
704.000000	0.020261
703.000000	0.020132
702.000000	0.019926
701.000000	0.019676
700.000000	0.019463
699.000000	0.019287
698.000000	0.019124
697.000000	0.019016
696.000000	0.018988
695.000000	0.018968
694.000000	0.018888
693.000000	0.018777
692.000000	0.018678
691.000000	0.018540
690.000000	0.018330
689.000000	0.018133
688.000000	0.018022
687.000000	0.017942
686.000000	0.017827
685.000000	0.017729
684.000000	0.017722
683.000000	0.017757
682.000000	0.017744
681.000000	0.017693
680.000000	0.017644
679.000000	0.017567
678.000000	0.017450
677.000000	0.017407
676.000000	0.017514
675.000000	0.017665
674.000000	0.017722
673.000000	0.017683
672.000000	0.017602
671.000000	0.017398
670.000000	0.017011
669.000000	0.016530
668.000000	0.016316
667.000000	0.016572
666.000000	0.016948
665.000000	0.017296
664.000000	0.017652
663.000000	0.017872
662.000000	0.017863
661.000000	0.017710
660.000000	0.017577
659.000000	0.017464
658.000000	0.017328
657.000000	0.017250
656.000000	0.017267
655.000000	0.017246
654.000000	0.017107
653.000000	0.016972
652.000000	0.016938
651.000000	0.016901
650.000000	0.016778
649.000000	0.016676
648.000000	0.016660
647.000000	0.016588
646.000000	0.016376
645.000000	0.016179
644.000000	0.016140
643.000000	0.016175
642.000000	0.016151
641.000000	0.016102
640.000000	0.016078
639.000000	0.015980
638.000000	0.015757
637.000000	0.015560
636.000000	0.015499
635.000000	0.015464
634.000000	0.015356
633.000000	0.015304
632.000000	0.015438
631.000000	0.015664
630.000000	0.015833
629.000000	0.015975
628.000000	0.016146
627.000000	0.016241
626.000000	0.016176
625.000000	0.016079
624.000000	0.016088
623.000000	0.016137
622.000000	0.016124
621.000000	0.016123
620.000000	0.016214
619.000000	0.016293
618.000000	0.016271
617.000000	0.016294
616.000000	0.016522
615.000000	0.016849
614.000000	0.017067
613.000000	0.017143
612.000000	0.017134
611.000000	0.017019
610.000000	0.016805
609.000000	0.016663
608.000000	0.016715
607.000000	0.016835
606.000000	0.016862
605.000000	0.016830
604.000000	0.016820
603.000000	0.016801
602.000000	0.016788
601.000000	0.016931
600.000000	0.017253
599.000000	0.017507
598.000000	0.017516
597.000000	0.017444
596.000000	0.017491
595.000000	0.017566
594.000000	0.017510
593.000000	0.017424
592.000000	0.017507
591.000000	0.017723
590.000000	0.017909
589.000000	0.018038
588.000000	0.018124
587.000000	0.018072
586.000000	0.017871
585.000000	0.017741
584.000000	0.017833
583.000000	0.017982
582.000000	0.018012
581.000000	0.018053
580.000000	0.018265
579.000000	0.018495
578.000000	0.018513
577.000000	0.018387
576.000000	0.018305
575.000000	0.018249
574.000000	0.018121
573.000000	0.018012
572.000000	0.018029
571.000000	0.018088
570.000000	0.018119
569.000000	0.018268
568.000000	0.018598
567.000000	0.018865
566.000000	0.018887
565.000000	0.018864
564.000000	0.019025
563.000000	0.019246
562.000000	0.019334
561.000000	0.019393
560.000000	0.019577
559.000000	0.019738
558.000000	0.019691
557.000000	0.019556
556.000000	0.019503
555.000000	0.019411
554.000000	0.019140
553.000000	0.018845
552.000000	0.018698
551.000000	0.018565
550.000000	0.018293
549.000000	0.018026
548.000000	0.017892
547.000000	0.017710
546.000000	0.017362
545.000000	0.017115
544.000000	0.017166
543.000000	0.017244
542.000000	0.017042
541.000000	0.016732
540.000000	0.016635
539.000000	0.016701
538.000000	0.016730
537.000000	0.016805
536.000000	0.017070
535.000000	0.017342
534.000000	0.017398
533.000000	0.017370
532.000000	0.017450
531.000000	0.017480
530.000000	0.017241
529.000000	0.016854
528.000000	0.016537
527.000000	0.016221
526.000000	0.015817
525.000000	0.015558
524.000000	0.015596
523.000000	0.015610
522.000000	0.015271
521.000000	0.014708
520.000000	0.014162
519.000000	0.013520
518.000000	0.012634
517.000000	0.011796
516.000000	0.011361
515.000000	0.011210
514.000000	0.011075
513.000000	0.011024
512.000000	0.011157
511.000000	0.011194
510.000000	0.010849
509.000000	0.010323
508.000000	0.009961
507.000000	0.009684
506.000000	0.009203
505.000000	0.008557
504.000000	0.007942
503.000000	0.007326
502.000000	0.006696
501.000000	0.006356
500.000000	0.006467
499.000000	0.006649
498.000000	0.006493
497.000000	0.006146
496.000000	0.005955
495.000000	0.005846
494.000000	0.005526
493.000000	0.005033
492.000000	0.004603
491.000000	0.004207
490.000000	0.003736
489.000000	0.003370
488.000000	0.003268
487.000000	0.003165
486.000000	0.002761
485.000000	0.002299
484.000000	0.002240
483.000000	0.002510
482.000000	0.002671
481.000000	0.002610
480.000000	0.002495
479.000000	0.002271
478.000000	0.001816
477.000000	0.001374
476.000000	0.001259
475.000000	0.001306
474.000000	0.001139
473.000000	0.000805
472.000000	0.000616
471.000000	0.000516
470.000000	0.000298
469.000000	0.000186
468.000000	0.000493
467.000000	0.000998
466.000000	0.001261
465.000000	0.001301
464.000000	0.001367
463.000000	0.001337
462.000000	0.000903
461.000000	0.000294
460.000000	-0.000336
459.000000	-0.000890
458.000000	-0.002056
457.000000	-0.001956
456.000000	-0.001841
455.000000	-0.002143
454.000000	-0.002152
453.000000	-0.002378
452.000000	-0.002543
451.000000	-0.003026
450.000000	-0.003758
