PE IR       SUBTECH     SPECTRUM    ASCII       PEDS        4.00        
   -1
3S-H10-F032_1.ASC
22/02/18
11:20:06.00
22/02/18
11:29:39.00
uco
Sample 032 By uco Date Friday, February 18 2022
450.000000
#HDR
-1
-1
#GR
cm-1
A
1.0
0.0
4000.000000
-1.000000
3551
8
0.036819
0.002039
#DATA
4000.000000	0.002270
3999.000000	0.002259
3998.000000	0.002255
3997.000000	0.002260
3996.000000	0.002267
3995.000000	0.002274
3994.000000	0.002275
3993.000000	0.002271
3992.000000	0.002262
3991.000000	0.002256
3990.000000	0.002258
3989.000000	0.002271
3988.000000	0.002290
3987.000000	0.002308
3986.000000	0.002321
3985.000000	0.002327
3984.000000	0.002328
3983.000000	0.002325
3982.000000	0.002320
3981.000000	0.002320
3980.000000	0.002327
3979.000000	0.002340
3978.000000	0.002355
3977.000000	0.002365
3976.000000	0.002369
3975.000000	0.002370
3974.000000	0.002371
3973.000000	0.002365
3972.000000	0.002350
3971.000000	0.002327
3970.000000	0.002307
3969.000000	0.002298
3968.000000	0.002299
3967.000000	0.002301
3966.000000	0.002298
3965.000000	0.002291
3964.000000	0.002283
3963.000000	0.002279
3962.000000	0.002281
3961.000000	0.002290
3960.000000	0.002307
3959.000000	0.002330
3958.000000	0.002357
3957.000000	0.002380
3956.000000	0.002396
3955.000000	0.002407
3954.000000	0.002419
3953.000000	0.002437
3952.000000	0.002460
3951.000000	0.002475
3950.000000	0.002473
3949.000000	0.002456
3948.000000	0.002438
3947.000000	0.002431
3946.000000	0.002434
3945.000000	0.002435
3944.000000	0.002426
3943.000000	0.002407
3942.000000	0.002391
3941.000000	0.002386
3940.000000	0.002388
3939.000000	0.002387
3938.000000	0.002378
3937.000000	0.002366
3936.000000	0.002361
3935.000000	0.002366
3934.000000	0.002375
3933.000000	0.002382
3932.000000	0.002385
3931.000000	0.002386
3930.000000	0.002386
3929.000000	0.002387
3928.000000	0.002385
3927.000000	0.002379
3926.000000	0.002367
3925.000000	0.002350
3924.000000	0.002337
3923.000000	0.002339
3922.000000	0.002354
3921.000000	0.002370
3920.000000	0.002371
3919.000000	0.002353
3918.000000	0.002329
3917.000000	0.002318
3916.000000	0.002329
3915.000000	0.002359
3914.000000	0.002391
3913.000000	0.002407
3912.000000	0.002399
3911.000000	0.002374
3910.000000	0.002344
3909.000000	0.002320
3908.000000	0.002299
3907.000000	0.002278
3906.000000	0.002256
3905.000000	0.002240
3904.000000	0.002236
3903.000000	0.002250
3902.000000	0.002276
3901.000000	0.002302
3900.000000	0.002316
3899.000000	0.002322
3898.000000	0.002330
3897.000000	0.002343
3896.000000	0.002357
3895.000000	0.002362
3894.000000	0.002356
3893.000000	0.002339
3892.000000	0.002318
3891.000000	0.002302
3890.000000	0.002301
3889.000000	0.002315
3888.000000	0.002341
3887.000000	0.002366
3886.000000	0.002375
3885.000000	0.002369
3884.000000	0.002365
3883.000000	0.002364
3882.000000	0.002358
3881.000000	0.002342
3880.000000	0.002330
3879.000000	0.002340
3878.000000	0.002378
3877.000000	0.002428
3876.000000	0.002470
3875.000000	0.002483
3874.000000	0.002461
3873.000000	0.002421
3872.000000	0.002380
3871.000000	0.002338
3870.000000	0.002294
3869.000000	0.002257
3868.000000	0.002238
3867.000000	0.002237
3866.000000	0.002243
3865.000000	0.002248
3864.000000	0.002261
3863.000000	0.002284
3862.000000	0.002308
3861.000000	0.002325
3860.000000	0.002338
3859.000000	0.002351
3858.000000	0.002361
3857.000000	0.002365
3856.000000	0.002366
3855.000000	0.002365
3854.000000	0.002364
3853.000000	0.002369
3852.000000	0.002391
3851.000000	0.002419
3850.000000	0.002438
3849.000000	0.002442
3848.000000	0.002435
3847.000000	0.002427
3846.000000	0.002421
3845.000000	0.002414
3844.000000	0.002401
3843.000000	0.002376
3842.000000	0.002348
3841.000000	0.002326
3840.000000	0.002315
3839.000000	0.002312
3838.000000	0.002310
3837.000000	0.002306
3836.000000	0.002301
3835.000000	0.002296
3834.000000	0.002292
3833.000000	0.002292
3832.000000	0.002299
3831.000000	0.002316
3830.000000	0.002342
3829.000000	0.002372
3828.000000	0.002395
3827.000000	0.002398
3826.000000	0.002374
3825.000000	0.002332
3824.000000	0.002288
3823.000000	0.002257
3822.000000	0.002242
3821.000000	0.002240
3820.000000	0.002250
3819.000000	0.002266
3818.000000	0.002274
3817.000000	0.002272
3816.000000	0.002266
3815.000000	0.002277
3814.000000	0.002315
3813.000000	0.002367
3812.000000	0.002412
3811.000000	0.002438
3810.000000	0.002444
3809.000000	0.002434
3808.000000	0.002410
3807.000000	0.002376
3806.000000	0.002347
3805.000000	0.002340
3804.000000	0.002359
3803.000000	0.002392
3802.000000	0.002411
3801.000000	0.002410
3800.000000	0.002408
3799.000000	0.002416
3798.000000	0.002424
3797.000000	0.002418
3796.000000	0.002394
3795.000000	0.002362
3794.000000	0.002338
3793.000000	0.002328
3792.000000	0.002327
3791.000000	0.002327
3790.000000	0.002323
3789.000000	0.002314
3788.000000	0.002304
3787.000000	0.002301
3786.000000	0.002308
3785.000000	0.002322
3784.000000	0.002334
3783.000000	0.002337
3782.000000	0.002327
3781.000000	0.002309
3780.000000	0.002295
3779.000000	0.002295
3778.000000	0.002310
3777.000000	0.002324
3776.000000	0.002325
3775.000000	0.002311
3774.000000	0.002294
3773.000000	0.002288
3772.000000	0.002294
3771.000000	0.002297
3770.000000	0.002283
3769.000000	0.002262
3768.000000	0.002249
3767.000000	0.002251
3766.000000	0.002260
3765.000000	0.002267
3764.000000	0.002269
3763.000000	0.002269
3762.000000	0.002268
3761.000000	0.002260
3760.000000	0.002249
3759.000000	0.002245
3758.000000	0.002256
3757.000000	0.002274
3756.000000	0.002293
3755.000000	0.002318
3754.000000	0.002351
3753.000000	0.002387
3752.000000	0.002409
3751.000000	0.002409
3750.000000	0.002394
3749.000000	0.002370
3748.000000	0.002344
3747.000000	0.002332
3746.000000	0.002342
3745.000000	0.002353
3744.000000	0.002350
3743.000000	0.002340
3742.000000	0.002334
3741.000000	0.002328
3740.000000	0.002318
3739.000000	0.002305
3738.000000	0.002297
3737.000000	0.002292
3736.000000	0.002279
3735.000000	0.002255
3734.000000	0.002239
3733.000000	0.002242
3732.000000	0.002254
3731.000000	0.002263
3730.000000	0.002264
3729.000000	0.002270
3728.000000	0.002292
3727.000000	0.002332
3726.000000	0.002375
3725.000000	0.002404
3724.000000	0.002405
3723.000000	0.002380
3722.000000	0.002343
3721.000000	0.002312
3720.000000	0.002290
3719.000000	0.002275
3718.000000	0.002261
3717.000000	0.002246
3716.000000	0.002234
3715.000000	0.002234
3714.000000	0.002250
3713.000000	0.002276
3712.000000	0.002296
3711.000000	0.002302
3710.000000	0.002300
3709.000000	0.002299
3708.000000	0.002296
3707.000000	0.002284
3706.000000	0.002264
3705.000000	0.002241
3704.000000	0.002226
3703.000000	0.002229
3702.000000	0.002252
3701.000000	0.002288
3700.000000	0.002318
3699.000000	0.002333
3698.000000	0.002337
3697.000000	0.002336
3696.000000	0.002336
3695.000000	0.002336
3694.000000	0.002331
3693.000000	0.002313
3692.000000	0.002284
3691.000000	0.002248
3690.000000	0.002222
3689.000000	0.002223
3688.000000	0.002256
3687.000000	0.002305
3686.000000	0.002348
3685.000000	0.002377
3684.000000	0.002388
3683.000000	0.002382
3682.000000	0.002367
3681.000000	0.002356
3680.000000	0.002360
3679.000000	0.002388
3678.000000	0.002438
3677.000000	0.002484
3676.000000	0.002482
3675.000000	0.002432
3674.000000	0.002388
3673.000000	0.002379
3672.000000	0.002400
3671.000000	0.002425
3670.000000	0.002437
3669.000000	0.002450
3668.000000	0.002482
3667.000000	0.002531
3666.000000	0.002581
3665.000000	0.002621
3664.000000	0.002646
3663.000000	0.002659
3662.000000	0.002665
3661.000000	0.002663
3660.000000	0.002651
3659.000000	0.002633
3658.000000	0.002623
3657.000000	0.002633
3656.000000	0.002671
3655.000000	0.002727
3654.000000	0.002787
3653.000000	0.002846
3652.000000	0.002904
3651.000000	0.002951
3650.000000	0.002968
3649.000000	0.002953
3648.000000	0.002927
3647.000000	0.002919
3646.000000	0.002946
3645.000000	0.002999
3644.000000	0.003059
3643.000000	0.003105
3642.000000	0.003131
3641.000000	0.003144
3640.000000	0.003158
3639.000000	0.003183
3638.000000	0.003219
3637.000000	0.003261
3636.000000	0.003299
3635.000000	0.003317
3634.000000	0.003311
3633.000000	0.003297
3632.000000	0.003302
3631.000000	0.003344
3630.000000	0.003411
3629.000000	0.003467
3628.000000	0.003499
3627.000000	0.003524
3626.000000	0.003553
3625.000000	0.003593
3624.000000	0.003639
3623.000000	0.003678
3622.000000	0.003699
3621.000000	0.003699
3620.000000	0.003687
3619.000000	0.003684
3618.000000	0.003702
3617.000000	0.003734
3616.000000	0.003762
3615.000000	0.003777
3614.000000	0.003785
3613.000000	0.003806
3612.000000	0.003850
3611.000000	0.003909
3610.000000	0.003965
3609.000000	0.004006
3608.000000	0.004037
3607.000000	0.004083
3606.000000	0.004156
3605.000000	0.004251
3604.000000	0.004344
3603.000000	0.004413
3602.000000	0.004451
3601.000000	0.004465
3600.000000	0.004472
3599.000000	0.004487
3598.000000	0.004509
3597.000000	0.004537
3596.000000	0.004568
3595.000000	0.004601
3594.000000	0.004643
3593.000000	0.004692
3592.000000	0.004742
3591.000000	0.004782
3590.000000	0.004810
3589.000000	0.004832
3588.000000	0.004861
3587.000000	0.004911
3586.000000	0.004981
3585.000000	0.005052
3584.000000	0.005104
3583.000000	0.005131
3582.000000	0.005144
3581.000000	0.005158
3580.000000	0.005187
3579.000000	0.005235
3578.000000	0.005301
3577.000000	0.005382
3576.000000	0.005470
3575.000000	0.005555
3574.000000	0.005626
3573.000000	0.005676
3572.000000	0.005704
3571.000000	0.005714
3570.000000	0.005717
3569.000000	0.005721
3568.000000	0.005733
3567.000000	0.005763
3566.000000	0.005821
3565.000000	0.005904
3564.000000	0.005998
3563.000000	0.006089
3562.000000	0.006172
3561.000000	0.006245
3560.000000	0.006306
3559.000000	0.006358
3558.000000	0.006408
3557.000000	0.006463
3556.000000	0.006521
3555.000000	0.006574
3554.000000	0.006617
3553.000000	0.006652
3552.000000	0.006686
3551.000000	0.006723
3550.000000	0.006765
3549.000000	0.006811
3548.000000	0.006859
3547.000000	0.006906
3546.000000	0.006947
3545.000000	0.006982
3544.000000	0.007016
3543.000000	0.007053
3542.000000	0.007091
3541.000000	0.007132
3540.000000	0.007180
3539.000000	0.007239
3538.000000	0.007306
3537.000000	0.007373
3536.000000	0.007431
3535.000000	0.007479
3534.000000	0.007523
3533.000000	0.007568
3532.000000	0.007616
3531.000000	0.007667
3530.000000	0.007716
3529.000000	0.007764
3528.000000	0.007811
3527.000000	0.007858
3526.000000	0.007903
3525.000000	0.007949
3524.000000	0.007993
3523.000000	0.008036
3522.000000	0.008079
3521.000000	0.008122
3520.000000	0.008164
3519.000000	0.008202
3518.000000	0.008238
3517.000000	0.008273
3516.000000	0.008309
3515.000000	0.008344
3514.000000	0.008379
3513.000000	0.008424
3512.000000	0.008489
3511.000000	0.008577
3510.000000	0.008673
3509.000000	0.008757
3508.000000	0.008812
3507.000000	0.008838
3506.000000	0.008845
3505.000000	0.008853
3504.000000	0.008871
3503.000000	0.008902
3502.000000	0.008942
3501.000000	0.008991
3500.000000	0.009050
3499.000000	0.009115
3498.000000	0.009176
3497.000000	0.009222
3496.000000	0.009249
3495.000000	0.009268
3494.000000	0.009294
3493.000000	0.009333
3492.000000	0.009380
3491.000000	0.009419
3490.000000	0.009444
3489.000000	0.009460
3488.000000	0.009479
3487.000000	0.009505
3486.000000	0.009539
3485.000000	0.009576
3484.000000	0.009619
3483.000000	0.009668
3482.000000	0.009720
3481.000000	0.009769
3480.000000	0.009811
3479.000000	0.009843
3478.000000	0.009866
3477.000000	0.009884
3476.000000	0.009906
3475.000000	0.009943
3474.000000	0.009999
3473.000000	0.010072
3472.000000	0.010148
3471.000000	0.010215
3470.000000	0.010268
3469.000000	0.010311
3468.000000	0.010350
3467.000000	0.010385
3466.000000	0.010409
3465.000000	0.010424
3464.000000	0.010443
3463.000000	0.010479
3462.000000	0.010530
3461.000000	0.010582
3460.000000	0.010623
3459.000000	0.010653
3458.000000	0.010680
3457.000000	0.010707
3456.000000	0.010737
3455.000000	0.010772
3454.000000	0.010821
3453.000000	0.010883
3452.000000	0.010947
3451.000000	0.011002
3450.000000	0.011043
3449.000000	0.011073
3448.000000	0.011100
3447.000000	0.011131
3446.000000	0.011171
3445.000000	0.011214
3444.000000	0.011252
3443.000000	0.011284
3442.000000	0.011321
3441.000000	0.011371
3440.000000	0.011431
3439.000000	0.011484
3438.000000	0.011523
3437.000000	0.011557
3436.000000	0.011600
3435.000000	0.011655
3434.000000	0.011714
3433.000000	0.011766
3432.000000	0.011809
3431.000000	0.011846
3430.000000	0.011878
3429.000000	0.011902
3428.000000	0.011916
3427.000000	0.011929
3426.000000	0.011954
3425.000000	0.011998
3424.000000	0.012054
3423.000000	0.012110
3422.000000	0.012159
3421.000000	0.012205
3420.000000	0.012252
3419.000000	0.012301
3418.000000	0.012348
3417.000000	0.012392
3416.000000	0.012430
3415.000000	0.012465
3414.000000	0.012498
3413.000000	0.012532
3412.000000	0.012567
3411.000000	0.012603
3410.000000	0.012645
3409.000000	0.012697
3408.000000	0.012759
3407.000000	0.012820
3406.000000	0.012861
3405.000000	0.012872
3404.000000	0.012860
3403.000000	0.012847
3402.000000	0.012856
3401.000000	0.012896
3400.000000	0.012958
3399.000000	0.013022
3398.000000	0.013075
3397.000000	0.013113
3396.000000	0.013143
3395.000000	0.013173
3394.000000	0.013206
3393.000000	0.013239
3392.000000	0.013269
3391.000000	0.013300
3390.000000	0.013342
3389.000000	0.013399
3388.000000	0.013467
3387.000000	0.013532
3386.000000	0.013584
3385.000000	0.013623
3384.000000	0.013660
3383.000000	0.013699
3382.000000	0.013740
3381.000000	0.013780
3380.000000	0.013820
3379.000000	0.013864
3378.000000	0.013911
3377.000000	0.013954
3376.000000	0.013990
3375.000000	0.014027
3374.000000	0.014078
3373.000000	0.014150
3372.000000	0.014232
3371.000000	0.014301
3370.000000	0.014342
3369.000000	0.014361
3368.000000	0.014379
3367.000000	0.014415
3366.000000	0.014477
3365.000000	0.014557
3364.000000	0.014641
3363.000000	0.014725
3362.000000	0.014809
3361.000000	0.014890
3360.000000	0.014962
3359.000000	0.015018
3358.000000	0.015058
3357.000000	0.015095
3356.000000	0.015138
3355.000000	0.015185
3354.000000	0.015234
3353.000000	0.015285
3352.000000	0.015347
3351.000000	0.015425
3350.000000	0.015512
3349.000000	0.015591
3348.000000	0.015651
3347.000000	0.015696
3346.000000	0.015737
3345.000000	0.015788
3344.000000	0.015851
3343.000000	0.015922
3342.000000	0.015988
3341.000000	0.016043
3340.000000	0.016091
3339.000000	0.016138
3338.000000	0.016193
3337.000000	0.016254
3336.000000	0.016313
3335.000000	0.016360
3334.000000	0.016396
3333.000000	0.016432
3332.000000	0.016482
3331.000000	0.016547
3330.000000	0.016613
3329.000000	0.016664
3328.000000	0.016694
3327.000000	0.016711
3326.000000	0.016731
3325.000000	0.016762
3324.000000	0.016803
3323.000000	0.016848
3322.000000	0.016892
3321.000000	0.016938
3320.000000	0.016989
3319.000000	0.017047
3318.000000	0.017105
3317.000000	0.017153
3316.000000	0.017190
3315.000000	0.017224
3314.000000	0.017264
3313.000000	0.017314
3312.000000	0.017362
3311.000000	0.017396
3310.000000	0.017411
3309.000000	0.017415
3308.000000	0.017421
3307.000000	0.017439
3306.000000	0.017469
3305.000000	0.017503
3304.000000	0.017534
3303.000000	0.017562
3302.000000	0.017595
3301.000000	0.017636
3300.000000	0.017678
3299.000000	0.017707
3298.000000	0.017720
3297.000000	0.017723
3296.000000	0.017727
3295.000000	0.017739
3294.000000	0.017759
3293.000000	0.017775
3292.000000	0.017782
3291.000000	0.017783
3290.000000	0.017789
3289.000000	0.017809
3288.000000	0.017837
3287.000000	0.017857
3286.000000	0.017859
3285.000000	0.017844
3284.000000	0.017828
3283.000000	0.017825
3282.000000	0.017839
3281.000000	0.017860
3280.000000	0.017870
3279.000000	0.017852
3278.000000	0.017810
3277.000000	0.017762
3276.000000	0.017733
3275.000000	0.017731
3274.000000	0.017739
3273.000000	0.017731
3272.000000	0.017694
3271.000000	0.017638
3270.000000	0.017580
3269.000000	0.017533
3268.000000	0.017499
3267.000000	0.017473
3266.000000	0.017449
3265.000000	0.017417
3264.000000	0.017372
3263.000000	0.017318
3262.000000	0.017264
3261.000000	0.017215
3260.000000	0.017174
3259.000000	0.017136
3258.000000	0.017094
3257.000000	0.017042
3256.000000	0.016980
3255.000000	0.016919
3254.000000	0.016872
3253.000000	0.016845
3252.000000	0.016828
3251.000000	0.016806
3250.000000	0.016770
3249.000000	0.016720
3248.000000	0.016661
3247.000000	0.016599
3246.000000	0.016539
3245.000000	0.016485
3244.000000	0.016438
3243.000000	0.016390
3242.000000	0.016336
3241.000000	0.016271
3240.000000	0.016203
3239.000000	0.016153
3238.000000	0.016134
3237.000000	0.016140
3236.000000	0.016146
3235.000000	0.016130
3234.000000	0.016086
3233.000000	0.016030
3232.000000	0.015978
3231.000000	0.015935
3230.000000	0.015900
3229.000000	0.015868
3228.000000	0.015841
3227.000000	0.015828
3226.000000	0.015830
3225.000000	0.015840
3224.000000	0.015841
3223.000000	0.015824
3222.000000	0.015789
3221.000000	0.015744
3220.000000	0.015695
3219.000000	0.015646
3218.000000	0.015604
3217.000000	0.015568
3216.000000	0.015533
3215.000000	0.015491
3214.000000	0.015441
3213.000000	0.015389
3212.000000	0.015340
3211.000000	0.015299
3210.000000	0.015262
3209.000000	0.015227
3208.000000	0.015191
3207.000000	0.015155
3206.000000	0.015121
3205.000000	0.015089
3204.000000	0.015062
3203.000000	0.015041
3202.000000	0.015026
3201.000000	0.015002
3200.000000	0.014951
3199.000000	0.014869
3198.000000	0.014782
3197.000000	0.014720
3196.000000	0.014693
3195.000000	0.014678
3194.000000	0.014649
3193.000000	0.014604
3192.000000	0.014558
3191.000000	0.014526
3190.000000	0.014506
3189.000000	0.014486
3188.000000	0.014450
3187.000000	0.014393
3186.000000	0.014323
3185.000000	0.014254
3184.000000	0.014199
3183.000000	0.014162
3182.000000	0.014138
3181.000000	0.014113
3180.000000	0.014076
3179.000000	0.014019
3178.000000	0.013949
3177.000000	0.013877
3176.000000	0.013811
3175.000000	0.013749
3174.000000	0.013689
3173.000000	0.013628
3172.000000	0.013565
3171.000000	0.013500
3170.000000	0.013437
3169.000000	0.013381
3168.000000	0.013336
3167.000000	0.013302
3166.000000	0.013274
3165.000000	0.013247
3164.000000	0.013216
3163.000000	0.013176
3162.000000	0.013125
3161.000000	0.013066
3160.000000	0.013009
3159.000000	0.012961
3158.000000	0.012923
3157.000000	0.012889
3156.000000	0.012853
3155.000000	0.012809
3154.000000	0.012754
3153.000000	0.012692
3152.000000	0.012629
3151.000000	0.012570
3150.000000	0.012523
3149.000000	0.012489
3148.000000	0.012468
3147.000000	0.012452
3146.000000	0.012433
3145.000000	0.012406
3144.000000	0.012373
3143.000000	0.012337
3142.000000	0.012296
3141.000000	0.012248
3140.000000	0.012191
3139.000000	0.012133
3138.000000	0.012082
3137.000000	0.012040
3136.000000	0.012002
3135.000000	0.011963
3134.000000	0.011923
3133.000000	0.011888
3132.000000	0.011865
3131.000000	0.011853
3130.000000	0.011844
3129.000000	0.011826
3128.000000	0.011797
3127.000000	0.011763
3126.000000	0.011732
3125.000000	0.011710
3124.000000	0.011695
3123.000000	0.011681
3122.000000	0.011665
3121.000000	0.011648
3120.000000	0.011633
3119.000000	0.011628
3118.000000	0.011632
3117.000000	0.011637
3116.000000	0.011633
3115.000000	0.011616
3114.000000	0.011593
3113.000000	0.011571
3112.000000	0.011558
3111.000000	0.011555
3110.000000	0.011557
3109.000000	0.011558
3108.000000	0.011558
3107.000000	0.011561
3106.000000	0.011569
3105.000000	0.011571
3104.000000	0.011559
3103.000000	0.011536
3102.000000	0.011520
3101.000000	0.011525
3100.000000	0.011546
3099.000000	0.011572
3098.000000	0.011595
3097.000000	0.011616
3096.000000	0.011633
3095.000000	0.011643
3094.000000	0.011650
3093.000000	0.011659
3092.000000	0.011668
3091.000000	0.011669
3090.000000	0.011653
3089.000000	0.011628
3088.000000	0.011605
3087.000000	0.011594
3086.000000	0.011600
3085.000000	0.011622
3084.000000	0.011656
3083.000000	0.011688
3082.000000	0.011707
3081.000000	0.011711
3080.000000	0.011706
3079.000000	0.011699
3078.000000	0.011690
3077.000000	0.011678
3076.000000	0.011670
3075.000000	0.011676
3074.000000	0.011698
3073.000000	0.011729
3072.000000	0.011756
3071.000000	0.011771
3070.000000	0.011767
3069.000000	0.011743
3068.000000	0.011709
3067.000000	0.011677
3066.000000	0.011653
3065.000000	0.011636
3064.000000	0.011619
3063.000000	0.011600
3062.000000	0.011581
3061.000000	0.011558
3060.000000	0.011526
3059.000000	0.011484
3058.000000	0.011436
3057.000000	0.011387
3056.000000	0.011337
3055.000000	0.011282
3054.000000	0.011226
3053.000000	0.011172
3052.000000	0.011123
3051.000000	0.011077
3050.000000	0.011030
3049.000000	0.010979
3048.000000	0.010928
3047.000000	0.010881
3046.000000	0.010838
3045.000000	0.010794
3044.000000	0.010742
3043.000000	0.010684
3042.000000	0.010637
3041.000000	0.010614
3040.000000	0.010611
3039.000000	0.010608
3038.000000	0.010587
3037.000000	0.010543
3036.000000	0.010483
3035.000000	0.010419
3034.000000	0.010362
3033.000000	0.010313
3032.000000	0.010270
3031.000000	0.010229
3030.000000	0.010190
3029.000000	0.010156
3028.000000	0.010124
3027.000000	0.010086
3026.000000	0.010038
3025.000000	0.009984
3024.000000	0.009936
3023.000000	0.009903
3022.000000	0.009882
3021.000000	0.009861
3020.000000	0.009826
3019.000000	0.009775
3018.000000	0.009718
3017.000000	0.009670
3016.000000	0.009643
3015.000000	0.009633
3014.000000	0.009630
3013.000000	0.009622
3012.000000	0.009605
3011.000000	0.009578
3010.000000	0.009544
3009.000000	0.009511
3008.000000	0.009488
3007.000000	0.009475
3006.000000	0.009463
3005.000000	0.009445
3004.000000	0.009421
3003.000000	0.009401
3002.000000	0.009386
3001.000000	0.009373
3000.000000	0.009356
2999.000000	0.009344
2998.000000	0.009344
2997.000000	0.009360
2996.000000	0.009383
2995.000000	0.009403
2994.000000	0.009418
2993.000000	0.009432
2992.000000	0.009452
2991.000000	0.009481
2990.000000	0.009524
2989.000000	0.009584
2988.000000	0.009659
2987.000000	0.009743
2986.000000	0.009824
2985.000000	0.009890
2984.000000	0.009937
2983.000000	0.009975
2982.000000	0.010022
2981.000000	0.010089
2980.000000	0.010170
2979.000000	0.010247
2978.000000	0.010313
2977.000000	0.010373
2976.000000	0.010438
2975.000000	0.010508
2974.000000	0.010574
2973.000000	0.010630
2972.000000	0.010678
2971.000000	0.010723
2970.000000	0.010763
2969.000000	0.010793
2968.000000	0.010815
2967.000000	0.010838
2966.000000	0.010872
2965.000000	0.010912
2964.000000	0.010947
2963.000000	0.010964
2962.000000	0.010961
2961.000000	0.010945
2960.000000	0.010925
2959.000000	0.010910
2958.000000	0.010908
2957.000000	0.010913
2956.000000	0.010914
2955.000000	0.010901
2954.000000	0.010874
2953.000000	0.010844
2952.000000	0.010821
2951.000000	0.010804
2950.000000	0.010790
2949.000000	0.010771
2948.000000	0.010738
2947.000000	0.010680
2946.000000	0.010591
2945.000000	0.010477
2944.000000	0.010355
2943.000000	0.010252
2942.000000	0.010185
2941.000000	0.010150
2940.000000	0.010120
2939.000000	0.010066
2938.000000	0.009984
2937.000000	0.009889
2936.000000	0.009799
2935.000000	0.009716
2934.000000	0.009632
2933.000000	0.009539
2932.000000	0.009441
2931.000000	0.009346
2930.000000	0.009260
2929.000000	0.009190
2928.000000	0.009144
2927.000000	0.009127
2926.000000	0.009150
2925.000000	0.009227
2924.000000	0.009371
2923.000000	0.009581
2922.000000	0.009839
2921.000000	0.010129
2920.000000	0.010437
2919.000000	0.010749
2918.000000	0.011047
2917.000000	0.011305
2916.000000	0.011502
2915.000000	0.011629
2914.000000	0.011693
2913.000000	0.011711
2912.000000	0.011703
2911.000000	0.011681
2910.000000	0.011652
2909.000000	0.011619
2908.000000	0.011584
2907.000000	0.011547
2906.000000	0.011510
2905.000000	0.011478
2904.000000	0.011464
2903.000000	0.011473
2902.000000	0.011498
2901.000000	0.011518
2900.000000	0.011515
2899.000000	0.011485
2898.000000	0.011437
2897.000000	0.011384
2896.000000	0.011341
2895.000000	0.011315
2894.000000	0.011305
2893.000000	0.011304
2892.000000	0.011302
2891.000000	0.011296
2890.000000	0.011289
2889.000000	0.011285
2888.000000	0.011282
2887.000000	0.011275
2886.000000	0.011257
2885.000000	0.011224
2884.000000	0.011177
2883.000000	0.011118
2882.000000	0.011058
2881.000000	0.011005
2880.000000	0.010967
2879.000000	0.010940
2878.000000	0.010916
2877.000000	0.010885
2876.000000	0.010847
2875.000000	0.010807
2874.000000	0.010773
2873.000000	0.010748
2872.000000	0.010733
2871.000000	0.010719
2870.000000	0.010694
2869.000000	0.010643
2868.000000	0.010552
2867.000000	0.010419
2866.000000	0.010255
2865.000000	0.010070
2864.000000	0.009872
2863.000000	0.009661
2862.000000	0.009444
2861.000000	0.009236
2860.000000	0.009058
2859.000000	0.008925
2858.000000	0.008837
2857.000000	0.008794
2856.000000	0.008803
2855.000000	0.008888
2854.000000	0.009065
2853.000000	0.009330
2852.000000	0.009645
2851.000000	0.009958
2850.000000	0.010220
2849.000000	0.010402
2848.000000	0.010500
2847.000000	0.010535
2846.000000	0.010532
2845.000000	0.010512
2844.000000	0.010476
2843.000000	0.010422
2842.000000	0.010349
2841.000000	0.010268
2840.000000	0.010184
2839.000000	0.010098
2838.000000	0.010006
2837.000000	0.009911
2836.000000	0.009820
2835.000000	0.009744
2834.000000	0.009682
2833.000000	0.009629
2832.000000	0.009578
2831.000000	0.009525
2830.000000	0.009468
2829.000000	0.009408
2828.000000	0.009349
2827.000000	0.009295
2826.000000	0.009242
2825.000000	0.009183
2824.000000	0.009117
2823.000000	0.009052
2822.000000	0.008996
2821.000000	0.008947
2820.000000	0.008897
2819.000000	0.008845
2818.000000	0.008798
2817.000000	0.008766
2816.000000	0.008745
2815.000000	0.008721
2814.000000	0.008685
2813.000000	0.008634
2812.000000	0.008577
2811.000000	0.008526
2810.000000	0.008488
2809.000000	0.008463
2808.000000	0.008444
2807.000000	0.008421
2806.000000	0.008395
2805.000000	0.008370
2804.000000	0.008352
2803.000000	0.008335
2802.000000	0.008313
2801.000000	0.008284
2800.000000	0.008250
2799.000000	0.008218
2798.000000	0.008195
2797.000000	0.008179
2796.000000	0.008166
2795.000000	0.008146
2794.000000	0.008110
2793.000000	0.008062
2792.000000	0.008014
2791.000000	0.007983
2790.000000	0.007976
2789.000000	0.007985
2788.000000	0.007994
2787.000000	0.007989
2786.000000	0.007966
2785.000000	0.007930
2784.000000	0.007892
2783.000000	0.007858
2782.000000	0.007833
2781.000000	0.007814
2780.000000	0.007797
2779.000000	0.007784
2778.000000	0.007776
2777.000000	0.007770
2776.000000	0.007757
2775.000000	0.007737
2774.000000	0.007715
2773.000000	0.007698
2772.000000	0.007683
2771.000000	0.007662
2770.000000	0.007636
2769.000000	0.007613
2768.000000	0.007599
2767.000000	0.007590
2766.000000	0.007584
2765.000000	0.007577
2764.000000	0.007570
2763.000000	0.007562
2762.000000	0.007554
2761.000000	0.007545
2760.000000	0.007533
2759.000000	0.007515
2758.000000	0.007497
2757.000000	0.007481
2756.000000	0.007468
2755.000000	0.007449
2754.000000	0.007424
2753.000000	0.007395
2752.000000	0.007367
2751.000000	0.007341
2750.000000	0.007318
2749.000000	0.007302
2748.000000	0.007296
2747.000000	0.007300
2746.000000	0.007308
2745.000000	0.007315
2744.000000	0.007316
2743.000000	0.007307
2742.000000	0.007291
2741.000000	0.007273
2740.000000	0.007261
2739.000000	0.007253
2738.000000	0.007245
2737.000000	0.007232
2736.000000	0.007214
2735.000000	0.007192
2734.000000	0.007170
2733.000000	0.007154
2732.000000	0.007145
2731.000000	0.007141
2730.000000	0.007137
2729.000000	0.007128
2728.000000	0.007115
2727.000000	0.007101
2726.000000	0.007085
2725.000000	0.007063
2724.000000	0.007033
2723.000000	0.007000
2722.000000	0.006976
2721.000000	0.006965
2720.000000	0.006963
2719.000000	0.006958
2718.000000	0.006944
2717.000000	0.006926
2716.000000	0.006909
2715.000000	0.006898
2714.000000	0.006890
2713.000000	0.006882
2712.000000	0.006872
2711.000000	0.006859
2710.000000	0.006843
2709.000000	0.006826
2708.000000	0.006810
2707.000000	0.006800
2706.000000	0.006793
2705.000000	0.006785
2704.000000	0.006773
2703.000000	0.006761
2702.000000	0.006753
2701.000000	0.006749
2700.000000	0.006743
2699.000000	0.006730
2698.000000	0.006711
2697.000000	0.006691
2696.000000	0.006677
2695.000000	0.006674
2694.000000	0.006683
2693.000000	0.006697
2692.000000	0.006703
2691.000000	0.006696
2690.000000	0.006682
2689.000000	0.006672
2688.000000	0.006671
2687.000000	0.006674
2686.000000	0.006674
2685.000000	0.006666
2684.000000	0.006652
2683.000000	0.006637
2682.000000	0.006629
2681.000000	0.006628
2680.000000	0.006630
2679.000000	0.006625
2678.000000	0.006608
2677.000000	0.006590
2676.000000	0.006580
2675.000000	0.006581
2674.000000	0.006582
2673.000000	0.006576
2672.000000	0.006562
2671.000000	0.006546
2670.000000	0.006530
2669.000000	0.006513
2668.000000	0.006497
2667.000000	0.006490
2666.000000	0.006497
2665.000000	0.006515
2664.000000	0.006529
2663.000000	0.006527
2662.000000	0.006510
2661.000000	0.006492
2660.000000	0.006484
2659.000000	0.006483
2658.000000	0.006481
2657.000000	0.006471
2656.000000	0.006456
2655.000000	0.006437
2654.000000	0.006418
2653.000000	0.006399
2652.000000	0.006381
2651.000000	0.006362
2650.000000	0.006337
2649.000000	0.006305
2648.000000	0.006270
2647.000000	0.006238
2646.000000	0.006213
2645.000000	0.006191
2644.000000	0.006162
2643.000000	0.006123
2642.000000	0.006081
2641.000000	0.006049
2640.000000	0.006029
2639.000000	0.006017
2638.000000	0.006007
2637.000000	0.005998
2636.000000	0.005990
2635.000000	0.005983
2634.000000	0.005975
2633.000000	0.005962
2632.000000	0.005944
2631.000000	0.005919
2630.000000	0.005889
2629.000000	0.005854
2628.000000	0.005819
2627.000000	0.005781
2626.000000	0.005742
2625.000000	0.005710
2624.000000	0.005699
2623.000000	0.005719
2622.000000	0.005758
2621.000000	0.005791
2620.000000	0.005791
2619.000000	0.005754
2618.000000	0.005701
2617.000000	0.005655
2616.000000	0.005630
2615.000000	0.005623
2614.000000	0.005622
2613.000000	0.005619
2612.000000	0.005606
2611.000000	0.005583
2610.000000	0.005558
2609.000000	0.005544
2608.000000	0.005546
2607.000000	0.005562
2606.000000	0.005589
2605.000000	0.005619
2604.000000	0.005636
2603.000000	0.005621
2602.000000	0.005571
2601.000000	0.005509
2600.000000	0.005464
2599.000000	0.005445
2598.000000	0.005441
2597.000000	0.005433
2596.000000	0.005418
2595.000000	0.005399
2594.000000	0.005378
2593.000000	0.005351
2592.000000	0.005321
2591.000000	0.005294
2590.000000	0.005281
2589.000000	0.005287
2588.000000	0.005303
2587.000000	0.005313
2586.000000	0.005305
2585.000000	0.005283
2584.000000	0.005258
2583.000000	0.005249
2582.000000	0.005260
2581.000000	0.005282
2580.000000	0.005297
2579.000000	0.005289
2578.000000	0.005257
2577.000000	0.005214
2576.000000	0.005168
2575.000000	0.005128
2574.000000	0.005102
2573.000000	0.005106
2572.000000	0.005145
2571.000000	0.005204
2570.000000	0.005252
2569.000000	0.005270
2568.000000	0.005260
2567.000000	0.005240
2566.000000	0.005222
2565.000000	0.005202
2564.000000	0.005170
2563.000000	0.005132
2562.000000	0.005099
2561.000000	0.005078
2560.000000	0.005060
2559.000000	0.005031
2558.000000	0.004993
2557.000000	0.004963
2556.000000	0.004964
2555.000000	0.005003
2554.000000	0.005065
2553.000000	0.005124
2552.000000	0.005153
2551.000000	0.005139
2550.000000	0.005087
2549.000000	0.005016
2548.000000	0.004946
2547.000000	0.004888
2546.000000	0.004848
2545.000000	0.004828
2544.000000	0.004830
2543.000000	0.004844
2542.000000	0.004855
2541.000000	0.004851
2540.000000	0.004836
2539.000000	0.004827
2538.000000	0.004840
2537.000000	0.004869
2536.000000	0.004897
2535.000000	0.004910
2534.000000	0.004906
2533.000000	0.004893
2532.000000	0.004878
2531.000000	0.004860
2530.000000	0.004834
2529.000000	0.004803
2528.000000	0.004776
2527.000000	0.004767
2526.000000	0.004783
2525.000000	0.004813
2524.000000	0.004840
2523.000000	0.004851
2522.000000	0.004849
2521.000000	0.004834
2520.000000	0.004807
2519.000000	0.004778
2518.000000	0.004766
2517.000000	0.004783
2516.000000	0.004816
2515.000000	0.004843
2514.000000	0.004850
2513.000000	0.004841
2512.000000	0.004823
2511.000000	0.004795
2510.000000	0.004760
2509.000000	0.004733
2508.000000	0.004727
2507.000000	0.004749
2506.000000	0.004787
2505.000000	0.004824
2504.000000	0.004844
2503.000000	0.004834
2502.000000	0.004791
2501.000000	0.004729
2500.000000	0.004676
2499.000000	0.004659
2498.000000	0.004681
2497.000000	0.004717
2496.000000	0.004735
2495.000000	0.004722
2494.000000	0.004692
2493.000000	0.004666
2492.000000	0.004658
2491.000000	0.004673
2490.000000	0.004709
2489.000000	0.004749
2488.000000	0.004762
2487.000000	0.004733
2486.000000	0.004684
2485.000000	0.004657
2484.000000	0.004668
2483.000000	0.004697
2482.000000	0.004714
2481.000000	0.004710
2480.000000	0.004690
2479.000000	0.004660
2478.000000	0.004631
2477.000000	0.004615
2476.000000	0.004618
2475.000000	0.004629
2474.000000	0.004629
2473.000000	0.004613
2472.000000	0.004594
2471.000000	0.004592
2470.000000	0.004613
2469.000000	0.004641
2468.000000	0.004654
2467.000000	0.004641
2466.000000	0.004611
2465.000000	0.004580
2464.000000	0.004558
2463.000000	0.004546
2462.000000	0.004547
2461.000000	0.004567
2460.000000	0.004601
2459.000000	0.004629
2458.000000	0.004633
2457.000000	0.004620
2456.000000	0.004607
2455.000000	0.004605
2454.000000	0.004610
2453.000000	0.004613
2452.000000	0.004614
2451.000000	0.004615
2450.000000	0.004618
2449.000000	0.004621
2448.000000	0.004626
2447.000000	0.004636
2446.000000	0.004646
2445.000000	0.004646
2444.000000	0.004626
2443.000000	0.004590
2442.000000	0.004553
2441.000000	0.004534
2440.000000	0.004537
2439.000000	0.004552
2438.000000	0.004560
2437.000000	0.004545
2436.000000	0.004504
2435.000000	0.004443
2434.000000	0.004381
2433.000000	0.004338
2432.000000	0.004328
2431.000000	0.004346
2430.000000	0.004373
2429.000000	0.004394
2428.000000	0.004405
2427.000000	0.004418
2426.000000	0.004441
2425.000000	0.004468
2424.000000	0.004482
2423.000000	0.004477
2422.000000	0.004462
2421.000000	0.004455
2420.000000	0.004458
2419.000000	0.004465
2418.000000	0.004468
2417.000000	0.004462
2416.000000	0.004447
2415.000000	0.004424
2414.000000	0.004399
2413.000000	0.004376
2412.000000	0.004357
2411.000000	0.004343
2410.000000	0.004336
2409.000000	0.004336
2408.000000	0.004341
2407.000000	0.004350
2406.000000	0.004362
2405.000000	0.004377
2404.000000	0.004392
2403.000000	0.004403
2402.000000	0.004408
2401.000000	0.004401
2400.000000	0.004382
2399.000000	0.004361
2398.000000	0.004349
2397.000000	0.004352
2396.000000	0.004362
2395.000000	0.004372
2394.000000	0.004388
2393.000000	0.004416
2392.000000	0.004452
2391.000000	0.004477
2390.000000	0.004481
2389.000000	0.004472
2388.000000	0.004468
2387.000000	0.004476
2386.000000	0.004490
2385.000000	0.004492
2384.000000	0.004469
2383.000000	0.004425
2382.000000	0.004382
2381.000000	0.004362
2380.000000	0.004370
2379.000000	0.004397
2378.000000	0.004432
2377.000000	0.004458
2376.000000	0.004460
2375.000000	0.004432
2374.000000	0.004394
2373.000000	0.004366
2372.000000	0.004351
2371.000000	0.004340
2370.000000	0.004339
2369.000000	0.004367
2368.000000	0.004420
2367.000000	0.004470
2366.000000	0.004502
2365.000000	0.004526
2364.000000	0.004556
2363.000000	0.004579
2362.000000	0.004577
2361.000000	0.004552
2360.000000	0.004520
2359.000000	0.004488
2358.000000	0.004454
2357.000000	0.004436
2356.000000	0.004453
2355.000000	0.004509
2354.000000	0.004567
2353.000000	0.004594
2352.000000	0.004591
2351.000000	0.004584
2350.000000	0.004588
2349.000000	0.004600
2348.000000	0.004614
2347.000000	0.004623
2346.000000	0.004628
2345.000000	0.004637
2344.000000	0.004654
2343.000000	0.004673
2342.000000	0.004682
2341.000000	0.004678
2340.000000	0.004671
2339.000000	0.004664
2338.000000	0.004651
2337.000000	0.004627
2336.000000	0.004611
2335.000000	0.004626
2334.000000	0.004673
2333.000000	0.004725
2332.000000	0.004751
2331.000000	0.004741
2330.000000	0.004712
2329.000000	0.004692
2328.000000	0.004709
2327.000000	0.004768
2326.000000	0.004850
2325.000000	0.004919
2324.000000	0.004936
2323.000000	0.004887
2322.000000	0.004801
2321.000000	0.004723
2320.000000	0.004682
2319.000000	0.004670
2318.000000	0.004662
2317.000000	0.004644
2316.000000	0.004626
2315.000000	0.004625
2314.000000	0.004647
2313.000000	0.004678
2312.000000	0.004699
2311.000000	0.004699
2310.000000	0.004677
2309.000000	0.004638
2308.000000	0.004584
2307.000000	0.004515
2306.000000	0.004447
2305.000000	0.004402
2304.000000	0.004394
2303.000000	0.004415
2302.000000	0.004447
2301.000000	0.004478
2300.000000	0.004508
2299.000000	0.004537
2298.000000	0.004557
2297.000000	0.004557
2296.000000	0.004539
2295.000000	0.004514
2294.000000	0.004495
2293.000000	0.004486
2292.000000	0.004482
2291.000000	0.004476
2290.000000	0.004467
2289.000000	0.004461
2288.000000	0.004466
2287.000000	0.004484
2286.000000	0.004511
2285.000000	0.004530
2284.000000	0.004530
2283.000000	0.004515
2282.000000	0.004499
2281.000000	0.004493
2280.000000	0.004487
2279.000000	0.004466
2278.000000	0.004431
2277.000000	0.004399
2276.000000	0.004384
2275.000000	0.004380
2274.000000	0.004379
2273.000000	0.004378
2272.000000	0.004380
2271.000000	0.004382
2270.000000	0.004371
2269.000000	0.004343
2268.000000	0.004315
2267.000000	0.004321
2266.000000	0.004374
2265.000000	0.004443
2264.000000	0.004474
2263.000000	0.004440
2262.000000	0.004364
2261.000000	0.004288
2260.000000	0.004229
2259.000000	0.004184
2258.000000	0.004146
2257.000000	0.004112
2256.000000	0.004082
2255.000000	0.004055
2254.000000	0.004029
2253.000000	0.004000
2252.000000	0.003963
2251.000000	0.003937
2250.000000	0.003958
2249.000000	0.004037
2248.000000	0.004143
2247.000000	0.004233
2246.000000	0.004304
2245.000000	0.004384
2244.000000	0.004462
2243.000000	0.004493
2242.000000	0.004447
2241.000000	0.004361
2240.000000	0.004302
2239.000000	0.004313
2238.000000	0.004390
2237.000000	0.004490
2236.000000	0.004553
2235.000000	0.004547
2234.000000	0.004497
2233.000000	0.004459
2232.000000	0.004458
2231.000000	0.004458
2230.000000	0.004416
2229.000000	0.004338
2228.000000	0.004269
2227.000000	0.004234
2226.000000	0.004205
2225.000000	0.004138
2224.000000	0.004021
2223.000000	0.003898
2222.000000	0.003837
2221.000000	0.003876
2220.000000	0.003970
2219.000000	0.004034
2218.000000	0.004023
2217.000000	0.003967
2216.000000	0.003930
2215.000000	0.003945
2214.000000	0.004005
2213.000000	0.004080
2212.000000	0.004134
2211.000000	0.004139
2210.000000	0.004095
2209.000000	0.004028
2208.000000	0.003967
2207.000000	0.003928
2206.000000	0.003920
2205.000000	0.003946
2204.000000	0.004002
2203.000000	0.004074
2202.000000	0.004143
2201.000000	0.004177
2200.000000	0.004130
2199.000000	0.003986
2198.000000	0.003797
2197.000000	0.003655
2196.000000	0.003617
2195.000000	0.003661
2194.000000	0.003741
2193.000000	0.003835
2192.000000	0.003927
2191.000000	0.003990
2190.000000	0.004003
2189.000000	0.003972
2188.000000	0.003912
2187.000000	0.003813
2186.000000	0.003664
2185.000000	0.003499
2184.000000	0.003382
2183.000000	0.003362
2182.000000	0.003443
2181.000000	0.003593
2180.000000	0.003760
2179.000000	0.003901
2178.000000	0.004004
2177.000000	0.004079
2176.000000	0.004123
2175.000000	0.004108
2174.000000	0.004029
2173.000000	0.003923
2172.000000	0.003836
2171.000000	0.003772
2170.000000	0.003699
2169.000000	0.003600
2168.000000	0.003503
2167.000000	0.003455
2166.000000	0.003497
2165.000000	0.003636
2164.000000	0.003810
2163.000000	0.003906
2162.000000	0.003804
2161.000000	0.003472
2160.000000	0.003024
2159.000000	0.002666
2158.000000	0.002549
2157.000000	0.002629
2156.000000	0.002737
2155.000000	0.002759
2154.000000	0.002722
2153.000000	0.002726
2152.000000	0.002807
2151.000000	0.002916
2150.000000	0.002984
2149.000000	0.003009
2148.000000	0.003057
2147.000000	0.003201
2146.000000	0.003444
2145.000000	0.003696
2144.000000	0.003830
2143.000000	0.003782
2142.000000	0.003607
2141.000000	0.003428
2140.000000	0.003335
2139.000000	0.003338
2138.000000	0.003399
2137.000000	0.003487
2136.000000	0.003576
2135.000000	0.003629
2134.000000	0.003617
2133.000000	0.003552
2132.000000	0.003494
2131.000000	0.003491
2130.000000	0.003532
2129.000000	0.003554
2128.000000	0.003519
2127.000000	0.003461
2126.000000	0.003454
2125.000000	0.003532
2124.000000	0.003650
2123.000000	0.003742
2122.000000	0.003777
2121.000000	0.003776
2120.000000	0.003776
2119.000000	0.003804
2118.000000	0.003873
2117.000000	0.003966
2116.000000	0.004027
2115.000000	0.004009
2114.000000	0.003925
2113.000000	0.003855
2112.000000	0.003872
2111.000000	0.003972
2110.000000	0.004080
2109.000000	0.004123
2108.000000	0.004092
2107.000000	0.004036
2106.000000	0.004004
2105.000000	0.003997
2104.000000	0.003977
2103.000000	0.003927
2102.000000	0.003871
2101.000000	0.003842
2100.000000	0.003839
2099.000000	0.003840
2098.000000	0.003842
2097.000000	0.003861
2096.000000	0.003901
2095.000000	0.003938
2094.000000	0.003945
2093.000000	0.003921
2092.000000	0.003890
2091.000000	0.003885
2090.000000	0.003922
2089.000000	0.003978
2088.000000	0.004006
2087.000000	0.003990
2086.000000	0.003978
2085.000000	0.004028
2084.000000	0.004124
2083.000000	0.004180
2082.000000	0.004131
2081.000000	0.004013
2080.000000	0.003918
2079.000000	0.003902
2078.000000	0.003935
2077.000000	0.003945
2076.000000	0.003900
2075.000000	0.003823
2074.000000	0.003760
2073.000000	0.003736
2072.000000	0.003752
2071.000000	0.003806
2070.000000	0.003893
2069.000000	0.003986
2068.000000	0.004034
2067.000000	0.004012
2066.000000	0.003955
2065.000000	0.003910
2064.000000	0.003881
2063.000000	0.003833
2062.000000	0.003747
2061.000000	0.003651
2060.000000	0.003593
2059.000000	0.003601
2058.000000	0.003661
2057.000000	0.003716
2056.000000	0.003712
2055.000000	0.003658
2054.000000	0.003625
2053.000000	0.003671
2052.000000	0.003770
2051.000000	0.003855
2050.000000	0.003894
2049.000000	0.003891
2048.000000	0.003829
2047.000000	0.003679
2046.000000	0.003457
2045.000000	0.003235
2044.000000	0.003077
2043.000000	0.003020
2042.000000	0.003105
2041.000000	0.003339
2040.000000	0.003615
2039.000000	0.003756
2038.000000	0.003684
2037.000000	0.003466
2036.000000	0.003199
2035.000000	0.002897
2034.000000	0.002570
2033.000000	0.002329
2032.000000	0.002300
2031.000000	0.002482
2030.000000	0.002754
2029.000000	0.003007
2028.000000	0.003204
2027.000000	0.003341
2026.000000	0.003407
2025.000000	0.003404
2024.000000	0.003374
2023.000000	0.003370
2022.000000	0.003409
2021.000000	0.003462
2020.000000	0.003490
2019.000000	0.003476
2018.000000	0.003426
2017.000000	0.003340
2016.000000	0.003215
2015.000000	0.003074
2014.000000	0.002962
2013.000000	0.002886
2012.000000	0.002796
2011.000000	0.002641
2010.000000	0.002440
2009.000000	0.002262
2008.000000	0.002142
2007.000000	0.002067
2006.000000	0.002039
2005.000000	0.002084
2004.000000	0.002210
2003.000000	0.002390
2002.000000	0.002583
2001.000000	0.002748
2000.000000	0.002846
1999.000000	0.002878
1998.000000	0.002886
1997.000000	0.002912
1996.000000	0.002945
1995.000000	0.002943
1994.000000	0.002903
1993.000000	0.002870
1992.000000	0.002884
1991.000000	0.002924
1990.000000	0.002935
1989.000000	0.002885
1988.000000	0.002802
1987.000000	0.002762
1986.000000	0.002840
1985.000000	0.003034
1984.000000	0.003270
1983.000000	0.003473
1982.000000	0.003620
1981.000000	0.003694
1980.000000	0.003642
1979.000000	0.003437
1978.000000	0.003159
1977.000000	0.002946
1976.000000	0.002845
1975.000000	0.002776
1974.000000	0.002662
1973.000000	0.002512
1972.000000	0.002396
1971.000000	0.002375
1970.000000	0.002459
1969.000000	0.002593
1968.000000	0.002695
1967.000000	0.002758
1966.000000	0.002867
1965.000000	0.003078
1964.000000	0.003308
1963.000000	0.003401
1962.000000	0.003283
1961.000000	0.003023
1960.000000	0.002768
1959.000000	0.002644
1958.000000	0.002690
1957.000000	0.002855
1956.000000	0.003037
1955.000000	0.003167
1954.000000	0.003233
1953.000000	0.003234
1952.000000	0.003157
1951.000000	0.003027
1950.000000	0.002928
1949.000000	0.002921
1948.000000	0.002966
1947.000000	0.002988
1946.000000	0.002985
1945.000000	0.003021
1944.000000	0.003105
1943.000000	0.003157
1942.000000	0.003098
1941.000000	0.002957
1940.000000	0.002834
1939.000000	0.002808
1938.000000	0.002892
1937.000000	0.003026
1936.000000	0.003118
1935.000000	0.003118
1934.000000	0.003067
1933.000000	0.003036
1932.000000	0.003038
1931.000000	0.003032
1930.000000	0.002997
1929.000000	0.002963
1928.000000	0.002965
1927.000000	0.003000
1926.000000	0.003038
1925.000000	0.003062
1924.000000	0.003071
1923.000000	0.003068
1922.000000	0.003074
1921.000000	0.003107
1920.000000	0.003158
1919.000000	0.003194
1918.000000	0.003190
1917.000000	0.003157
1916.000000	0.003123
1915.000000	0.003093
1914.000000	0.003063
1913.000000	0.003040
1912.000000	0.003046
1911.000000	0.003095
1910.000000	0.003182
1909.000000	0.003264
1908.000000	0.003296
1907.000000	0.003262
1906.000000	0.003189
1905.000000	0.003128
1904.000000	0.003113
1903.000000	0.003147
1902.000000	0.003202
1901.000000	0.003235
1900.000000	0.003214
1899.000000	0.003152
1898.000000	0.003108
1897.000000	0.003127
1896.000000	0.003194
1895.000000	0.003251
1894.000000	0.003258
1893.000000	0.003219
1892.000000	0.003161
1891.000000	0.003103
1890.000000	0.003060
1889.000000	0.003047
1888.000000	0.003068
1887.000000	0.003112
1886.000000	0.003162
1885.000000	0.003195
1884.000000	0.003182
1883.000000	0.003115
1882.000000	0.003024
1881.000000	0.002952
1880.000000	0.002921
1879.000000	0.002917
1878.000000	0.002920
1877.000000	0.002917
1876.000000	0.002905
1875.000000	0.002881
1874.000000	0.002842
1873.000000	0.002794
1872.000000	0.002748
1871.000000	0.002723
1870.000000	0.002737
1869.000000	0.002781
1868.000000	0.002823
1867.000000	0.002851
1866.000000	0.002878
1865.000000	0.002910
1864.000000	0.002934
1863.000000	0.002937
1862.000000	0.002937
1861.000000	0.002952
1860.000000	0.002978
1859.000000	0.002992
1858.000000	0.002981
1857.000000	0.002952
1856.000000	0.002917
1855.000000	0.002887
1854.000000	0.002883
1853.000000	0.002912
1852.000000	0.002946
1851.000000	0.002958
1850.000000	0.002936
1849.000000	0.002881
1848.000000	0.002801
1847.000000	0.002726
1846.000000	0.002709
1845.000000	0.002775
1844.000000	0.002880
1843.000000	0.002948
1842.000000	0.002962
1841.000000	0.002968
1840.000000	0.002987
1839.000000	0.002993
1838.000000	0.002966
1837.000000	0.002928
1836.000000	0.002901
1835.000000	0.002871
1834.000000	0.002815
1833.000000	0.002734
1832.000000	0.002646
1831.000000	0.002582
1830.000000	0.002555
1829.000000	0.002561
1828.000000	0.002588
1827.000000	0.002630
1826.000000	0.002685
1825.000000	0.002740
1824.000000	0.002774
1823.000000	0.002784
1822.000000	0.002788
1821.000000	0.002796
1820.000000	0.002805
1819.000000	0.002806
1818.000000	0.002802
1817.000000	0.002800
1816.000000	0.002795
1815.000000	0.002782
1814.000000	0.002768
1813.000000	0.002756
1812.000000	0.002747
1811.000000	0.002750
1810.000000	0.002780
1809.000000	0.002838
1808.000000	0.002893
1807.000000	0.002910
1806.000000	0.002890
1805.000000	0.002860
1804.000000	0.002837
1803.000000	0.002812
1802.000000	0.002777
1801.000000	0.002733
1800.000000	0.002704
1799.000000	0.002713
1798.000000	0.002751
1797.000000	0.002779
1796.000000	0.002758
1795.000000	0.002690
1794.000000	0.002621
1793.000000	0.002598
1792.000000	0.002622
1791.000000	0.002659
1790.000000	0.002688
1789.000000	0.002725
1788.000000	0.002780
1787.000000	0.002840
1786.000000	0.002883
1785.000000	0.002890
1784.000000	0.002860
1783.000000	0.002817
1782.000000	0.002808
1781.000000	0.002835
1780.000000	0.002872
1779.000000	0.002889
1778.000000	0.002892
1777.000000	0.002897
1776.000000	0.002902
1775.000000	0.002903
1774.000000	0.002898
1773.000000	0.002885
1772.000000	0.002866
1771.000000	0.002869
1770.000000	0.002937
1769.000000	0.003072
1768.000000	0.003189
1767.000000	0.003195
1766.000000	0.003097
1765.000000	0.002970
1764.000000	0.002865
1763.000000	0.002768
1762.000000	0.002664
1761.000000	0.002563
1760.000000	0.002480
1759.000000	0.002411
1758.000000	0.002361
1757.000000	0.002321
1756.000000	0.002261
1755.000000	0.002193
1754.000000	0.002170
1753.000000	0.002217
1752.000000	0.002277
1751.000000	0.002273
1750.000000	0.002213
1749.000000	0.002196
1748.000000	0.002263
1747.000000	0.002374
1746.000000	0.002503
1745.000000	0.002663
1744.000000	0.002860
1743.000000	0.003059
1742.000000	0.003260
1741.000000	0.003526
1740.000000	0.003875
1739.000000	0.004207
1738.000000	0.004455
1737.000000	0.004687
1736.000000	0.004973
1735.000000	0.005264
1734.000000	0.005464
1733.000000	0.005551
1732.000000	0.005550
1731.000000	0.005517
1730.000000	0.005507
1729.000000	0.005530
1728.000000	0.005566
1727.000000	0.005601
1726.000000	0.005640
1725.000000	0.005697
1724.000000	0.005767
1723.000000	0.005792
1722.000000	0.005735
1721.000000	0.005660
1720.000000	0.005676
1719.000000	0.005832
1718.000000	0.006064
1717.000000	0.006240
1716.000000	0.006301
1715.000000	0.006303
1714.000000	0.006320
1713.000000	0.006385
1712.000000	0.006470
1711.000000	0.006532
1710.000000	0.006560
1709.000000	0.006571
1708.000000	0.006593
1707.000000	0.006680
1706.000000	0.006862
1705.000000	0.007096
1704.000000	0.007311
1703.000000	0.007522
1702.000000	0.007798
1701.000000	0.008226
1700.000000	0.008805
1699.000000	0.009372
1698.000000	0.009901
1697.000000	0.010531
1696.000000	0.011230
1695.000000	0.011806
1694.000000	0.012179
1693.000000	0.012487
1692.000000	0.012893
1691.000000	0.013400
1690.000000	0.013923
1689.000000	0.014417
1688.000000	0.014891
1687.000000	0.015370
1686.000000	0.015856
1685.000000	0.016406
1684.000000	0.017034
1683.000000	0.017629
1682.000000	0.018213
1681.000000	0.018869
1680.000000	0.019550
1679.000000	0.020133
1678.000000	0.020629
1677.000000	0.021182
1676.000000	0.021883
1675.000000	0.022646
1674.000000	0.023318
1673.000000	0.023884
1672.000000	0.024442
1671.000000	0.025056
1670.000000	0.025748
1669.000000	0.026513
1668.000000	0.027275
1667.000000	0.027927
1666.000000	0.028460
1665.000000	0.028953
1664.000000	0.029467
1663.000000	0.029993
1662.000000	0.030526
1661.000000	0.031092
1660.000000	0.031686
1659.000000	0.032233
1658.000000	0.032659
1657.000000	0.033003
1656.000000	0.033384
1655.000000	0.033809
1654.000000	0.034150
1653.000000	0.034406
1652.000000	0.034732
1651.000000	0.034953
1650.000000	0.035054
1649.000000	0.035241
1648.000000	0.035507
1647.000000	0.035699
1646.000000	0.035816
1645.000000	0.035991
1644.000000	0.036207
1643.000000	0.036406
1642.000000	0.036574
1641.000000	0.036688
1640.000000	0.036747
1639.000000	0.036787
1638.000000	0.036819
1637.000000	0.036774
1636.000000	0.036570
1635.000000	0.036331
1634.000000	0.036256
1633.000000	0.036326
1632.000000	0.036428
1631.000000	0.036447
1630.000000	0.036302
1629.000000	0.036008
1628.000000	0.035662
1627.000000	0.035343
1626.000000	0.035059
1625.000000	0.034741
1624.000000	0.034309
1623.000000	0.033766
1622.000000	0.033235
1621.000000	0.032823
1620.000000	0.032525
1619.000000	0.032248
1618.000000	0.031822
1617.000000	0.031137
1616.000000	0.030323
1615.000000	0.029593
1614.000000	0.029007
1613.000000	0.028508
1612.000000	0.027993
1611.000000	0.027403
1610.000000	0.026780
1609.000000	0.026197
1608.000000	0.025671
1607.000000	0.025184
1606.000000	0.024730
1605.000000	0.024308
1604.000000	0.023910
1603.000000	0.023537
1602.000000	0.023201
1601.000000	0.022910
1600.000000	0.022657
1599.000000	0.022438
1598.000000	0.022257
1597.000000	0.022111
1596.000000	0.021997
1595.000000	0.021906
1594.000000	0.021829
1593.000000	0.021750
1592.000000	0.021659
1591.000000	0.021559
1590.000000	0.021456
1589.000000	0.021352
1588.000000	0.021248
1587.000000	0.021150
1586.000000	0.021069
1585.000000	0.021007
1584.000000	0.020965
1583.000000	0.020972
1582.000000	0.021036
1581.000000	0.021128
1580.000000	0.021232
1579.000000	0.021401
1578.000000	0.021666
1577.000000	0.021967
1576.000000	0.022200
1575.000000	0.022328
1574.000000	0.022400
1573.000000	0.022493
1572.000000	0.022639
1571.000000	0.022817
1570.000000	0.023047
1569.000000	0.023370
1568.000000	0.023756
1567.000000	0.024153
1566.000000	0.024543
1565.000000	0.024928
1564.000000	0.025287
1563.000000	0.025641
1562.000000	0.026000
1561.000000	0.026268
1560.000000	0.026368
1559.000000	0.026393
1558.000000	0.026562
1557.000000	0.027025
1556.000000	0.027588
1555.000000	0.028123
1554.000000	0.028572
1553.000000	0.028926
1552.000000	0.029232
1551.000000	0.029520
1550.000000	0.029757
1549.000000	0.029941
1548.000000	0.030115
1547.000000	0.030307
1546.000000	0.030489
1545.000000	0.030609
1544.000000	0.030652
1543.000000	0.030675
1542.000000	0.030738
1541.000000	0.030820
1540.000000	0.030835
1539.000000	0.030820
1538.000000	0.030837
1537.000000	0.030843
1536.000000	0.030857
1535.000000	0.030863
1534.000000	0.030796
1533.000000	0.030688
1532.000000	0.030666
1531.000000	0.030738
1530.000000	0.030799
1529.000000	0.030782
1528.000000	0.030684
1527.000000	0.030509
1526.000000	0.030260
1525.000000	0.029980
1524.000000	0.029751
1523.000000	0.029595
1522.000000	0.029435
1521.000000	0.029218
1520.000000	0.029014
1519.000000	0.028893
1518.000000	0.028858
1517.000000	0.028836
1516.000000	0.028755
1515.000000	0.028640
1514.000000	0.028516
1513.000000	0.028336
1512.000000	0.028044
1511.000000	0.027663
1510.000000	0.027295
1509.000000	0.027006
1508.000000	0.026734
1507.000000	0.026338
1506.000000	0.025891
1505.000000	0.025593
1504.000000	0.025330
1503.000000	0.025017
1502.000000	0.024636
1501.000000	0.024127
1500.000000	0.023477
1499.000000	0.022772
1498.000000	0.022084
1497.000000	0.021402
1496.000000	0.020724
1495.000000	0.020078
1494.000000	0.019497
1493.000000	0.018996
1492.000000	0.018561
1491.000000	0.018148
1490.000000	0.017738
1489.000000	0.017364
1488.000000	0.017078
1487.000000	0.016874
1486.000000	0.016710
1485.000000	0.016570
1484.000000	0.016462
1483.000000	0.016404
1482.000000	0.016398
1481.000000	0.016437
1480.000000	0.016509
1479.000000	0.016603
1478.000000	0.016705
1477.000000	0.016800
1476.000000	0.016883
1475.000000	0.016952
1474.000000	0.017013
1473.000000	0.017059
1472.000000	0.017090
1471.000000	0.017136
1470.000000	0.017221
1469.000000	0.017344
1468.000000	0.017482
1467.000000	0.017600
1466.000000	0.017702
1465.000000	0.017821
1464.000000	0.017984
1463.000000	0.018170
1462.000000	0.018334
1461.000000	0.018474
1460.000000	0.018639
1459.000000	0.018874
1458.000000	0.019182
1457.000000	0.019533
1456.000000	0.019864
1455.000000	0.020108
1454.000000	0.020288
1453.000000	0.020472
1452.000000	0.020637
1451.000000	0.020729
1450.000000	0.020765
1449.000000	0.020782
1448.000000	0.020776
1447.000000	0.020739
1446.000000	0.020710
1445.000000	0.020702
1444.000000	0.020691
1443.000000	0.020648
1442.000000	0.020562
1441.000000	0.020455
1440.000000	0.020357
1439.000000	0.020285
1438.000000	0.020201
1437.000000	0.020061
1436.000000	0.019873
1435.000000	0.019689
1434.000000	0.019528
1433.000000	0.019366
1432.000000	0.019160
1431.000000	0.018901
1430.000000	0.018646
1429.000000	0.018456
1428.000000	0.018337
1427.000000	0.018267
1426.000000	0.018232
1425.000000	0.018213
1424.000000	0.018186
1423.000000	0.018155
1422.000000	0.018155
1421.000000	0.018185
1420.000000	0.018209
1419.000000	0.018215
1418.000000	0.018232
1417.000000	0.018282
1416.000000	0.018359
1415.000000	0.018452
1414.000000	0.018561
1413.000000	0.018694
1412.000000	0.018839
1411.000000	0.018972
1410.000000	0.019083
1409.000000	0.019193
1408.000000	0.019312
1407.000000	0.019432
1406.000000	0.019553
1405.000000	0.019671
1404.000000	0.019761
1403.000000	0.019802
1402.000000	0.019808
1401.000000	0.019805
1400.000000	0.019795
1399.000000	0.019761
1398.000000	0.019710
1397.000000	0.019668
1396.000000	0.019619
1395.000000	0.019528
1394.000000	0.019409
1393.000000	0.019317
1392.000000	0.019265
1391.000000	0.019233
1390.000000	0.019209
1389.000000	0.019184
1388.000000	0.019141
1387.000000	0.019055
1386.000000	0.018932
1385.000000	0.018803
1384.000000	0.018678
1383.000000	0.018540
1382.000000	0.018380
1381.000000	0.018209
1380.000000	0.018044
1379.000000	0.017883
1378.000000	0.017730
1377.000000	0.017599
1376.000000	0.017494
1375.000000	0.017393
1374.000000	0.017278
1373.000000	0.017164
1372.000000	0.017079
1371.000000	0.017029
1370.000000	0.017000
1369.000000	0.016978
1368.000000	0.016947
1367.000000	0.016898
1366.000000	0.016831
1365.000000	0.016750
1364.000000	0.016649
1363.000000	0.016512
1362.000000	0.016337
1361.000000	0.016141
1360.000000	0.015943
1359.000000	0.015749
1358.000000	0.015566
1357.000000	0.015404
1356.000000	0.015260
1355.000000	0.015127
1354.000000	0.015009
1353.000000	0.014925
1352.000000	0.014883
1351.000000	0.014872
1350.000000	0.014877
1349.000000	0.014890
1348.000000	0.014919
1347.000000	0.014962
1346.000000	0.015017
1345.000000	0.015084
1344.000000	0.015166
1343.000000	0.015273
1342.000000	0.015404
1341.000000	0.015552
1340.000000	0.015693
1339.000000	0.015792
1338.000000	0.015827
1337.000000	0.015801
1336.000000	0.015730
1335.000000	0.015645
1334.000000	0.015567
1333.000000	0.015490
1332.000000	0.015385
1331.000000	0.015235
1330.000000	0.015064
1329.000000	0.014906
1328.000000	0.014774
1327.000000	0.014662
1326.000000	0.014575
1325.000000	0.014526
1324.000000	0.014518
1323.000000	0.014540
1322.000000	0.014584
1321.000000	0.014656
1320.000000	0.014750
1319.000000	0.014841
1318.000000	0.014911
1317.000000	0.014964
1316.000000	0.015017
1315.000000	0.015073
1314.000000	0.015123
1313.000000	0.015146
1312.000000	0.015124
1311.000000	0.015055
1310.000000	0.014959
1309.000000	0.014865
1308.000000	0.014782
1307.000000	0.014690
1306.000000	0.014569
1305.000000	0.014425
1304.000000	0.014275
1303.000000	0.014130
1302.000000	0.013994
1301.000000	0.013868
1300.000000	0.013755
1299.000000	0.013655
1298.000000	0.013572
1297.000000	0.013516
1296.000000	0.013501
1295.000000	0.013532
1294.000000	0.013605
1293.000000	0.013712
1292.000000	0.013844
1291.000000	0.013990
1290.000000	0.014143
1289.000000	0.014294
1288.000000	0.014435
1287.000000	0.014563
1286.000000	0.014694
1285.000000	0.014851
1284.000000	0.015042
1283.000000	0.015254
1282.000000	0.015468
1281.000000	0.015676
1280.000000	0.015867
1279.000000	0.016024
1278.000000	0.016134
1277.000000	0.016201
1276.000000	0.016243
1275.000000	0.016272
1274.000000	0.016293
1273.000000	0.016309
1272.000000	0.016327
1271.000000	0.016349
1270.000000	0.016376
1269.000000	0.016402
1268.000000	0.016412
1267.000000	0.016395
1266.000000	0.016356
1265.000000	0.016318
1264.000000	0.016302
1263.000000	0.016316
1262.000000	0.016362
1261.000000	0.016444
1260.000000	0.016568
1259.000000	0.016740
1258.000000	0.016964
1257.000000	0.017234
1256.000000	0.017522
1255.000000	0.017792
1254.000000	0.018025
1253.000000	0.018223
1252.000000	0.018401
1251.000000	0.018580
1250.000000	0.018788
1249.000000	0.019044
1248.000000	0.019329
1247.000000	0.019606
1246.000000	0.019857
1245.000000	0.020102
1244.000000	0.020368
1243.000000	0.020665
1242.000000	0.020985
1241.000000	0.021319
1240.000000	0.021650
1239.000000	0.021954
1238.000000	0.022223
1237.000000	0.022465
1236.000000	0.022679
1235.000000	0.022845
1234.000000	0.022947
1233.000000	0.022989
1232.000000	0.022974
1231.000000	0.022891
1230.000000	0.022730
1229.000000	0.022492
1228.000000	0.022186
1227.000000	0.021813
1226.000000	0.021381
1225.000000	0.020909
1224.000000	0.020406
1223.000000	0.019872
1222.000000	0.019315
1221.000000	0.018763
1220.000000	0.018242
1219.000000	0.017763
1218.000000	0.017328
1217.000000	0.016940
1216.000000	0.016611
1215.000000	0.016340
1214.000000	0.016116
1213.000000	0.015920
1212.000000	0.015741
1211.000000	0.015579
1210.000000	0.015444
1209.000000	0.015336
1208.000000	0.015235
1207.000000	0.015116
1206.000000	0.014974
1205.000000	0.014825
1204.000000	0.014679
1203.000000	0.014521
1202.000000	0.014331
1201.000000	0.014104
1200.000000	0.013852
1199.000000	0.013583
1198.000000	0.013294
1197.000000	0.012985
1196.000000	0.012669
1195.000000	0.012363
1194.000000	0.012075
1193.000000	0.011800
1192.000000	0.011533
1191.000000	0.011284
1190.000000	0.011066
1189.000000	0.010888
1188.000000	0.010745
1187.000000	0.010638
1186.000000	0.010582
1185.000000	0.010601
1184.000000	0.010704
1183.000000	0.010874
1182.000000	0.011077
1181.000000	0.011286
1180.000000	0.011481
1179.000000	0.011652
1178.000000	0.011792
1177.000000	0.011904
1176.000000	0.011995
1175.000000	0.012078
1174.000000	0.012168
1173.000000	0.012272
1172.000000	0.012380
1171.000000	0.012475
1170.000000	0.012549
1169.000000	0.012611
1168.000000	0.012664
1167.000000	0.012696
1166.000000	0.012702
1165.000000	0.012697
1164.000000	0.012701
1163.000000	0.012718
1162.000000	0.012735
1161.000000	0.012742
1160.000000	0.012735
1159.000000	0.012709
1158.000000	0.012656
1157.000000	0.012580
1156.000000	0.012491
1155.000000	0.012391
1154.000000	0.012274
1153.000000	0.012143
1152.000000	0.012013
1151.000000	0.011897
1150.000000	0.011787
1149.000000	0.011665
1148.000000	0.011527
1147.000000	0.011385
1146.000000	0.011248
1145.000000	0.011117
1144.000000	0.010991
1143.000000	0.010878
1142.000000	0.010786
1141.000000	0.010706
1140.000000	0.010612
1139.000000	0.010491
1138.000000	0.010356
1137.000000	0.010244
1136.000000	0.010171
1135.000000	0.010125
1134.000000	0.010084
1133.000000	0.010045
1132.000000	0.010017
1131.000000	0.010001
1130.000000	0.009986
1129.000000	0.009965
1128.000000	0.009949
1127.000000	0.009954
1126.000000	0.009982
1125.000000	0.010024
1124.000000	0.010071
1123.000000	0.010121
1122.000000	0.010179
1121.000000	0.010243
1120.000000	0.010308
1119.000000	0.010364
1118.000000	0.010413
1117.000000	0.010472
1116.000000	0.010559
1115.000000	0.010681
1114.000000	0.010820
1113.000000	0.010954
1112.000000	0.011065
1111.000000	0.011155
1110.000000	0.011230
1109.000000	0.011297
1108.000000	0.011363
1107.000000	0.011442
1106.000000	0.011540
1105.000000	0.011656
1104.000000	0.011788
1103.000000	0.011934
1102.000000	0.012090
1101.000000	0.012237
1100.000000	0.012348
1099.000000	0.012424
1098.000000	0.012490
1097.000000	0.012575
1096.000000	0.012678
1095.000000	0.012783
1094.000000	0.012889
1093.000000	0.013006
1092.000000	0.013145
1091.000000	0.013299
1090.000000	0.013458
1089.000000	0.013624
1088.000000	0.013812
1087.000000	0.014045
1086.000000	0.014339
1085.000000	0.014678
1084.000000	0.015011
1083.000000	0.015273
1082.000000	0.015418
1081.000000	0.015432
1080.000000	0.015320
1079.000000	0.015103
1078.000000	0.014830
1077.000000	0.014551
1076.000000	0.014285
1075.000000	0.014023
1074.000000	0.013759
1073.000000	0.013515
1072.000000	0.013324
1071.000000	0.013199
1070.000000	0.013132
1069.000000	0.013111
1068.000000	0.013128
1067.000000	0.013185
1066.000000	0.013281
1065.000000	0.013417
1064.000000	0.013578
1063.000000	0.013738
1062.000000	0.013876
1061.000000	0.013990
1060.000000	0.014093
1059.000000	0.014202
1058.000000	0.014325
1057.000000	0.014455
1056.000000	0.014581
1055.000000	0.014691
1054.000000	0.014776
1053.000000	0.014826
1052.000000	0.014830
1051.000000	0.014795
1050.000000	0.014753
1049.000000	0.014746
1048.000000	0.014783
1047.000000	0.014842
1046.000000	0.014889
1045.000000	0.014905
1044.000000	0.014884
1043.000000	0.014836
1042.000000	0.014788
1041.000000	0.014769
1040.000000	0.014792
1039.000000	0.014853
1038.000000	0.014955
1037.000000	0.015109
1036.000000	0.015309
1035.000000	0.015520
1034.000000	0.015706
1033.000000	0.015857
1032.000000	0.015987
1031.000000	0.016101
1030.000000	0.016191
1029.000000	0.016251
1028.000000	0.016291
1027.000000	0.016336
1026.000000	0.016401
1025.000000	0.016473
1024.000000	0.016524
1023.000000	0.016544
1022.000000	0.016557
1021.000000	0.016603
1020.000000	0.016704
1019.000000	0.016852
1018.000000	0.017020
1017.000000	0.017169
1016.000000	0.017245
1015.000000	0.017192
1014.000000	0.016997
1013.000000	0.016687
1012.000000	0.016302
1011.000000	0.015861
1010.000000	0.015372
1009.000000	0.014859
1008.000000	0.014359
1007.000000	0.013906
1006.000000	0.013511
1005.000000	0.013166
1004.000000	0.012855
1003.000000	0.012564
1002.000000	0.012277
1001.000000	0.011987
1000.000000	0.011694
999.000000	0.011409
998.000000	0.011146
997.000000	0.010916
996.000000	0.010712
995.000000	0.010521
994.000000	0.010329
993.000000	0.010128
992.000000	0.009912
991.000000	0.009685
990.000000	0.009460
989.000000	0.009251
988.000000	0.009066
987.000000	0.008904
986.000000	0.008752
985.000000	0.008595
984.000000	0.008423
983.000000	0.008241
982.000000	0.008068
981.000000	0.007908
980.000000	0.007755
979.000000	0.007605
978.000000	0.007467
977.000000	0.007343
976.000000	0.007221
975.000000	0.007092
974.000000	0.006963
973.000000	0.006853
972.000000	0.006760
971.000000	0.006663
970.000000	0.006549
969.000000	0.006424
968.000000	0.006300
967.000000	0.006192
966.000000	0.006112
965.000000	0.006067
964.000000	0.006040
963.000000	0.006000
962.000000	0.005936
961.000000	0.005869
960.000000	0.005831
959.000000	0.005826
958.000000	0.005837
957.000000	0.005846
956.000000	0.005855
955.000000	0.005866
954.000000	0.005866
953.000000	0.005839
952.000000	0.005775
951.000000	0.005681
950.000000	0.005563
949.000000	0.005424
948.000000	0.005264
947.000000	0.005096
946.000000	0.004949
945.000000	0.004837
944.000000	0.004749
943.000000	0.004665
942.000000	0.004588
941.000000	0.004542
940.000000	0.004542
939.000000	0.004567
938.000000	0.004586
937.000000	0.004581
936.000000	0.004553
935.000000	0.004510
934.000000	0.004461
933.000000	0.004415
932.000000	0.004379
931.000000	0.004349
930.000000	0.004318
929.000000	0.004280
928.000000	0.004229
927.000000	0.004158
926.000000	0.004065
925.000000	0.003953
924.000000	0.003827
923.000000	0.003689
922.000000	0.003540
921.000000	0.003385
920.000000	0.003229
919.000000	0.003077
918.000000	0.002940
917.000000	0.002829
916.000000	0.002753
915.000000	0.002702
914.000000	0.002651
913.000000	0.002575
912.000000	0.002476
911.000000	0.002387
910.000000	0.002347
909.000000	0.002362
908.000000	0.002396
907.000000	0.002400
906.000000	0.002366
905.000000	0.002325
904.000000	0.002313
903.000000	0.002327
902.000000	0.002336
901.000000	0.002321
900.000000	0.002292
899.000000	0.002271
898.000000	0.002269
897.000000	0.002274
896.000000	0.002269
895.000000	0.002247
894.000000	0.002225
893.000000	0.002223
892.000000	0.002248
891.000000	0.002281
890.000000	0.002297
889.000000	0.002280
888.000000	0.002242
887.000000	0.002204
886.000000	0.002188
885.000000	0.002201
884.000000	0.002240
883.000000	0.002299
882.000000	0.002372
881.000000	0.002447
880.000000	0.002503
879.000000	0.002531
878.000000	0.002545
877.000000	0.002567
876.000000	0.002604
875.000000	0.002641
874.000000	0.002669
873.000000	0.002684
872.000000	0.002669
871.000000	0.002598
870.000000	0.002472
869.000000	0.002328
868.000000	0.002212
867.000000	0.002147
866.000000	0.002131
865.000000	0.002158
864.000000	0.002216
863.000000	0.002281
862.000000	0.002337
861.000000	0.002396
860.000000	0.002484
859.000000	0.002609
858.000000	0.002741
857.000000	0.002843
856.000000	0.002895
855.000000	0.002913
854.000000	0.002931
853.000000	0.002978
852.000000	0.003063
851.000000	0.003165
850.000000	0.003254
849.000000	0.003320
848.000000	0.003374
847.000000	0.003444
846.000000	0.003550
845.000000	0.003695
844.000000	0.003858
843.000000	0.004015
842.000000	0.004169
841.000000	0.004343
840.000000	0.004554
839.000000	0.004780
838.000000	0.004977
837.000000	0.005120
836.000000	0.005212
835.000000	0.005272
834.000000	0.005317
833.000000	0.005345
832.000000	0.005332
831.000000	0.005248
830.000000	0.005097
829.000000	0.004924
828.000000	0.004778
827.000000	0.004656
826.000000	0.004507
825.000000	0.004297
824.000000	0.004048
823.000000	0.003821
822.000000	0.003659
821.000000	0.003556
820.000000	0.003478
819.000000	0.003390
818.000000	0.003276
817.000000	0.003140
816.000000	0.002999
815.000000	0.002872
814.000000	0.002770
813.000000	0.002693
812.000000	0.002629
811.000000	0.002564
810.000000	0.002485
809.000000	0.002393
808.000000	0.002304
807.000000	0.002243
806.000000	0.002223
805.000000	0.002231
804.000000	0.002234
803.000000	0.002214
802.000000	0.002186
801.000000	0.002181
800.000000	0.002205
799.000000	0.002232
798.000000	0.002239
797.000000	0.002231
796.000000	0.002234
795.000000	0.002268
794.000000	0.002333
793.000000	0.002412
792.000000	0.002475
791.000000	0.002506
790.000000	0.002513
789.000000	0.002518
788.000000	0.002529
787.000000	0.002535
786.000000	0.002531
785.000000	0.002531
784.000000	0.002535
783.000000	0.002535
782.000000	0.002526
781.000000	0.002526
780.000000	0.002545
779.000000	0.002558
778.000000	0.002549
777.000000	0.002542
776.000000	0.002584
775.000000	0.002678
774.000000	0.002769
773.000000	0.002798
772.000000	0.002757
771.000000	0.002689
770.000000	0.002646
769.000000	0.002654
768.000000	0.002698
767.000000	0.002740
766.000000	0.002753
765.000000	0.002743
764.000000	0.002737
763.000000	0.002755
762.000000	0.002803
761.000000	0.002874
760.000000	0.002952
759.000000	0.003023
758.000000	0.003087
757.000000	0.003164
756.000000	0.003267
755.000000	0.003383
754.000000	0.003479
753.000000	0.003539
752.000000	0.003578
751.000000	0.003626
750.000000	0.003691
749.000000	0.003758
748.000000	0.003800
747.000000	0.003795
746.000000	0.003745
745.000000	0.003678
744.000000	0.003618
743.000000	0.003572
742.000000	0.003528
741.000000	0.003484
740.000000	0.003457
739.000000	0.003466
738.000000	0.003511
737.000000	0.003568
736.000000	0.003608
735.000000	0.003628
734.000000	0.003656
733.000000	0.003729
732.000000	0.003857
731.000000	0.004012
730.000000	0.004150
729.000000	0.004244
728.000000	0.004305
727.000000	0.004364
726.000000	0.004449
725.000000	0.004563
724.000000	0.004683
723.000000	0.004790
722.000000	0.004887
721.000000	0.004994
720.000000	0.005108
719.000000	0.005196
718.000000	0.005232
717.000000	0.005228
716.000000	0.005222
715.000000	0.005248
714.000000	0.005307
713.000000	0.005378
712.000000	0.005435
711.000000	0.005467
710.000000	0.005501
709.000000	0.005575
708.000000	0.005701
707.000000	0.005847
706.000000	0.005964
705.000000	0.006025
704.000000	0.006032
703.000000	0.006008
702.000000	0.005981
701.000000	0.005975
700.000000	0.005991
699.000000	0.006008
698.000000	0.006010
697.000000	0.006003
696.000000	0.006002
695.000000	0.006002
694.000000	0.005986
693.000000	0.005948
692.000000	0.005911
691.000000	0.005900
690.000000	0.005912
689.000000	0.005920
688.000000	0.005908
687.000000	0.005888
686.000000	0.005889
685.000000	0.005923
684.000000	0.005981
683.000000	0.006057
682.000000	0.006150
681.000000	0.006251
680.000000	0.006340
679.000000	0.006405
678.000000	0.006455
677.000000	0.006517
676.000000	0.006608
675.000000	0.006728
674.000000	0.006858
673.000000	0.006971
672.000000	0.007027
671.000000	0.006993
670.000000	0.006861
669.000000	0.006665
668.000000	0.006514
667.000000	0.006554
666.000000	0.006751
665.000000	0.006967
664.000000	0.007095
663.000000	0.007103
662.000000	0.007060
661.000000	0.007072
660.000000	0.007159
659.000000	0.007239
658.000000	0.007252
657.000000	0.007223
656.000000	0.007211
655.000000	0.007229
654.000000	0.007262
653.000000	0.007295
652.000000	0.007298
651.000000	0.007253
650.000000	0.007199
649.000000	0.007208
648.000000	0.007280
647.000000	0.007333
646.000000	0.007328
645.000000	0.007316
644.000000	0.007350
643.000000	0.007399
642.000000	0.007393
641.000000	0.007309
640.000000	0.007170
639.000000	0.007005
638.000000	0.006852
637.000000	0.006766
636.000000	0.006767
635.000000	0.006812
634.000000	0.006843
633.000000	0.006841
632.000000	0.006821
631.000000	0.006802
630.000000	0.006805
629.000000	0.006843
628.000000	0.006899
627.000000	0.006933
626.000000	0.006937
625.000000	0.006939
624.000000	0.006945
623.000000	0.006930
622.000000	0.006903
621.000000	0.006929
620.000000	0.007034
619.000000	0.007164
618.000000	0.007242
617.000000	0.007250
616.000000	0.007209
615.000000	0.007132
614.000000	0.007052
613.000000	0.007039
612.000000	0.007115
611.000000	0.007196
610.000000	0.007166
609.000000	0.007014
608.000000	0.006840
607.000000	0.006753
606.000000	0.006803
605.000000	0.006970
604.000000	0.007169
603.000000	0.007290
602.000000	0.007281
601.000000	0.007203
600.000000	0.007153
599.000000	0.007171
598.000000	0.007233
597.000000	0.007311
596.000000	0.007385
595.000000	0.007418
594.000000	0.007382
593.000000	0.007311
592.000000	0.007270
591.000000	0.007289
590.000000	0.007342
589.000000	0.007391
588.000000	0.007407
587.000000	0.007360
586.000000	0.007258
585.000000	0.007158
584.000000	0.007132
583.000000	0.007196
582.000000	0.007315
581.000000	0.007456
580.000000	0.007604
579.000000	0.007734
578.000000	0.007797
577.000000	0.007736
576.000000	0.007525
575.000000	0.007233
574.000000	0.007025
573.000000	0.007036
572.000000	0.007247
571.000000	0.007509
570.000000	0.007702
569.000000	0.007851
568.000000	0.008040
567.000000	0.008276
566.000000	0.008494
565.000000	0.008633
564.000000	0.008673
563.000000	0.008615
562.000000	0.008516
561.000000	0.008472
560.000000	0.008530
559.000000	0.008631
558.000000	0.008695
557.000000	0.008726
556.000000	0.008775
555.000000	0.008855
554.000000	0.008923
553.000000	0.008932
552.000000	0.008858
551.000000	0.008697
550.000000	0.008478
549.000000	0.008240
548.000000	0.008000
547.000000	0.007767
546.000000	0.007595
545.000000	0.007545
544.000000	0.007583
543.000000	0.007622
542.000000	0.007648
541.000000	0.007724
540.000000	0.007827
539.000000	0.007816
538.000000	0.007626
537.000000	0.007393
536.000000	0.007290
535.000000	0.007320
534.000000	0.007361
533.000000	0.007347
532.000000	0.007317
531.000000	0.007339
530.000000	0.007453
529.000000	0.007659
528.000000	0.007888
527.000000	0.008008
526.000000	0.007956
525.000000	0.007812
524.000000	0.007679
523.000000	0.007548
522.000000	0.007358
521.000000	0.007117
520.000000	0.006884
519.000000	0.006694
518.000000	0.006557
517.000000	0.006460
516.000000	0.006347
515.000000	0.006159
514.000000	0.005939
513.000000	0.005794
512.000000	0.005734
511.000000	0.005630
510.000000	0.005409
509.000000	0.005179
508.000000	0.005087
507.000000	0.005135
506.000000	0.005248
505.000000	0.005413
504.000000	0.005606
503.000000	0.005679
502.000000	0.005479
501.000000	0.005078
500.000000	0.004716
499.000000	0.004536
498.000000	0.004520
497.000000	0.004604
496.000000	0.004707
495.000000	0.004727
494.000000	0.004590
493.000000	0.004335
492.000000	0.004081
491.000000	0.003917
490.000000	0.003893
489.000000	0.004026
488.000000	0.004239
487.000000	0.004348
486.000000	0.004209
485.000000	0.003872
484.000000	0.003484
483.000000	0.003120
482.000000	0.002817
481.000000	0.002679
480.000000	0.002781
479.000000	0.003020
478.000000	0.003222
477.000000	0.003317
476.000000	0.003326
475.000000	0.003232
474.000000	0.003030
473.000000	0.002870
472.000000	0.002936
471.000000	0.003187
470.000000	0.003407
469.000000	0.003479
468.000000	0.003411
467.000000	0.003228
466.000000	0.003000
465.000000	0.002848
464.000000	0.002786
463.000000	0.002648
462.000000	0.002335
461.000000	0.002063
460.000000	0.002109
459.000000	0.002385
458.000000	0.002503
457.000000	0.002314
456.000000	0.002095
455.000000	0.002061
454.000000	0.002145
453.000000	0.002262
452.000000	0.002418
451.000000	0.002542
450.000000	0.002469
