PE IR       SUBTECH     SPECTRUM    ASCII       PEDS        4.00        
   -1
3S-H10-F029_1.ASC
22/02/18
11:14:38.00
22/02/18
11:29:39.00
uco
Sample 029 By uco Date Friday, February 18 2022
450.000000
#HDR
-1
-1
#GR
cm-1
A
1.0
0.0
4000.000000
-1.000000
3551
8
0.041546
0.001313
#DATA
4000.000000	0.002075
3999.000000	0.002067
3998.000000	0.002058
3997.000000	0.002047
3996.000000	0.002037
3995.000000	0.002032
3994.000000	0.002030
3993.000000	0.002026
3992.000000	0.002019
3991.000000	0.002017
3990.000000	0.002027
3989.000000	0.002051
3988.000000	0.002077
3987.000000	0.002096
3986.000000	0.002108
3985.000000	0.002119
3984.000000	0.002133
3983.000000	0.002145
3982.000000	0.002150
3981.000000	0.002146
3980.000000	0.002141
3979.000000	0.002142
3978.000000	0.002150
3977.000000	0.002159
3976.000000	0.002168
3975.000000	0.002175
3974.000000	0.002182
3973.000000	0.002189
3972.000000	0.002194
3971.000000	0.002196
3970.000000	0.002196
3969.000000	0.002194
3968.000000	0.002189
3967.000000	0.002181
3966.000000	0.002176
3965.000000	0.002176
3964.000000	0.002179
3963.000000	0.002180
3962.000000	0.002173
3961.000000	0.002160
3960.000000	0.002151
3959.000000	0.002156
3958.000000	0.002177
3957.000000	0.002205
3956.000000	0.002227
3955.000000	0.002235
3954.000000	0.002229
3953.000000	0.002220
3952.000000	0.002216
3951.000000	0.002219
3950.000000	0.002228
3949.000000	0.002241
3948.000000	0.002254
3947.000000	0.002266
3946.000000	0.002272
3945.000000	0.002271
3944.000000	0.002262
3943.000000	0.002249
3942.000000	0.002236
3941.000000	0.002224
3940.000000	0.002215
3939.000000	0.002208
3938.000000	0.002202
3937.000000	0.002201
3936.000000	0.002207
3935.000000	0.002216
3934.000000	0.002220
3933.000000	0.002213
3932.000000	0.002202
3931.000000	0.002196
3930.000000	0.002197
3929.000000	0.002200
3928.000000	0.002198
3927.000000	0.002189
3926.000000	0.002175
3925.000000	0.002160
3924.000000	0.002151
3923.000000	0.002151
3922.000000	0.002160
3921.000000	0.002172
3920.000000	0.002184
3919.000000	0.002196
3918.000000	0.002212
3917.000000	0.002232
3916.000000	0.002252
3915.000000	0.002268
3914.000000	0.002275
3913.000000	0.002268
3912.000000	0.002249
3911.000000	0.002219
3910.000000	0.002185
3909.000000	0.002151
3908.000000	0.002119
3907.000000	0.002100
3906.000000	0.002103
3905.000000	0.002135
3904.000000	0.002185
3903.000000	0.002231
3902.000000	0.002257
3901.000000	0.002265
3900.000000	0.002265
3899.000000	0.002269
3898.000000	0.002278
3897.000000	0.002286
3896.000000	0.002282
3895.000000	0.002265
3894.000000	0.002241
3893.000000	0.002224
3892.000000	0.002220
3891.000000	0.002220
3890.000000	0.002216
3889.000000	0.002207
3888.000000	0.002202
3887.000000	0.002202
3886.000000	0.002202
3885.000000	0.002197
3884.000000	0.002191
3883.000000	0.002187
3882.000000	0.002184
3881.000000	0.002177
3880.000000	0.002165
3879.000000	0.002155
3878.000000	0.002158
3877.000000	0.002179
3876.000000	0.002211
3875.000000	0.002237
3874.000000	0.002241
3873.000000	0.002229
3872.000000	0.002216
3871.000000	0.002208
3870.000000	0.002197
3869.000000	0.002176
3868.000000	0.002152
3867.000000	0.002135
3866.000000	0.002129
3865.000000	0.002130
3864.000000	0.002140
3863.000000	0.002152
3862.000000	0.002159
3861.000000	0.002159
3860.000000	0.002159
3859.000000	0.002162
3858.000000	0.002166
3857.000000	0.002169
3856.000000	0.002172
3855.000000	0.002178
3854.000000	0.002192
3853.000000	0.002213
3852.000000	0.002236
3851.000000	0.002262
3850.000000	0.002286
3849.000000	0.002300
3848.000000	0.002300
3847.000000	0.002287
3846.000000	0.002263
3845.000000	0.002233
3844.000000	0.002201
3843.000000	0.002171
3842.000000	0.002148
3841.000000	0.002127
3840.000000	0.002104
3839.000000	0.002079
3838.000000	0.002061
3837.000000	0.002059
3836.000000	0.002072
3835.000000	0.002092
3834.000000	0.002117
3833.000000	0.002142
3832.000000	0.002162
3831.000000	0.002171
3830.000000	0.002172
3829.000000	0.002169
3828.000000	0.002165
3827.000000	0.002156
3826.000000	0.002137
3825.000000	0.002113
3824.000000	0.002099
3823.000000	0.002106
3822.000000	0.002132
3821.000000	0.002160
3820.000000	0.002176
3819.000000	0.002182
3818.000000	0.002181
3817.000000	0.002178
3816.000000	0.002174
3815.000000	0.002181
3814.000000	0.002205
3813.000000	0.002237
3812.000000	0.002257
3811.000000	0.002255
3810.000000	0.002240
3809.000000	0.002227
3808.000000	0.002218
3807.000000	0.002199
3806.000000	0.002160
3805.000000	0.002118
3804.000000	0.002094
3803.000000	0.002098
3802.000000	0.002115
3801.000000	0.002128
3800.000000	0.002132
3799.000000	0.002138
3798.000000	0.002151
3797.000000	0.002168
3796.000000	0.002184
3795.000000	0.002195
3794.000000	0.002203
3793.000000	0.002207
3792.000000	0.002203
3791.000000	0.002190
3790.000000	0.002168
3789.000000	0.002142
3788.000000	0.002122
3787.000000	0.002116
3786.000000	0.002124
3785.000000	0.002138
3784.000000	0.002146
3783.000000	0.002142
3782.000000	0.002135
3781.000000	0.002134
3780.000000	0.002149
3779.000000	0.002177
3778.000000	0.002204
3777.000000	0.002212
3776.000000	0.002195
3775.000000	0.002157
3774.000000	0.002114
3773.000000	0.002086
3772.000000	0.002083
3771.000000	0.002095
3770.000000	0.002104
3769.000000	0.002107
3768.000000	0.002111
3767.000000	0.002125
3766.000000	0.002147
3765.000000	0.002167
3764.000000	0.002181
3763.000000	0.002187
3762.000000	0.002186
3761.000000	0.002171
3760.000000	0.002148
3759.000000	0.002130
3758.000000	0.002123
3757.000000	0.002118
3756.000000	0.002107
3755.000000	0.002089
3754.000000	0.002070
3753.000000	0.002058
3752.000000	0.002058
3751.000000	0.002065
3750.000000	0.002067
3749.000000	0.002055
3748.000000	0.002041
3747.000000	0.002047
3746.000000	0.002076
3745.000000	0.002100
3744.000000	0.002092
3743.000000	0.002067
3742.000000	0.002053
3741.000000	0.002055
3740.000000	0.002059
3739.000000	0.002060
3738.000000	0.002061
3737.000000	0.002065
3736.000000	0.002064
3735.000000	0.002056
3734.000000	0.002052
3733.000000	0.002054
3732.000000	0.002054
3731.000000	0.002041
3730.000000	0.002021
3729.000000	0.002009
3728.000000	0.002024
3727.000000	0.002068
3726.000000	0.002127
3725.000000	0.002176
3724.000000	0.002201
3723.000000	0.002199
3722.000000	0.002178
3721.000000	0.002147
3720.000000	0.002115
3719.000000	0.002086
3718.000000	0.002064
3717.000000	0.002048
3716.000000	0.002039
3715.000000	0.002040
3714.000000	0.002047
3713.000000	0.002054
3712.000000	0.002058
3711.000000	0.002066
3710.000000	0.002084
3709.000000	0.002107
3708.000000	0.002126
3707.000000	0.002131
3706.000000	0.002120
3705.000000	0.002104
3704.000000	0.002095
3703.000000	0.002104
3702.000000	0.002126
3701.000000	0.002142
3700.000000	0.002138
3699.000000	0.002123
3698.000000	0.002116
3697.000000	0.002124
3696.000000	0.002138
3695.000000	0.002146
3694.000000	0.002141
3693.000000	0.002127
3692.000000	0.002117
3691.000000	0.002126
3690.000000	0.002161
3689.000000	0.002208
3688.000000	0.002236
3687.000000	0.002236
3686.000000	0.002220
3685.000000	0.002201
3684.000000	0.002190
3683.000000	0.002188
3682.000000	0.002197
3681.000000	0.002214
3680.000000	0.002226
3679.000000	0.002229
3678.000000	0.002237
3677.000000	0.002260
3676.000000	0.002291
3675.000000	0.002308
3674.000000	0.002304
3673.000000	0.002299
3672.000000	0.002321
3671.000000	0.002375
3670.000000	0.002441
3669.000000	0.002488
3668.000000	0.002504
3667.000000	0.002504
3666.000000	0.002505
3665.000000	0.002514
3664.000000	0.002530
3663.000000	0.002551
3662.000000	0.002572
3661.000000	0.002583
3660.000000	0.002580
3659.000000	0.002566
3658.000000	0.002560
3657.000000	0.002579
3656.000000	0.002622
3655.000000	0.002666
3654.000000	0.002698
3653.000000	0.002724
3652.000000	0.002755
3651.000000	0.002799
3650.000000	0.002852
3649.000000	0.002897
3648.000000	0.002919
3647.000000	0.002925
3646.000000	0.002935
3645.000000	0.002959
3644.000000	0.002998
3643.000000	0.003042
3642.000000	0.003076
3641.000000	0.003096
3640.000000	0.003108
3639.000000	0.003118
3638.000000	0.003136
3637.000000	0.003164
3636.000000	0.003196
3635.000000	0.003222
3634.000000	0.003235
3633.000000	0.003238
3632.000000	0.003250
3631.000000	0.003290
3630.000000	0.003364
3629.000000	0.003447
3628.000000	0.003503
3627.000000	0.003527
3626.000000	0.003543
3625.000000	0.003571
3624.000000	0.003614
3623.000000	0.003656
3622.000000	0.003679
3621.000000	0.003679
3620.000000	0.003672
3619.000000	0.003686
3618.000000	0.003732
3617.000000	0.003791
3616.000000	0.003842
3615.000000	0.003872
3614.000000	0.003889
3613.000000	0.003911
3612.000000	0.003949
3611.000000	0.003996
3610.000000	0.004039
3609.000000	0.004070
3608.000000	0.004096
3607.000000	0.004129
3606.000000	0.004176
3605.000000	0.004238
3604.000000	0.004307
3603.000000	0.004373
3602.000000	0.004431
3601.000000	0.004481
3600.000000	0.004525
3599.000000	0.004566
3598.000000	0.004603
3597.000000	0.004637
3596.000000	0.004673
3595.000000	0.004719
3594.000000	0.004772
3593.000000	0.004819
3592.000000	0.004851
3591.000000	0.004872
3590.000000	0.004898
3589.000000	0.004949
3588.000000	0.005032
3587.000000	0.005131
3586.000000	0.005218
3585.000000	0.005276
3584.000000	0.005311
3583.000000	0.005338
3582.000000	0.005369
3581.000000	0.005403
3580.000000	0.005433
3579.000000	0.005460
3578.000000	0.005494
3577.000000	0.005548
3576.000000	0.005622
3575.000000	0.005700
3574.000000	0.005766
3573.000000	0.005811
3572.000000	0.005842
3571.000000	0.005870
3570.000000	0.005909
3569.000000	0.005961
3568.000000	0.006015
3567.000000	0.006063
3566.000000	0.006107
3565.000000	0.006155
3564.000000	0.006211
3563.000000	0.006272
3562.000000	0.006335
3561.000000	0.006400
3560.000000	0.006466
3559.000000	0.006535
3558.000000	0.006603
3557.000000	0.006670
3556.000000	0.006734
3555.000000	0.006790
3554.000000	0.006843
3553.000000	0.006900
3552.000000	0.006965
3551.000000	0.007033
3550.000000	0.007096
3549.000000	0.007149
3548.000000	0.007195
3547.000000	0.007239
3546.000000	0.007283
3545.000000	0.007328
3544.000000	0.007376
3543.000000	0.007427
3542.000000	0.007477
3541.000000	0.007527
3540.000000	0.007574
3539.000000	0.007621
3538.000000	0.007664
3537.000000	0.007700
3536.000000	0.007733
3535.000000	0.007772
3534.000000	0.007824
3533.000000	0.007887
3532.000000	0.007954
3531.000000	0.008018
3530.000000	0.008081
3529.000000	0.008153
3528.000000	0.008235
3527.000000	0.008315
3526.000000	0.008377
3525.000000	0.008412
3524.000000	0.008426
3523.000000	0.008440
3522.000000	0.008469
3521.000000	0.008518
3520.000000	0.008577
3519.000000	0.008636
3518.000000	0.008691
3517.000000	0.008742
3516.000000	0.008790
3515.000000	0.008831
3514.000000	0.008866
3513.000000	0.008901
3512.000000	0.008942
3511.000000	0.008993
3510.000000	0.009053
3509.000000	0.009113
3508.000000	0.009167
3507.000000	0.009211
3506.000000	0.009249
3505.000000	0.009287
3504.000000	0.009329
3503.000000	0.009375
3502.000000	0.009421
3501.000000	0.009471
3500.000000	0.009523
3499.000000	0.009578
3498.000000	0.009634
3497.000000	0.009685
3496.000000	0.009724
3495.000000	0.009748
3494.000000	0.009764
3493.000000	0.009786
3492.000000	0.009824
3491.000000	0.009871
3490.000000	0.009915
3489.000000	0.009950
3488.000000	0.009975
3487.000000	0.009998
3486.000000	0.010025
3485.000000	0.010062
3484.000000	0.010112
3483.000000	0.010171
3482.000000	0.010230
3481.000000	0.010282
3480.000000	0.010324
3479.000000	0.010357
3478.000000	0.010382
3477.000000	0.010408
3476.000000	0.010446
3475.000000	0.010504
3474.000000	0.010571
3473.000000	0.010632
3472.000000	0.010676
3471.000000	0.010709
3470.000000	0.010743
3469.000000	0.010785
3468.000000	0.010836
3467.000000	0.010893
3466.000000	0.010945
3465.000000	0.010982
3464.000000	0.011004
3463.000000	0.011018
3462.000000	0.011039
3461.000000	0.011073
3460.000000	0.011124
3459.000000	0.011187
3458.000000	0.011253
3457.000000	0.011307
3456.000000	0.011339
3455.000000	0.011350
3454.000000	0.011357
3453.000000	0.011377
3452.000000	0.011421
3451.000000	0.011483
3450.000000	0.011554
3449.000000	0.011625
3448.000000	0.011693
3447.000000	0.011760
3446.000000	0.011823
3445.000000	0.011873
3444.000000	0.011902
3443.000000	0.011918
3442.000000	0.011942
3441.000000	0.011992
3440.000000	0.012061
3439.000000	0.012130
3438.000000	0.012186
3437.000000	0.012233
3436.000000	0.012280
3435.000000	0.012330
3434.000000	0.012377
3433.000000	0.012415
3432.000000	0.012448
3431.000000	0.012477
3430.000000	0.012501
3429.000000	0.012521
3428.000000	0.012547
3427.000000	0.012588
3426.000000	0.012646
3425.000000	0.012706
3424.000000	0.012752
3423.000000	0.012780
3422.000000	0.012800
3421.000000	0.012825
3420.000000	0.012865
3419.000000	0.012918
3418.000000	0.012980
3417.000000	0.013045
3416.000000	0.013108
3415.000000	0.013159
3414.000000	0.013201
3413.000000	0.013240
3412.000000	0.013282
3411.000000	0.013327
3410.000000	0.013368
3409.000000	0.013407
3408.000000	0.013456
3407.000000	0.013519
3406.000000	0.013586
3405.000000	0.013639
3404.000000	0.013670
3403.000000	0.013690
3402.000000	0.013718
3401.000000	0.013762
3400.000000	0.013817
3399.000000	0.013873
3398.000000	0.013921
3397.000000	0.013958
3396.000000	0.013985
3395.000000	0.014008
3394.000000	0.014033
3393.000000	0.014062
3392.000000	0.014097
3391.000000	0.014136
3390.000000	0.014176
3389.000000	0.014218
3388.000000	0.014260
3387.000000	0.014307
3386.000000	0.014365
3385.000000	0.014431
3384.000000	0.014497
3383.000000	0.014555
3382.000000	0.014598
3381.000000	0.014631
3380.000000	0.014665
3379.000000	0.014710
3378.000000	0.014766
3377.000000	0.014823
3376.000000	0.014873
3375.000000	0.014922
3374.000000	0.014982
3373.000000	0.015056
3372.000000	0.015133
3371.000000	0.015193
3370.000000	0.015230
3369.000000	0.015251
3368.000000	0.015274
3367.000000	0.015312
3366.000000	0.015364
3365.000000	0.015425
3364.000000	0.015492
3363.000000	0.015571
3362.000000	0.015668
3361.000000	0.015776
3360.000000	0.015873
3359.000000	0.015944
3358.000000	0.015987
3357.000000	0.016016
3356.000000	0.016049
3355.000000	0.016097
3354.000000	0.016164
3353.000000	0.016246
3352.000000	0.016333
3351.000000	0.016419
3350.000000	0.016499
3349.000000	0.016574
3348.000000	0.016647
3347.000000	0.016723
3346.000000	0.016806
3345.000000	0.016892
3344.000000	0.016972
3343.000000	0.017040
3342.000000	0.017094
3341.000000	0.017137
3340.000000	0.017168
3339.000000	0.017197
3338.000000	0.017234
3337.000000	0.017288
3336.000000	0.017352
3335.000000	0.017415
3334.000000	0.017469
3333.000000	0.017520
3332.000000	0.017578
3331.000000	0.017646
3330.000000	0.017717
3329.000000	0.017779
3328.000000	0.017824
3327.000000	0.017851
3326.000000	0.017871
3325.000000	0.017894
3324.000000	0.017928
3323.000000	0.017977
3322.000000	0.018043
3321.000000	0.018122
3320.000000	0.018203
3319.000000	0.018273
3318.000000	0.018323
3317.000000	0.018354
3316.000000	0.018374
3315.000000	0.018400
3314.000000	0.018443
3313.000000	0.018502
3312.000000	0.018564
3311.000000	0.018613
3310.000000	0.018637
3309.000000	0.018641
3308.000000	0.018643
3307.000000	0.018663
3306.000000	0.018705
3305.000000	0.018756
3304.000000	0.018797
3303.000000	0.018819
3302.000000	0.018829
3301.000000	0.018839
3300.000000	0.018855
3299.000000	0.018875
3298.000000	0.018898
3297.000000	0.018922
3296.000000	0.018947
3295.000000	0.018973
3294.000000	0.018999
3293.000000	0.019025
3292.000000	0.019048
3291.000000	0.019067
3290.000000	0.019082
3289.000000	0.019092
3288.000000	0.019094
3287.000000	0.019086
3286.000000	0.019078
3285.000000	0.019082
3284.000000	0.019102
3283.000000	0.019129
3282.000000	0.019146
3281.000000	0.019141
3280.000000	0.019117
3279.000000	0.019084
3278.000000	0.019053
3277.000000	0.019024
3276.000000	0.018994
3275.000000	0.018962
3274.000000	0.018929
3273.000000	0.018901
3272.000000	0.018878
3271.000000	0.018861
3270.000000	0.018850
3269.000000	0.018842
3268.000000	0.018827
3267.000000	0.018795
3266.000000	0.018746
3265.000000	0.018685
3264.000000	0.018621
3263.000000	0.018559
3262.000000	0.018501
3261.000000	0.018452
3260.000000	0.018414
3259.000000	0.018383
3258.000000	0.018346
3257.000000	0.018294
3256.000000	0.018230
3255.000000	0.018170
3254.000000	0.018125
3253.000000	0.018093
3252.000000	0.018063
3251.000000	0.018025
3250.000000	0.017978
3249.000000	0.017925
3248.000000	0.017868
3247.000000	0.017811
3246.000000	0.017764
3245.000000	0.017730
3244.000000	0.017701
3243.000000	0.017665
3242.000000	0.017616
3241.000000	0.017557
3240.000000	0.017496
3239.000000	0.017445
3238.000000	0.017411
3237.000000	0.017394
3236.000000	0.017386
3235.000000	0.017374
3234.000000	0.017349
3233.000000	0.017310
3232.000000	0.017265
3231.000000	0.017223
3230.000000	0.017188
3229.000000	0.017159
3228.000000	0.017132
3227.000000	0.017104
3226.000000	0.017076
3225.000000	0.017049
3224.000000	0.017020
3223.000000	0.016990
3222.000000	0.016961
3221.000000	0.016939
3220.000000	0.016917
3219.000000	0.016886
3218.000000	0.016839
3217.000000	0.016781
3216.000000	0.016723
3215.000000	0.016677
3214.000000	0.016643
3213.000000	0.016612
3212.000000	0.016576
3211.000000	0.016531
3210.000000	0.016482
3209.000000	0.016439
3208.000000	0.016406
3207.000000	0.016384
3206.000000	0.016367
3205.000000	0.016348
3204.000000	0.016325
3203.000000	0.016300
3202.000000	0.016276
3201.000000	0.016247
3200.000000	0.016203
3199.000000	0.016141
3198.000000	0.016070
3197.000000	0.016003
3196.000000	0.015943
3195.000000	0.015885
3194.000000	0.015827
3193.000000	0.015773
3192.000000	0.015729
3191.000000	0.015699
3190.000000	0.015679
3189.000000	0.015667
3188.000000	0.015649
3187.000000	0.015610
3186.000000	0.015543
3185.000000	0.015458
3184.000000	0.015373
3183.000000	0.015302
3182.000000	0.015245
3181.000000	0.015198
3180.000000	0.015154
3179.000000	0.015107
3178.000000	0.015048
3177.000000	0.014971
3176.000000	0.014880
3175.000000	0.014789
3174.000000	0.014709
3173.000000	0.014644
3172.000000	0.014592
3171.000000	0.014542
3170.000000	0.014485
3169.000000	0.014421
3168.000000	0.014357
3167.000000	0.014306
3166.000000	0.014274
3165.000000	0.014258
3164.000000	0.014244
3163.000000	0.014218
3162.000000	0.014173
3161.000000	0.014116
3160.000000	0.014053
3159.000000	0.013989
3158.000000	0.013923
3157.000000	0.013855
3156.000000	0.013790
3155.000000	0.013731
3154.000000	0.013676
3153.000000	0.013619
3152.000000	0.013557
3151.000000	0.013493
3150.000000	0.013433
3149.000000	0.013383
3148.000000	0.013347
3147.000000	0.013320
3146.000000	0.013295
3145.000000	0.013266
3144.000000	0.013234
3143.000000	0.013202
3142.000000	0.013168
3141.000000	0.013128
3140.000000	0.013084
3139.000000	0.013045
3138.000000	0.013012
3137.000000	0.012977
3136.000000	0.012928
3135.000000	0.012865
3134.000000	0.012806
3133.000000	0.012767
3132.000000	0.012752
3131.000000	0.012749
3130.000000	0.012747
3129.000000	0.012735
3128.000000	0.012715
3127.000000	0.012688
3126.000000	0.012660
3125.000000	0.012634
3124.000000	0.012609
3123.000000	0.012581
3122.000000	0.012543
3121.000000	0.012499
3120.000000	0.012460
3119.000000	0.012440
3118.000000	0.012440
3117.000000	0.012445
3116.000000	0.012436
3115.000000	0.012411
3114.000000	0.012379
3113.000000	0.012351
3112.000000	0.012333
3111.000000	0.012332
3110.000000	0.012347
3109.000000	0.012371
3108.000000	0.012397
3107.000000	0.012421
3106.000000	0.012446
3105.000000	0.012467
3104.000000	0.012475
3103.000000	0.012464
3102.000000	0.012446
3101.000000	0.012437
3100.000000	0.012443
3099.000000	0.012461
3098.000000	0.012483
3097.000000	0.012504
3096.000000	0.012525
3095.000000	0.012549
3094.000000	0.012571
3093.000000	0.012589
3092.000000	0.012597
3091.000000	0.012597
3090.000000	0.012594
3089.000000	0.012591
3088.000000	0.012587
3087.000000	0.012582
3086.000000	0.012582
3085.000000	0.012592
3084.000000	0.012610
3083.000000	0.012629
3082.000000	0.012643
3081.000000	0.012653
3080.000000	0.012659
3079.000000	0.012658
3078.000000	0.012652
3077.000000	0.012642
3076.000000	0.012634
3075.000000	0.012629
3074.000000	0.012628
3073.000000	0.012630
3072.000000	0.012631
3071.000000	0.012627
3070.000000	0.012614
3069.000000	0.012594
3068.000000	0.012574
3067.000000	0.012558
3066.000000	0.012547
3065.000000	0.012537
3064.000000	0.012525
3063.000000	0.012508
3062.000000	0.012480
3061.000000	0.012443
3060.000000	0.012405
3059.000000	0.012375
3058.000000	0.012350
3057.000000	0.012319
3056.000000	0.012270
3055.000000	0.012205
3054.000000	0.012133
3053.000000	0.012062
3052.000000	0.011996
3051.000000	0.011937
3050.000000	0.011886
3049.000000	0.011839
3048.000000	0.011791
3047.000000	0.011741
3046.000000	0.011691
3045.000000	0.011639
3044.000000	0.011584
3043.000000	0.011531
3042.000000	0.011491
3041.000000	0.011464
3040.000000	0.011441
3039.000000	0.011408
3038.000000	0.011358
3037.000000	0.011292
3036.000000	0.011216
3035.000000	0.011138
3034.000000	0.011072
3033.000000	0.011029
3032.000000	0.011005
3031.000000	0.010983
3030.000000	0.010952
3029.000000	0.010909
3028.000000	0.010858
3027.000000	0.010799
3026.000000	0.010734
3025.000000	0.010671
3024.000000	0.010620
3023.000000	0.010587
3022.000000	0.010570
3021.000000	0.010557
3020.000000	0.010532
3019.000000	0.010487
3018.000000	0.010425
3017.000000	0.010360
3016.000000	0.010302
3015.000000	0.010253
3014.000000	0.010212
3013.000000	0.010178
3012.000000	0.010149
3011.000000	0.010119
3010.000000	0.010084
3009.000000	0.010043
3008.000000	0.010006
3007.000000	0.009979
3006.000000	0.009963
3005.000000	0.009955
3004.000000	0.009952
3003.000000	0.009952
3002.000000	0.009951
3001.000000	0.009941
3000.000000	0.009921
2999.000000	0.009900
2998.000000	0.009890
2997.000000	0.009895
2996.000000	0.009903
2995.000000	0.009907
2994.000000	0.009912
2993.000000	0.009930
2992.000000	0.009967
2991.000000	0.010014
2990.000000	0.010060
2989.000000	0.010102
2988.000000	0.010153
2987.000000	0.010219
2986.000000	0.010297
2985.000000	0.010372
2984.000000	0.010434
2983.000000	0.010491
2982.000000	0.010557
2981.000000	0.010636
2980.000000	0.010712
2979.000000	0.010764
2978.000000	0.010791
2977.000000	0.010807
2976.000000	0.010827
2975.000000	0.010854
2974.000000	0.010874
2973.000000	0.010878
2972.000000	0.010869
2971.000000	0.010859
2970.000000	0.010860
2969.000000	0.010871
2968.000000	0.010884
2967.000000	0.010896
2966.000000	0.010904
2965.000000	0.010906
2964.000000	0.010896
2963.000000	0.010870
2962.000000	0.010832
2961.000000	0.010786
2960.000000	0.010734
2959.000000	0.010676
2958.000000	0.010616
2957.000000	0.010559
2956.000000	0.010509
2955.000000	0.010471
2954.000000	0.010447
2953.000000	0.010435
2952.000000	0.010431
2951.000000	0.010424
2950.000000	0.010400
2949.000000	0.010346
2948.000000	0.010257
2947.000000	0.010136
2946.000000	0.009995
2945.000000	0.009843
2944.000000	0.009694
2943.000000	0.009556
2942.000000	0.009431
2941.000000	0.009306
2940.000000	0.009158
2939.000000	0.008975
2938.000000	0.008766
2937.000000	0.008553
2936.000000	0.008349
2935.000000	0.008147
2934.000000	0.007932
2933.000000	0.007699
2932.000000	0.007458
2931.000000	0.007222
2930.000000	0.007010
2929.000000	0.006835
2928.000000	0.006701
2927.000000	0.006610
2926.000000	0.006566
2925.000000	0.006588
2924.000000	0.006702
2923.000000	0.006929
2922.000000	0.007269
2921.000000	0.007697
2920.000000	0.008174
2919.000000	0.008662
2918.000000	0.009130
2917.000000	0.009548
2916.000000	0.009887
2915.000000	0.010125
2914.000000	0.010270
2913.000000	0.010354
2912.000000	0.010414
2911.000000	0.010472
2910.000000	0.010533
2909.000000	0.010596
2908.000000	0.010658
2907.000000	0.010713
2906.000000	0.010756
2905.000000	0.010786
2904.000000	0.010811
2903.000000	0.010838
2902.000000	0.010868
2901.000000	0.010898
2900.000000	0.010923
2899.000000	0.010940
2898.000000	0.010944
2897.000000	0.010937
2896.000000	0.010927
2895.000000	0.010930
2894.000000	0.010949
2893.000000	0.010979
2892.000000	0.011008
2891.000000	0.011030
2890.000000	0.011048
2889.000000	0.011067
2888.000000	0.011085
2887.000000	0.011097
2886.000000	0.011098
2885.000000	0.011090
2884.000000	0.011078
2883.000000	0.011064
2882.000000	0.011041
2881.000000	0.011006
2880.000000	0.010963
2879.000000	0.010918
2878.000000	0.010873
2877.000000	0.010820
2876.000000	0.010753
2875.000000	0.010676
2874.000000	0.010604
2873.000000	0.010549
2872.000000	0.010507
2871.000000	0.010462
2870.000000	0.010399
2869.000000	0.010310
2868.000000	0.010191
2867.000000	0.010032
2866.000000	0.009824
2865.000000	0.009567
2864.000000	0.009275
2863.000000	0.008967
2862.000000	0.008654
2861.000000	0.008342
2860.000000	0.008040
2859.000000	0.007762
2858.000000	0.007525
2857.000000	0.007350
2856.000000	0.007265
2855.000000	0.007301
2854.000000	0.007477
2853.000000	0.007784
2852.000000	0.008188
2851.000000	0.008632
2850.000000	0.009053
2849.000000	0.009402
2848.000000	0.009660
2847.000000	0.009838
2846.000000	0.009964
2845.000000	0.010055
2844.000000	0.010117
2843.000000	0.010148
2842.000000	0.010151
2841.000000	0.010133
2840.000000	0.010102
2839.000000	0.010059
2838.000000	0.010007
2837.000000	0.009950
2836.000000	0.009893
2835.000000	0.009839
2834.000000	0.009788
2833.000000	0.009739
2832.000000	0.009688
2831.000000	0.009638
2830.000000	0.009592
2829.000000	0.009551
2828.000000	0.009516
2827.000000	0.009486
2826.000000	0.009457
2825.000000	0.009417
2824.000000	0.009362
2823.000000	0.009298
2822.000000	0.009239
2821.000000	0.009195
2820.000000	0.009163
2819.000000	0.009134
2818.000000	0.009104
2817.000000	0.009075
2816.000000	0.009044
2815.000000	0.009008
2814.000000	0.008961
2813.000000	0.008904
2812.000000	0.008845
2811.000000	0.008798
2810.000000	0.008770
2809.000000	0.008759
2808.000000	0.008750
2807.000000	0.008731
2806.000000	0.008701
2805.000000	0.008671
2804.000000	0.008646
2803.000000	0.008626
2802.000000	0.008609
2801.000000	0.008594
2800.000000	0.008578
2799.000000	0.008554
2798.000000	0.008522
2797.000000	0.008489
2796.000000	0.008463
2795.000000	0.008444
2794.000000	0.008422
2793.000000	0.008390
2792.000000	0.008352
2791.000000	0.008321
2790.000000	0.008302
2789.000000	0.008292
2788.000000	0.008281
2787.000000	0.008264
2786.000000	0.008242
2785.000000	0.008218
2784.000000	0.008195
2783.000000	0.008173
2782.000000	0.008149
2781.000000	0.008118
2780.000000	0.008081
2779.000000	0.008047
2778.000000	0.008024
2777.000000	0.008014
2776.000000	0.008005
2775.000000	0.007988
2774.000000	0.007962
2773.000000	0.007935
2772.000000	0.007911
2771.000000	0.007892
2770.000000	0.007874
2769.000000	0.007857
2768.000000	0.007842
2767.000000	0.007831
2766.000000	0.007824
2765.000000	0.007818
2764.000000	0.007812
2763.000000	0.007804
2762.000000	0.007796
2761.000000	0.007787
2760.000000	0.007778
2759.000000	0.007769
2758.000000	0.007760
2757.000000	0.007750
2756.000000	0.007735
2755.000000	0.007713
2754.000000	0.007681
2753.000000	0.007640
2752.000000	0.007592
2751.000000	0.007549
2750.000000	0.007522
2749.000000	0.007515
2748.000000	0.007523
2747.000000	0.007533
2746.000000	0.007535
2745.000000	0.007528
2744.000000	0.007515
2743.000000	0.007498
2742.000000	0.007480
2741.000000	0.007460
2740.000000	0.007439
2739.000000	0.007418
2738.000000	0.007400
2737.000000	0.007386
2736.000000	0.007374
2735.000000	0.007363
2734.000000	0.007354
2733.000000	0.007347
2732.000000	0.007343
2731.000000	0.007341
2730.000000	0.007336
2729.000000	0.007326
2728.000000	0.007306
2727.000000	0.007279
2726.000000	0.007249
2725.000000	0.007222
2724.000000	0.007198
2723.000000	0.007175
2722.000000	0.007153
2721.000000	0.007135
2720.000000	0.007121
2719.000000	0.007106
2718.000000	0.007087
2717.000000	0.007064
2716.000000	0.007043
2715.000000	0.007026
2714.000000	0.007016
2713.000000	0.007010
2712.000000	0.007005
2711.000000	0.006998
2710.000000	0.006988
2709.000000	0.006977
2708.000000	0.006966
2707.000000	0.006957
2706.000000	0.006953
2705.000000	0.006952
2704.000000	0.006950
2703.000000	0.006944
2702.000000	0.006928
2701.000000	0.006901
2700.000000	0.006865
2699.000000	0.006832
2698.000000	0.006809
2697.000000	0.006797
2696.000000	0.006792
2695.000000	0.006789
2694.000000	0.006788
2693.000000	0.006785
2692.000000	0.006772
2691.000000	0.006749
2690.000000	0.006730
2689.000000	0.006729
2688.000000	0.006743
2687.000000	0.006755
2686.000000	0.006746
2685.000000	0.006717
2684.000000	0.006684
2683.000000	0.006663
2682.000000	0.006664
2681.000000	0.006679
2680.000000	0.006693
2679.000000	0.006691
2678.000000	0.006673
2677.000000	0.006652
2676.000000	0.006643
2675.000000	0.006649
2674.000000	0.006660
2673.000000	0.006666
2672.000000	0.006661
2671.000000	0.006644
2670.000000	0.006621
2669.000000	0.006600
2668.000000	0.006591
2667.000000	0.006597
2666.000000	0.006610
2665.000000	0.006618
2664.000000	0.006614
2663.000000	0.006601
2662.000000	0.006584
2661.000000	0.006573
2660.000000	0.006570
2659.000000	0.006571
2658.000000	0.006569
2657.000000	0.006557
2656.000000	0.006537
2655.000000	0.006518
2654.000000	0.006506
2653.000000	0.006498
2652.000000	0.006481
2651.000000	0.006444
2650.000000	0.006389
2649.000000	0.006331
2648.000000	0.006287
2647.000000	0.006267
2646.000000	0.006269
2645.000000	0.006274
2644.000000	0.006263
2643.000000	0.006230
2642.000000	0.006191
2641.000000	0.006160
2640.000000	0.006144
2639.000000	0.006134
2638.000000	0.006129
2637.000000	0.006130
2636.000000	0.006135
2635.000000	0.006133
2634.000000	0.006115
2633.000000	0.006077
2632.000000	0.006023
2631.000000	0.005967
2630.000000	0.005922
2629.000000	0.005894
2628.000000	0.005875
2627.000000	0.005848
2626.000000	0.005809
2625.000000	0.005769
2624.000000	0.005748
2623.000000	0.005753
2622.000000	0.005774
2621.000000	0.005794
2620.000000	0.005798
2619.000000	0.005781
2618.000000	0.005746
2617.000000	0.005705
2616.000000	0.005669
2615.000000	0.005641
2614.000000	0.005618
2613.000000	0.005595
2612.000000	0.005574
2611.000000	0.005560
2610.000000	0.005553
2609.000000	0.005545
2608.000000	0.005530
2607.000000	0.005519
2606.000000	0.005528
2605.000000	0.005557
2604.000000	0.005582
2603.000000	0.005578
2602.000000	0.005544
2601.000000	0.005504
2600.000000	0.005480
2599.000000	0.005475
2598.000000	0.005479
2597.000000	0.005478
2596.000000	0.005462
2595.000000	0.005428
2594.000000	0.005382
2593.000000	0.005336
2592.000000	0.005304
2591.000000	0.005294
2590.000000	0.005303
2589.000000	0.005319
2588.000000	0.005331
2587.000000	0.005336
2586.000000	0.005336
2585.000000	0.005327
2584.000000	0.005299
2583.000000	0.005251
2582.000000	0.005203
2581.000000	0.005182
2580.000000	0.005192
2579.000000	0.005213
2578.000000	0.005223
2577.000000	0.005214
2576.000000	0.005187
2575.000000	0.005142
2574.000000	0.005093
2573.000000	0.005064
2572.000000	0.005073
2571.000000	0.005108
2570.000000	0.005135
2569.000000	0.005129
2568.000000	0.005098
2567.000000	0.005073
2566.000000	0.005070
2565.000000	0.005076
2564.000000	0.005066
2563.000000	0.005032
2562.000000	0.004998
2561.000000	0.004990
2560.000000	0.005009
2559.000000	0.005024
2558.000000	0.005007
2557.000000	0.004962
2556.000000	0.004915
2555.000000	0.004898
2554.000000	0.004918
2553.000000	0.004960
2552.000000	0.004995
2551.000000	0.004999
2550.000000	0.004972
2549.000000	0.004930
2548.000000	0.004886
2547.000000	0.004842
2546.000000	0.004801
2545.000000	0.004774
2544.000000	0.004773
2543.000000	0.004796
2542.000000	0.004827
2541.000000	0.004853
2540.000000	0.004870
2539.000000	0.004880
2538.000000	0.004887
2537.000000	0.004898
2536.000000	0.004917
2535.000000	0.004938
2534.000000	0.004943
2533.000000	0.004918
2532.000000	0.004865
2531.000000	0.004809
2530.000000	0.004771
2529.000000	0.004757
2528.000000	0.004757
2527.000000	0.004762
2526.000000	0.004772
2525.000000	0.004787
2524.000000	0.004806
2523.000000	0.004824
2522.000000	0.004835
2521.000000	0.004835
2520.000000	0.004821
2519.000000	0.004800
2518.000000	0.004787
2517.000000	0.004788
2516.000000	0.004792
2515.000000	0.004788
2514.000000	0.004778
2513.000000	0.004776
2512.000000	0.004783
2511.000000	0.004785
2510.000000	0.004766
2509.000000	0.004734
2508.000000	0.004709
2507.000000	0.004710
2506.000000	0.004733
2505.000000	0.004765
2504.000000	0.004786
2503.000000	0.004782
2502.000000	0.004754
2501.000000	0.004720
2500.000000	0.004702
2499.000000	0.004704
2498.000000	0.004705
2497.000000	0.004680
2496.000000	0.004630
2495.000000	0.004585
2494.000000	0.004569
2493.000000	0.004579
2492.000000	0.004597
2491.000000	0.004617
2490.000000	0.004648
2489.000000	0.004689
2488.000000	0.004719
2487.000000	0.004720
2486.000000	0.004698
2485.000000	0.004673
2484.000000	0.004665
2483.000000	0.004677
2482.000000	0.004697
2481.000000	0.004709
2480.000000	0.004698
2479.000000	0.004667
2478.000000	0.004637
2477.000000	0.004628
2476.000000	0.004642
2475.000000	0.004664
2474.000000	0.004675
2473.000000	0.004668
2472.000000	0.004647
2471.000000	0.004630
2470.000000	0.004630
2469.000000	0.004642
2468.000000	0.004649
2467.000000	0.004635
2466.000000	0.004604
2465.000000	0.004570
2464.000000	0.004544
2463.000000	0.004535
2462.000000	0.004553
2461.000000	0.004595
2460.000000	0.004634
2459.000000	0.004639
2458.000000	0.004601
2457.000000	0.004550
2456.000000	0.004516
2455.000000	0.004511
2454.000000	0.004523
2453.000000	0.004544
2452.000000	0.004566
2451.000000	0.004583
2450.000000	0.004590
2449.000000	0.004591
2448.000000	0.004599
2447.000000	0.004622
2446.000000	0.004652
2445.000000	0.004661
2444.000000	0.004623
2443.000000	0.004543
2442.000000	0.004458
2441.000000	0.004411
2440.000000	0.004420
2439.000000	0.004465
2438.000000	0.004512
2437.000000	0.004533
2436.000000	0.004518
2435.000000	0.004474
2434.000000	0.004422
2433.000000	0.004381
2432.000000	0.004360
2431.000000	0.004351
2430.000000	0.004345
2429.000000	0.004343
2428.000000	0.004351
2427.000000	0.004377
2426.000000	0.004411
2425.000000	0.004430
2424.000000	0.004414
2423.000000	0.004366
2422.000000	0.004306
2421.000000	0.004259
2420.000000	0.004234
2419.000000	0.004232
2418.000000	0.004253
2417.000000	0.004290
2416.000000	0.004328
2415.000000	0.004348
2414.000000	0.004345
2413.000000	0.004330
2412.000000	0.004316
2411.000000	0.004309
2410.000000	0.004310
2409.000000	0.004319
2408.000000	0.004334
2407.000000	0.004354
2406.000000	0.004375
2405.000000	0.004385
2404.000000	0.004375
2403.000000	0.004350
2402.000000	0.004325
2401.000000	0.004312
2400.000000	0.004305
2399.000000	0.004297
2398.000000	0.004290
2397.000000	0.004292
2396.000000	0.004305
2395.000000	0.004325
2394.000000	0.004349
2393.000000	0.004372
2392.000000	0.004390
2391.000000	0.004397
2390.000000	0.004400
2389.000000	0.004404
2388.000000	0.004412
2387.000000	0.004423
2386.000000	0.004440
2385.000000	0.004462
2384.000000	0.004479
2383.000000	0.004486
2382.000000	0.004486
2381.000000	0.004491
2380.000000	0.004495
2379.000000	0.004489
2378.000000	0.004472
2377.000000	0.004455
2376.000000	0.004437
2375.000000	0.004408
2374.000000	0.004369
2373.000000	0.004340
2372.000000	0.004335
2371.000000	0.004348
2370.000000	0.004368
2369.000000	0.004396
2368.000000	0.004435
2367.000000	0.004475
2366.000000	0.004501
2365.000000	0.004517
2364.000000	0.004533
2363.000000	0.004551
2362.000000	0.004560
2361.000000	0.004555
2360.000000	0.004531
2359.000000	0.004477
2358.000000	0.004394
2357.000000	0.004320
2356.000000	0.004306
2355.000000	0.004372
2354.000000	0.004469
2353.000000	0.004526
2352.000000	0.004516
2351.000000	0.004472
2350.000000	0.004450
2349.000000	0.004475
2348.000000	0.004535
2347.000000	0.004584
2346.000000	0.004583
2345.000000	0.004543
2344.000000	0.004508
2343.000000	0.004513
2342.000000	0.004540
2341.000000	0.004561
2340.000000	0.004569
2339.000000	0.004577
2338.000000	0.004585
2337.000000	0.004585
2336.000000	0.004575
2335.000000	0.004569
2334.000000	0.004573
2333.000000	0.004571
2332.000000	0.004543
2331.000000	0.004497
2330.000000	0.004470
2329.000000	0.004493
2328.000000	0.004569
2327.000000	0.004673
2326.000000	0.004768
2325.000000	0.004821
2324.000000	0.004814
2323.000000	0.004765
2322.000000	0.004711
2321.000000	0.004687
2320.000000	0.004687
2319.000000	0.004684
2318.000000	0.004658
2317.000000	0.004612
2316.000000	0.004560
2315.000000	0.004511
2314.000000	0.004473
2313.000000	0.004452
2312.000000	0.004449
2311.000000	0.004453
2310.000000	0.004454
2309.000000	0.004437
2308.000000	0.004396
2307.000000	0.004335
2306.000000	0.004276
2305.000000	0.004249
2304.000000	0.004262
2303.000000	0.004299
2302.000000	0.004331
2301.000000	0.004345
2300.000000	0.004348
2299.000000	0.004350
2298.000000	0.004355
2297.000000	0.004360
2296.000000	0.004361
2295.000000	0.004362
2294.000000	0.004373
2293.000000	0.004396
2292.000000	0.004424
2291.000000	0.004447
2290.000000	0.004464
2289.000000	0.004484
2288.000000	0.004515
2287.000000	0.004552
2286.000000	0.004574
2285.000000	0.004561
2284.000000	0.004514
2283.000000	0.004455
2282.000000	0.004411
2281.000000	0.004390
2280.000000	0.004376
2279.000000	0.004358
2278.000000	0.004339
2277.000000	0.004332
2276.000000	0.004331
2275.000000	0.004324
2274.000000	0.004308
2273.000000	0.004298
2272.000000	0.004298
2271.000000	0.004294
2270.000000	0.004264
2269.000000	0.004197
2268.000000	0.004111
2267.000000	0.004043
2266.000000	0.004027
2265.000000	0.004060
2264.000000	0.004102
2263.000000	0.004116
2262.000000	0.004099
2261.000000	0.004070
2260.000000	0.004042
2259.000000	0.004013
2258.000000	0.003984
2257.000000	0.003961
2256.000000	0.003937
2255.000000	0.003909
2254.000000	0.003885
2253.000000	0.003876
2252.000000	0.003881
2251.000000	0.003892
2250.000000	0.003922
2249.000000	0.003980
2248.000000	0.004049
2247.000000	0.004095
2246.000000	0.004105
2245.000000	0.004094
2244.000000	0.004067
2243.000000	0.004024
2242.000000	0.003992
2241.000000	0.004020
2240.000000	0.004135
2239.000000	0.004304
2238.000000	0.004460
2237.000000	0.004544
2236.000000	0.004525
2235.000000	0.004408
2234.000000	0.004245
2233.000000	0.004111
2232.000000	0.004048
2231.000000	0.004046
2230.000000	0.004064
2229.000000	0.004063
2228.000000	0.004019
2227.000000	0.003933
2226.000000	0.003842
2225.000000	0.003790
2224.000000	0.003788
2223.000000	0.003805
2222.000000	0.003810
2221.000000	0.003799
2220.000000	0.003786
2219.000000	0.003792
2218.000000	0.003842
2217.000000	0.003936
2216.000000	0.004012
2215.000000	0.003987
2214.000000	0.003846
2213.000000	0.003664
2212.000000	0.003533
2211.000000	0.003482
2210.000000	0.003488
2209.000000	0.003529
2208.000000	0.003598
2207.000000	0.003681
2206.000000	0.003751
2205.000000	0.003778
2204.000000	0.003758
2203.000000	0.003714
2202.000000	0.003677
2201.000000	0.003639
2200.000000	0.003560
2199.000000	0.003423
2198.000000	0.003296
2197.000000	0.003283
2196.000000	0.003414
2195.000000	0.003614
2194.000000	0.003781
2193.000000	0.003855
2192.000000	0.003818
2191.000000	0.003684
2190.000000	0.003521
2189.000000	0.003435
2188.000000	0.003484
2187.000000	0.003619
2186.000000	0.003732
2185.000000	0.003763
2184.000000	0.003728
2183.000000	0.003683
2182.000000	0.003667
2181.000000	0.003673
2180.000000	0.003664
2179.000000	0.003623
2178.000000	0.003592
2177.000000	0.003619
2176.000000	0.003679
2175.000000	0.003696
2174.000000	0.003635
2173.000000	0.003550
2172.000000	0.003516
2171.000000	0.003548
2170.000000	0.003616
2169.000000	0.003673
2168.000000	0.003668
2167.000000	0.003572
2166.000000	0.003428
2165.000000	0.003348
2164.000000	0.003396
2163.000000	0.003502
2162.000000	0.003517
2161.000000	0.003357
2160.000000	0.003072
2159.000000	0.002808
2158.000000	0.002683
2157.000000	0.002686
2156.000000	0.002703
2155.000000	0.002650
2154.000000	0.002581
2153.000000	0.002623
2152.000000	0.002822
2151.000000	0.003083
2150.000000	0.003274
2149.000000	0.003352
2148.000000	0.003383
2147.000000	0.003451
2146.000000	0.003580
2145.000000	0.003723
2144.000000	0.003805
2143.000000	0.003785
2142.000000	0.003695
2141.000000	0.003616
2140.000000	0.003596
2139.000000	0.003616
2138.000000	0.003633
2137.000000	0.003628
2136.000000	0.003609
2135.000000	0.003573
2134.000000	0.003505
2133.000000	0.003407
2132.000000	0.003317
2131.000000	0.003272
2130.000000	0.003278
2129.000000	0.003321
2128.000000	0.003390
2127.000000	0.003483
2126.000000	0.003597
2125.000000	0.003713
2124.000000	0.003805
2123.000000	0.003855
2122.000000	0.003862
2121.000000	0.003833
2120.000000	0.003785
2119.000000	0.003749
2118.000000	0.003751
2117.000000	0.003785
2116.000000	0.003809
2115.000000	0.003787
2114.000000	0.003731
2113.000000	0.003694
2112.000000	0.003722
2111.000000	0.003809
2110.000000	0.003906
2109.000000	0.003958
2108.000000	0.003947
2107.000000	0.003902
2106.000000	0.003870
2105.000000	0.003858
2104.000000	0.003830
2103.000000	0.003762
2102.000000	0.003679
2101.000000	0.003630
2100.000000	0.003632
2099.000000	0.003660
2098.000000	0.003692
2097.000000	0.003731
2096.000000	0.003780
2095.000000	0.003826
2094.000000	0.003843
2093.000000	0.003820
2092.000000	0.003776
2091.000000	0.003754
2090.000000	0.003793
2089.000000	0.003887
2088.000000	0.003973
2087.000000	0.003997
2086.000000	0.003967
2085.000000	0.003948
2084.000000	0.003976
2083.000000	0.004024
2082.000000	0.004041
2081.000000	0.004011
2080.000000	0.003962
2079.000000	0.003920
2078.000000	0.003884
2077.000000	0.003835
2076.000000	0.003757
2075.000000	0.003652
2074.000000	0.003529
2073.000000	0.003397
2072.000000	0.003275
2071.000000	0.003211
2070.000000	0.003250
2069.000000	0.003380
2068.000000	0.003518
2067.000000	0.003600
2066.000000	0.003651
2065.000000	0.003750
2064.000000	0.003907
2063.000000	0.004026
2062.000000	0.003997
2061.000000	0.003809
2060.000000	0.003551
2059.000000	0.003341
2058.000000	0.003239
2057.000000	0.003235
2056.000000	0.003275
2055.000000	0.003323
2054.000000	0.003380
2053.000000	0.003462
2052.000000	0.003566
2051.000000	0.003660
2050.000000	0.003706
2049.000000	0.003669
2048.000000	0.003543
2047.000000	0.003385
2046.000000	0.003271
2045.000000	0.003228
2044.000000	0.003210
2043.000000	0.003181
2042.000000	0.003180
2041.000000	0.003244
2040.000000	0.003316
2039.000000	0.003298
2038.000000	0.003187
2037.000000	0.003065
2036.000000	0.002975
2035.000000	0.002858
2034.000000	0.002675
2033.000000	0.002497
2032.000000	0.002443
2031.000000	0.002545
2030.000000	0.002731
2029.000000	0.002900
2028.000000	0.002983
2027.000000	0.002972
2026.000000	0.002906
2025.000000	0.002827
2024.000000	0.002756
2023.000000	0.002718
2022.000000	0.002739
2021.000000	0.002814
2020.000000	0.002901
2019.000000	0.002972
2018.000000	0.003032
2017.000000	0.003068
2016.000000	0.003028
2015.000000	0.002906
2014.000000	0.002767
2013.000000	0.002646
2012.000000	0.002484
2011.000000	0.002231
2010.000000	0.001978
2009.000000	0.001883
2008.000000	0.001978
2007.000000	0.002154
2006.000000	0.002314
2005.000000	0.002454
2004.000000	0.002585
2003.000000	0.002686
2002.000000	0.002749
2001.000000	0.002790
2000.000000	0.002814
1999.000000	0.002808
1998.000000	0.002787
1997.000000	0.002787
1996.000000	0.002804
1995.000000	0.002795
1994.000000	0.002751
1993.000000	0.002733
1992.000000	0.002792
1991.000000	0.002898
1990.000000	0.002974
1989.000000	0.002979
1988.000000	0.002938
1987.000000	0.002909
1986.000000	0.002945
1985.000000	0.003053
1984.000000	0.003211
1983.000000	0.003394
1982.000000	0.003575
1981.000000	0.003681
1980.000000	0.003604
1979.000000	0.003323
1978.000000	0.002967
1977.000000	0.002715
1976.000000	0.002627
1975.000000	0.002657
1974.000000	0.002776
1973.000000	0.002975
1972.000000	0.003193
1971.000000	0.003357
1970.000000	0.003475
1969.000000	0.003589
1968.000000	0.003662
1967.000000	0.003608
1966.000000	0.003437
1965.000000	0.003255
1964.000000	0.003124
1963.000000	0.003012
1962.000000	0.002891
1961.000000	0.002805
1960.000000	0.002807
1959.000000	0.002878
1958.000000	0.002962
1957.000000	0.003034
1956.000000	0.003101
1955.000000	0.003173
1954.000000	0.003243
1953.000000	0.003280
1952.000000	0.003254
1951.000000	0.003182
1950.000000	0.003137
1949.000000	0.003176
1948.000000	0.003264
1947.000000	0.003322
1946.000000	0.003326
1945.000000	0.003318
1944.000000	0.003323
1943.000000	0.003301
1942.000000	0.003215
1941.000000	0.003100
1940.000000	0.003041
1939.000000	0.003094
1938.000000	0.003246
1937.000000	0.003419
1936.000000	0.003524
1935.000000	0.003532
1934.000000	0.003506
1933.000000	0.003523
1932.000000	0.003582
1931.000000	0.003608
1930.000000	0.003550
1929.000000	0.003439
1928.000000	0.003354
1927.000000	0.003335
1926.000000	0.003363
1925.000000	0.003391
1924.000000	0.003391
1923.000000	0.003381
1922.000000	0.003407
1921.000000	0.003481
1920.000000	0.003557
1919.000000	0.003578
1918.000000	0.003541
1917.000000	0.003494
1916.000000	0.003480
1915.000000	0.003499
1914.000000	0.003532
1913.000000	0.003571
1912.000000	0.003614
1911.000000	0.003662
1910.000000	0.003709
1909.000000	0.003744
1908.000000	0.003755
1907.000000	0.003738
1906.000000	0.003704
1905.000000	0.003659
1904.000000	0.003601
1903.000000	0.003536
1902.000000	0.003495
1901.000000	0.003502
1900.000000	0.003545
1899.000000	0.003591
1898.000000	0.003623
1897.000000	0.003636
1896.000000	0.003623
1895.000000	0.003585
1894.000000	0.003545
1893.000000	0.003527
1892.000000	0.003528
1891.000000	0.003530
1890.000000	0.003535
1889.000000	0.003564
1888.000000	0.003624
1887.000000	0.003696
1886.000000	0.003749
1885.000000	0.003765
1884.000000	0.003742
1883.000000	0.003693
1882.000000	0.003640
1881.000000	0.003597
1880.000000	0.003572
1879.000000	0.003573
1878.000000	0.003594
1877.000000	0.003607
1876.000000	0.003573
1875.000000	0.003491
1874.000000	0.003413
1873.000000	0.003388
1872.000000	0.003409
1871.000000	0.003441
1870.000000	0.003479
1869.000000	0.003538
1868.000000	0.003597
1867.000000	0.003625
1866.000000	0.003630
1865.000000	0.003633
1864.000000	0.003633
1863.000000	0.003623
1862.000000	0.003609
1861.000000	0.003605
1860.000000	0.003600
1859.000000	0.003561
1858.000000	0.003486
1857.000000	0.003419
1856.000000	0.003408
1855.000000	0.003470
1854.000000	0.003585
1853.000000	0.003705
1852.000000	0.003783
1851.000000	0.003794
1850.000000	0.003735
1849.000000	0.003635
1848.000000	0.003537
1847.000000	0.003478
1846.000000	0.003478
1845.000000	0.003539
1844.000000	0.003619
1843.000000	0.003661
1842.000000	0.003670
1841.000000	0.003679
1840.000000	0.003684
1839.000000	0.003667
1838.000000	0.003650
1837.000000	0.003669
1836.000000	0.003719
1835.000000	0.003749
1834.000000	0.003725
1833.000000	0.003647
1832.000000	0.003540
1831.000000	0.003441
1830.000000	0.003384
1829.000000	0.003380
1828.000000	0.003419
1827.000000	0.003483
1826.000000	0.003562
1825.000000	0.003653
1824.000000	0.003737
1823.000000	0.003792
1822.000000	0.003817
1821.000000	0.003834
1820.000000	0.003853
1819.000000	0.003864
1818.000000	0.003851
1817.000000	0.003813
1816.000000	0.003764
1815.000000	0.003722
1814.000000	0.003700
1813.000000	0.003706
1812.000000	0.003739
1811.000000	0.003789
1810.000000	0.003843
1809.000000	0.003888
1808.000000	0.003914
1807.000000	0.003921
1806.000000	0.003926
1805.000000	0.003942
1804.000000	0.003965
1803.000000	0.003972
1802.000000	0.003947
1801.000000	0.003900
1800.000000	0.003864
1799.000000	0.003864
1798.000000	0.003891
1797.000000	0.003906
1796.000000	0.003878
1795.000000	0.003814
1794.000000	0.003743
1793.000000	0.003713
1792.000000	0.003729
1791.000000	0.003762
1790.000000	0.003809
1789.000000	0.003886
1788.000000	0.003982
1787.000000	0.004066
1786.000000	0.004111
1785.000000	0.004102
1784.000000	0.004050
1783.000000	0.004000
1782.000000	0.003993
1781.000000	0.004026
1780.000000	0.004067
1779.000000	0.004080
1778.000000	0.004074
1777.000000	0.004069
1776.000000	0.004067
1775.000000	0.004041
1774.000000	0.003962
1773.000000	0.003885
1772.000000	0.003894
1771.000000	0.004011
1770.000000	0.004210
1769.000000	0.004408
1768.000000	0.004476
1767.000000	0.004377
1766.000000	0.004206
1765.000000	0.004070
1764.000000	0.003971
1763.000000	0.003855
1762.000000	0.003703
1761.000000	0.003543
1760.000000	0.003407
1759.000000	0.003294
1758.000000	0.003179
1757.000000	0.003028
1756.000000	0.002853
1755.000000	0.002710
1754.000000	0.002632
1753.000000	0.002559
1752.000000	0.002391
1751.000000	0.002109
1750.000000	0.001830
1749.000000	0.001691
1748.000000	0.001708
1747.000000	0.001812
1746.000000	0.001966
1745.000000	0.002178
1744.000000	0.002430
1743.000000	0.002663
1742.000000	0.002890
1741.000000	0.003211
1740.000000	0.003660
1739.000000	0.004125
1738.000000	0.004533
1737.000000	0.004925
1736.000000	0.005291
1735.000000	0.005582
1734.000000	0.005774
1733.000000	0.005861
1732.000000	0.005920
1731.000000	0.006024
1730.000000	0.006155
1729.000000	0.006274
1728.000000	0.006368
1727.000000	0.006437
1726.000000	0.006491
1725.000000	0.006562
1724.000000	0.006650
1723.000000	0.006694
1722.000000	0.006682
1721.000000	0.006685
1720.000000	0.006763
1719.000000	0.006917
1718.000000	0.007121
1717.000000	0.007301
1716.000000	0.007407
1715.000000	0.007474
1714.000000	0.007548
1713.000000	0.007651
1712.000000	0.007776
1711.000000	0.007882
1710.000000	0.007934
1709.000000	0.007939
1708.000000	0.007956
1707.000000	0.008059
1706.000000	0.008282
1705.000000	0.008584
1704.000000	0.008907
1703.000000	0.009220
1702.000000	0.009486
1701.000000	0.009852
1700.000000	0.010442
1699.000000	0.011086
1698.000000	0.011746
1697.000000	0.012488
1696.000000	0.013200
1695.000000	0.013719
1694.000000	0.014062
1693.000000	0.014432
1692.000000	0.014922
1691.000000	0.015473
1690.000000	0.016032
1689.000000	0.016588
1688.000000	0.017149
1687.000000	0.017665
1686.000000	0.018091
1685.000000	0.018623
1684.000000	0.019378
1683.000000	0.020118
1682.000000	0.020795
1681.000000	0.021518
1680.000000	0.022223
1679.000000	0.022831
1678.000000	0.023371
1677.000000	0.023968
1676.000000	0.024708
1675.000000	0.025512
1674.000000	0.026210
1673.000000	0.026804
1672.000000	0.027406
1671.000000	0.028087
1670.000000	0.028903
1669.000000	0.029812
1668.000000	0.030663
1667.000000	0.031353
1666.000000	0.031914
1665.000000	0.032443
1664.000000	0.033025
1663.000000	0.033678
1662.000000	0.034344
1661.000000	0.034985
1660.000000	0.035592
1659.000000	0.036110
1658.000000	0.036516
1657.000000	0.036897
1656.000000	0.037321
1655.000000	0.037676
1654.000000	0.038021
1653.000000	0.038497
1652.000000	0.038839
1651.000000	0.038961
1650.000000	0.039113
1649.000000	0.039383
1648.000000	0.039740
1647.000000	0.040092
1646.000000	0.040370
1645.000000	0.040585
1644.000000	0.040797
1643.000000	0.041020
1642.000000	0.041211
1641.000000	0.041321
1640.000000	0.041371
1639.000000	0.041411
1638.000000	0.041436
1637.000000	0.041418
1636.000000	0.041376
1635.000000	0.041336
1634.000000	0.041337
1633.000000	0.041422
1632.000000	0.041530
1631.000000	0.041546
1630.000000	0.041402
1629.000000	0.041140
1628.000000	0.040835
1627.000000	0.040530
1626.000000	0.040219
1625.000000	0.039871
1624.000000	0.039451
1623.000000	0.038956
1622.000000	0.038443
1621.000000	0.038008
1620.000000	0.037675
1619.000000	0.037327
1618.000000	0.036789
1617.000000	0.036012
1616.000000	0.035145
1615.000000	0.034376
1614.000000	0.033759
1613.000000	0.033203
1612.000000	0.032588
1611.000000	0.031894
1610.000000	0.031190
1609.000000	0.030536
1608.000000	0.029935
1607.000000	0.029376
1606.000000	0.028854
1605.000000	0.028354
1604.000000	0.027874
1603.000000	0.027426
1602.000000	0.027025
1601.000000	0.026673
1600.000000	0.026359
1599.000000	0.026084
1598.000000	0.025852
1597.000000	0.025659
1596.000000	0.025501
1595.000000	0.025381
1594.000000	0.025295
1593.000000	0.025220
1592.000000	0.025131
1591.000000	0.025020
1590.000000	0.024891
1589.000000	0.024748
1588.000000	0.024611
1587.000000	0.024509
1586.000000	0.024458
1585.000000	0.024437
1584.000000	0.024425
1583.000000	0.024432
1582.000000	0.024465
1581.000000	0.024526
1580.000000	0.024644
1579.000000	0.024849
1578.000000	0.025114
1577.000000	0.025402
1576.000000	0.025665
1575.000000	0.025839
1574.000000	0.025957
1573.000000	0.026090
1572.000000	0.026227
1571.000000	0.026380
1570.000000	0.026659
1569.000000	0.027071
1568.000000	0.027510
1567.000000	0.027929
1566.000000	0.028352
1565.000000	0.028788
1564.000000	0.029233
1563.000000	0.029678
1562.000000	0.030050
1561.000000	0.030155
1560.000000	0.030151
1559.000000	0.030454
1558.000000	0.030938
1557.000000	0.031450
1556.000000	0.032028
1555.000000	0.032577
1554.000000	0.033018
1553.000000	0.033354
1552.000000	0.033679
1551.000000	0.034007
1550.000000	0.034287
1549.000000	0.034495
1548.000000	0.034672
1547.000000	0.034856
1546.000000	0.035023
1545.000000	0.035130
1544.000000	0.035166
1543.000000	0.035166
1542.000000	0.035190
1541.000000	0.035312
1540.000000	0.035500
1539.000000	0.035605
1538.000000	0.035600
1537.000000	0.035589
1536.000000	0.035602
1535.000000	0.035587
1534.000000	0.035527
1533.000000	0.035467
1532.000000	0.035443
1531.000000	0.035447
1530.000000	0.035440
1529.000000	0.035402
1528.000000	0.035317
1527.000000	0.035154
1526.000000	0.034900
1525.000000	0.034618
1524.000000	0.034401
1523.000000	0.034258
1522.000000	0.034113
1521.000000	0.033884
1520.000000	0.033609
1519.000000	0.033422
1518.000000	0.033381
1517.000000	0.033402
1516.000000	0.033362
1515.000000	0.033243
1514.000000	0.033073
1513.000000	0.032817
1512.000000	0.032445
1511.000000	0.032012
1510.000000	0.031614
1509.000000	0.031250
1508.000000	0.030868
1507.000000	0.030475
1506.000000	0.030085
1505.000000	0.029691
1504.000000	0.029311
1503.000000	0.028934
1502.000000	0.028479
1501.000000	0.027872
1500.000000	0.027146
1499.000000	0.026398
1498.000000	0.025664
1497.000000	0.024911
1496.000000	0.024119
1495.000000	0.023351
1494.000000	0.022692
1493.000000	0.022165
1492.000000	0.021713
1491.000000	0.021272
1490.000000	0.020828
1489.000000	0.020418
1488.000000	0.020093
1487.000000	0.019844
1486.000000	0.019634
1485.000000	0.019437
1484.000000	0.019269
1483.000000	0.019159
1482.000000	0.019116
1481.000000	0.019143
1480.000000	0.019215
1479.000000	0.019304
1478.000000	0.019394
1477.000000	0.019494
1476.000000	0.019604
1475.000000	0.019699
1474.000000	0.019761
1473.000000	0.019800
1472.000000	0.019811
1471.000000	0.019782
1470.000000	0.019756
1469.000000	0.019772
1468.000000	0.019826
1467.000000	0.019899
1466.000000	0.020012
1465.000000	0.020199
1464.000000	0.020440
1463.000000	0.020658
1462.000000	0.020824
1461.000000	0.020975
1460.000000	0.021173
1459.000000	0.021460
1458.000000	0.021876
1457.000000	0.022378
1456.000000	0.022761
1455.000000	0.022975
1454.000000	0.023161
1453.000000	0.023372
1452.000000	0.023551
1451.000000	0.023653
1450.000000	0.023709
1449.000000	0.023756
1448.000000	0.023783
1447.000000	0.023783
1446.000000	0.023781
1445.000000	0.023787
1444.000000	0.023787
1443.000000	0.023741
1442.000000	0.023638
1441.000000	0.023516
1440.000000	0.023433
1439.000000	0.023387
1438.000000	0.023323
1437.000000	0.023195
1436.000000	0.022979
1435.000000	0.022717
1434.000000	0.022482
1433.000000	0.022271
1432.000000	0.022036
1431.000000	0.021771
1430.000000	0.021528
1429.000000	0.021350
1428.000000	0.021232
1427.000000	0.021157
1426.000000	0.021111
1425.000000	0.021069
1424.000000	0.021021
1423.000000	0.020987
1422.000000	0.020995
1421.000000	0.021024
1420.000000	0.021054
1419.000000	0.021088
1418.000000	0.021120
1417.000000	0.021157
1416.000000	0.021213
1415.000000	0.021284
1414.000000	0.021376
1413.000000	0.021511
1412.000000	0.021688
1411.000000	0.021873
1410.000000	0.022037
1409.000000	0.022189
1408.000000	0.022335
1407.000000	0.022478
1406.000000	0.022628
1405.000000	0.022779
1404.000000	0.022898
1403.000000	0.022960
1402.000000	0.022985
1401.000000	0.023003
1400.000000	0.023009
1399.000000	0.022980
1398.000000	0.022925
1397.000000	0.022880
1396.000000	0.022840
1395.000000	0.022771
1394.000000	0.022666
1393.000000	0.022559
1392.000000	0.022475
1391.000000	0.022414
1390.000000	0.022367
1389.000000	0.022321
1388.000000	0.022254
1387.000000	0.022140
1386.000000	0.021983
1385.000000	0.021810
1384.000000	0.021627
1383.000000	0.021415
1382.000000	0.021188
1381.000000	0.020985
1380.000000	0.020818
1379.000000	0.020658
1378.000000	0.020493
1377.000000	0.020339
1376.000000	0.020210
1375.000000	0.020091
1374.000000	0.019963
1373.000000	0.019838
1372.000000	0.019741
1371.000000	0.019674
1370.000000	0.019618
1369.000000	0.019552
1368.000000	0.019469
1367.000000	0.019379
1366.000000	0.019298
1365.000000	0.019227
1364.000000	0.019140
1363.000000	0.018991
1362.000000	0.018766
1361.000000	0.018503
1360.000000	0.018252
1359.000000	0.018029
1358.000000	0.017828
1357.000000	0.017642
1356.000000	0.017470
1355.000000	0.017319
1354.000000	0.017204
1353.000000	0.017139
1352.000000	0.017125
1351.000000	0.017141
1350.000000	0.017164
1349.000000	0.017187
1348.000000	0.017221
1347.000000	0.017279
1346.000000	0.017363
1345.000000	0.017468
1344.000000	0.017596
1343.000000	0.017752
1342.000000	0.017936
1341.000000	0.018130
1340.000000	0.018294
1339.000000	0.018390
1338.000000	0.018411
1337.000000	0.018379
1336.000000	0.018319
1335.000000	0.018244
1334.000000	0.018155
1333.000000	0.018043
1332.000000	0.017896
1331.000000	0.017715
1330.000000	0.017522
1329.000000	0.017347
1328.000000	0.017200
1327.000000	0.017077
1326.000000	0.016979
1325.000000	0.016914
1324.000000	0.016889
1323.000000	0.016897
1322.000000	0.016935
1321.000000	0.017000
1320.000000	0.017079
1319.000000	0.017148
1318.000000	0.017200
1317.000000	0.017250
1316.000000	0.017318
1315.000000	0.017397
1314.000000	0.017461
1313.000000	0.017480
1312.000000	0.017437
1311.000000	0.017334
1310.000000	0.017201
1309.000000	0.017074
1308.000000	0.016968
1307.000000	0.016861
1306.000000	0.016728
1305.000000	0.016566
1304.000000	0.016394
1303.000000	0.016228
1302.000000	0.016070
1301.000000	0.015923
1300.000000	0.015791
1299.000000	0.015681
1298.000000	0.015592
1297.000000	0.015529
1296.000000	0.015509
1295.000000	0.015544
1294.000000	0.015632
1293.000000	0.015753
1292.000000	0.015887
1291.000000	0.016027
1290.000000	0.016178
1289.000000	0.016338
1288.000000	0.016494
1287.000000	0.016637
1286.000000	0.016777
1285.000000	0.016939
1284.000000	0.017136
1283.000000	0.017360
1282.000000	0.017588
1281.000000	0.017805
1280.000000	0.017999
1279.000000	0.018159
1278.000000	0.018281
1277.000000	0.018370
1276.000000	0.018432
1275.000000	0.018473
1274.000000	0.018495
1273.000000	0.018512
1272.000000	0.018529
1271.000000	0.018545
1270.000000	0.018550
1269.000000	0.018541
1268.000000	0.018517
1267.000000	0.018478
1266.000000	0.018432
1265.000000	0.018399
1264.000000	0.018399
1263.000000	0.018436
1262.000000	0.018503
1261.000000	0.018593
1260.000000	0.018712
1259.000000	0.018882
1258.000000	0.019121
1257.000000	0.019421
1256.000000	0.019742
1255.000000	0.020037
1254.000000	0.020285
1253.000000	0.020501
1252.000000	0.020709
1251.000000	0.020930
1250.000000	0.021174
1249.000000	0.021443
1248.000000	0.021725
1247.000000	0.022002
1246.000000	0.022276
1245.000000	0.022569
1244.000000	0.022892
1243.000000	0.023242
1242.000000	0.023611
1241.000000	0.023992
1240.000000	0.024368
1239.000000	0.024712
1238.000000	0.025009
1237.000000	0.025266
1236.000000	0.025484
1235.000000	0.025645
1234.000000	0.025734
1233.000000	0.025757
1232.000000	0.025724
1231.000000	0.025632
1230.000000	0.025472
1229.000000	0.025235
1228.000000	0.024916
1227.000000	0.024523
1226.000000	0.024071
1225.000000	0.023581
1224.000000	0.023053
1223.000000	0.022481
1222.000000	0.021871
1221.000000	0.021247
1220.000000	0.020640
1219.000000	0.020078
1218.000000	0.019583
1217.000000	0.019166
1216.000000	0.018821
1215.000000	0.018529
1214.000000	0.018275
1213.000000	0.018053
1212.000000	0.017859
1211.000000	0.017695
1210.000000	0.017567
1209.000000	0.017474
1208.000000	0.017389
1207.000000	0.017279
1206.000000	0.017132
1205.000000	0.016963
1204.000000	0.016791
1203.000000	0.016613
1202.000000	0.016419
1201.000000	0.016196
1200.000000	0.015941
1199.000000	0.015646
1198.000000	0.015307
1197.000000	0.014931
1196.000000	0.014537
1195.000000	0.014144
1194.000000	0.013772
1193.000000	0.013433
1192.000000	0.013128
1191.000000	0.012853
1190.000000	0.012605
1189.000000	0.012383
1188.000000	0.012186
1187.000000	0.012025
1186.000000	0.011928
1185.000000	0.011925
1184.000000	0.012017
1183.000000	0.012163
1182.000000	0.012313
1181.000000	0.012449
1180.000000	0.012583
1179.000000	0.012726
1178.000000	0.012870
1177.000000	0.012996
1176.000000	0.013092
1175.000000	0.013159
1174.000000	0.013205
1173.000000	0.013243
1172.000000	0.013284
1171.000000	0.013332
1170.000000	0.013382
1169.000000	0.013422
1168.000000	0.013440
1167.000000	0.013433
1166.000000	0.013412
1165.000000	0.013401
1164.000000	0.013414
1163.000000	0.013442
1162.000000	0.013462
1161.000000	0.013451
1160.000000	0.013398
1159.000000	0.013309
1158.000000	0.013211
1157.000000	0.013131
1156.000000	0.013065
1155.000000	0.012981
1154.000000	0.012849
1153.000000	0.012679
1152.000000	0.012512
1151.000000	0.012375
1150.000000	0.012262
1149.000000	0.012144
1148.000000	0.012003
1147.000000	0.011845
1146.000000	0.011685
1145.000000	0.011537
1144.000000	0.011409
1143.000000	0.011303
1142.000000	0.011219
1141.000000	0.011143
1140.000000	0.011058
1139.000000	0.010954
1138.000000	0.010841
1137.000000	0.010744
1136.000000	0.010677
1135.000000	0.010631
1134.000000	0.010593
1133.000000	0.010562
1132.000000	0.010546
1131.000000	0.010543
1130.000000	0.010537
1129.000000	0.010519
1128.000000	0.010497
1127.000000	0.010494
1126.000000	0.010513
1125.000000	0.010539
1124.000000	0.010553
1123.000000	0.010551
1122.000000	0.010552
1121.000000	0.010576
1120.000000	0.010623
1119.000000	0.010681
1118.000000	0.010747
1117.000000	0.010835
1116.000000	0.010953
1115.000000	0.011085
1114.000000	0.011205
1113.000000	0.011303
1112.000000	0.011394
1111.000000	0.011493
1110.000000	0.011602
1109.000000	0.011712
1108.000000	0.011816
1107.000000	0.011917
1106.000000	0.012022
1105.000000	0.012142
1104.000000	0.012285
1103.000000	0.012440
1102.000000	0.012579
1101.000000	0.012678
1100.000000	0.012741
1099.000000	0.012800
1098.000000	0.012879
1097.000000	0.012980
1096.000000	0.013090
1095.000000	0.013201
1094.000000	0.013321
1093.000000	0.013468
1092.000000	0.013646
1091.000000	0.013848
1090.000000	0.014062
1089.000000	0.014285
1088.000000	0.014533
1087.000000	0.014835
1086.000000	0.015204
1085.000000	0.015608
1084.000000	0.015976
1083.000000	0.016239
1082.000000	0.016373
1081.000000	0.016387
1080.000000	0.016287
1079.000000	0.016081
1078.000000	0.015795
1077.000000	0.015474
1076.000000	0.015145
1075.000000	0.014815
1074.000000	0.014496
1073.000000	0.014220
1072.000000	0.014022
1071.000000	0.013911
1070.000000	0.013869
1069.000000	0.013873
1068.000000	0.013903
1067.000000	0.013949
1066.000000	0.014011
1065.000000	0.014097
1064.000000	0.014216
1063.000000	0.014365
1062.000000	0.014528
1061.000000	0.014691
1060.000000	0.014845
1059.000000	0.014987
1058.000000	0.015113
1057.000000	0.015214
1056.000000	0.015284
1055.000000	0.015331
1054.000000	0.015368
1053.000000	0.015400
1052.000000	0.015418
1051.000000	0.015413
1050.000000	0.015397
1049.000000	0.015389
1048.000000	0.015393
1047.000000	0.015399
1046.000000	0.015397
1045.000000	0.015385
1044.000000	0.015362
1043.000000	0.015322
1042.000000	0.015275
1041.000000	0.015243
1040.000000	0.015247
1039.000000	0.015305
1038.000000	0.015431
1037.000000	0.015623
1036.000000	0.015854
1035.000000	0.016082
1034.000000	0.016278
1033.000000	0.016439
1032.000000	0.016572
1031.000000	0.016673
1030.000000	0.016743
1029.000000	0.016791
1028.000000	0.016827
1027.000000	0.016851
1026.000000	0.016858
1025.000000	0.016853
1024.000000	0.016842
1023.000000	0.016832
1022.000000	0.016835
1021.000000	0.016874
1020.000000	0.016970
1019.000000	0.017115
1018.000000	0.017270
1017.000000	0.017382
1016.000000	0.017407
1015.000000	0.017325
1014.000000	0.017130
1013.000000	0.016828
1012.000000	0.016432
1011.000000	0.015970
1010.000000	0.015480
1009.000000	0.014991
1008.000000	0.014514
1007.000000	0.014052
1006.000000	0.013619
1005.000000	0.013229
1004.000000	0.012880
1003.000000	0.012550
1002.000000	0.012216
1001.000000	0.011868
1000.000000	0.011515
999.000000	0.011185
998.000000	0.010897
997.000000	0.010650
996.000000	0.010422
995.000000	0.010198
994.000000	0.009978
993.000000	0.009760
992.000000	0.009531
991.000000	0.009285
990.000000	0.009041
989.000000	0.008829
988.000000	0.008651
987.000000	0.008485
986.000000	0.008309
985.000000	0.008127
984.000000	0.007956
983.000000	0.007808
982.000000	0.007685
981.000000	0.007576
980.000000	0.007469
979.000000	0.007358
978.000000	0.007251
977.000000	0.007153
976.000000	0.007054
975.000000	0.006938
974.000000	0.006808
973.000000	0.006688
972.000000	0.006590
971.000000	0.006502
970.000000	0.006403
969.000000	0.006286
968.000000	0.006162
967.000000	0.006048
966.000000	0.005956
965.000000	0.005895
964.000000	0.005855
963.000000	0.005822
962.000000	0.005788
961.000000	0.005762
960.000000	0.005756
959.000000	0.005764
958.000000	0.005774
957.000000	0.005784
956.000000	0.005795
955.000000	0.005803
954.000000	0.005793
953.000000	0.005757
952.000000	0.005693
951.000000	0.005605
950.000000	0.005495
949.000000	0.005370
948.000000	0.005237
947.000000	0.005098
946.000000	0.004956
945.000000	0.004815
944.000000	0.004687
943.000000	0.004589
942.000000	0.004538
941.000000	0.004538
940.000000	0.004568
939.000000	0.004594
938.000000	0.004600
937.000000	0.004596
936.000000	0.004594
935.000000	0.004584
934.000000	0.004546
933.000000	0.004478
932.000000	0.004398
931.000000	0.004324
930.000000	0.004268
929.000000	0.004229
928.000000	0.004193
927.000000	0.004132
926.000000	0.004018
925.000000	0.003855
924.000000	0.003673
923.000000	0.003499
922.000000	0.003338
921.000000	0.003186
920.000000	0.003050
919.000000	0.002951
918.000000	0.002890
917.000000	0.002844
916.000000	0.002776
915.000000	0.002672
914.000000	0.002545
913.000000	0.002427
912.000000	0.002342
911.000000	0.002290
910.000000	0.002262
909.000000	0.002245
908.000000	0.002230
907.000000	0.002209
906.000000	0.002180
905.000000	0.002145
904.000000	0.002110
903.000000	0.002080
902.000000	0.002057
901.000000	0.002045
900.000000	0.002046
899.000000	0.002060
898.000000	0.002081
897.000000	0.002098
896.000000	0.002092
895.000000	0.002052
894.000000	0.001990
893.000000	0.001947
892.000000	0.001957
891.000000	0.002014
890.000000	0.002072
889.000000	0.002094
888.000000	0.002078
887.000000	0.002044
886.000000	0.002011
885.000000	0.001994
884.000000	0.002006
883.000000	0.002058
882.000000	0.002140
881.000000	0.002229
880.000000	0.002311
879.000000	0.002386
878.000000	0.002466
877.000000	0.002543
876.000000	0.002606
875.000000	0.002649
874.000000	0.002677
873.000000	0.002686
872.000000	0.002649
871.000000	0.002543
870.000000	0.002381
869.000000	0.002212
868.000000	0.002082
867.000000	0.001998
866.000000	0.001939
865.000000	0.001896
864.000000	0.001887
863.000000	0.001934
862.000000	0.002040
861.000000	0.002183
860.000000	0.002342
859.000000	0.002505
858.000000	0.002664
857.000000	0.002803
856.000000	0.002901
855.000000	0.002958
854.000000	0.002999
853.000000	0.003055
852.000000	0.003138
851.000000	0.003237
850.000000	0.003331
849.000000	0.003405
848.000000	0.003460
847.000000	0.003512
846.000000	0.003580
845.000000	0.003671
844.000000	0.003782
843.000000	0.003911
842.000000	0.004076
841.000000	0.004289
840.000000	0.004538
839.000000	0.004784
838.000000	0.004996
837.000000	0.005153
836.000000	0.005241
835.000000	0.005253
834.000000	0.005210
833.000000	0.005153
832.000000	0.005108
831.000000	0.005059
830.000000	0.004980
829.000000	0.004866
828.000000	0.004732
827.000000	0.004581
826.000000	0.004392
825.000000	0.004155
824.000000	0.003896
823.000000	0.003667
822.000000	0.003505
821.000000	0.003402
820.000000	0.003319
819.000000	0.003217
818.000000	0.003085
817.000000	0.002934
816.000000	0.002779
815.000000	0.002636
814.000000	0.002515
813.000000	0.002419
812.000000	0.002339
811.000000	0.002264
810.000000	0.002191
809.000000	0.002122
808.000000	0.002052
807.000000	0.001982
806.000000	0.001933
805.000000	0.001922
804.000000	0.001939
803.000000	0.001958
802.000000	0.001976
801.000000	0.002009
800.000000	0.002065
799.000000	0.002119
798.000000	0.002141
797.000000	0.002128
796.000000	0.002092
795.000000	0.002051
794.000000	0.002020
793.000000	0.002014
792.000000	0.002038
791.000000	0.002072
790.000000	0.002083
789.000000	0.002057
788.000000	0.002011
787.000000	0.001985
786.000000	0.002009
785.000000	0.002073
784.000000	0.002136
783.000000	0.002173
782.000000	0.002201
781.000000	0.002243
780.000000	0.002283
779.000000	0.002278
778.000000	0.002236
777.000000	0.002220
776.000000	0.002280
775.000000	0.002383
774.000000	0.002443
773.000000	0.002411
772.000000	0.002311
771.000000	0.002213
770.000000	0.002170
769.000000	0.002184
768.000000	0.002218
767.000000	0.002233
766.000000	0.002225
765.000000	0.002218
764.000000	0.002231
763.000000	0.002264
762.000000	0.002314
761.000000	0.002382
760.000000	0.002462
759.000000	0.002543
758.000000	0.002631
757.000000	0.002747
756.000000	0.002886
755.000000	0.003007
754.000000	0.003071
753.000000	0.003080
752.000000	0.003073
751.000000	0.003079
750.000000	0.003112
749.000000	0.003161
748.000000	0.003205
747.000000	0.003224
746.000000	0.003214
745.000000	0.003190
744.000000	0.003163
743.000000	0.003123
742.000000	0.003068
741.000000	0.003010
740.000000	0.002961
739.000000	0.002929
738.000000	0.002917
737.000000	0.002942
736.000000	0.003005
735.000000	0.003091
734.000000	0.003175
733.000000	0.003247
732.000000	0.003306
731.000000	0.003360
730.000000	0.003432
729.000000	0.003536
728.000000	0.003661
727.000000	0.003778
726.000000	0.003878
725.000000	0.003971
724.000000	0.004050
723.000000	0.004099
722.000000	0.004147
721.000000	0.004266
720.000000	0.004473
719.000000	0.004677
718.000000	0.004773
717.000000	0.004764
716.000000	0.004746
715.000000	0.004795
714.000000	0.004901
713.000000	0.005011
712.000000	0.005091
711.000000	0.005146
710.000000	0.005214
709.000000	0.005333
708.000000	0.005494
707.000000	0.005627
706.000000	0.005670
705.000000	0.005639
704.000000	0.005604
703.000000	0.005610
702.000000	0.005642
701.000000	0.005671
700.000000	0.005690
699.000000	0.005698
698.000000	0.005701
697.000000	0.005717
696.000000	0.005770
695.000000	0.005847
694.000000	0.005901
693.000000	0.005904
692.000000	0.005885
691.000000	0.005885
690.000000	0.005898
689.000000	0.005889
688.000000	0.005850
687.000000	0.005823
686.000000	0.005844
685.000000	0.005895
684.000000	0.005936
683.000000	0.005951
682.000000	0.005961
681.000000	0.005990
680.000000	0.006050
679.000000	0.006141
678.000000	0.006257
677.000000	0.006375
676.000000	0.006467
675.000000	0.006526
674.000000	0.006580
673.000000	0.006653
672.000000	0.006735
671.000000	0.006802
670.000000	0.006856
669.000000	0.006913
668.000000	0.006990
667.000000	0.007061
666.000000	0.007060
665.000000	0.007012
664.000000	0.006957
663.000000	0.006915
662.000000	0.006921
661.000000	0.006990
660.000000	0.007077
659.000000	0.007105
658.000000	0.007054
657.000000	0.006981
656.000000	0.006949
655.000000	0.006981
654.000000	0.007072
653.000000	0.007192
652.000000	0.007280
651.000000	0.007286
650.000000	0.007243
649.000000	0.007231
648.000000	0.007273
647.000000	0.007324
646.000000	0.007362
645.000000	0.007404
644.000000	0.007436
643.000000	0.007400
642.000000	0.007282
641.000000	0.007137
640.000000	0.007012
639.000000	0.006901
638.000000	0.006813
637.000000	0.006792
636.000000	0.006849
635.000000	0.006922
634.000000	0.006955
633.000000	0.006952
632.000000	0.006934
631.000000	0.006893
630.000000	0.006842
629.000000	0.006845
628.000000	0.006928
627.000000	0.007026
626.000000	0.007060
625.000000	0.007029
624.000000	0.006984
623.000000	0.006945
622.000000	0.006917
621.000000	0.006930
620.000000	0.007004
619.000000	0.007110
618.000000	0.007197
617.000000	0.007249
616.000000	0.007272
615.000000	0.007254
614.000000	0.007199
613.000000	0.007150
612.000000	0.007149
611.000000	0.007163
610.000000	0.007134
609.000000	0.007053
608.000000	0.006968
607.000000	0.006917
606.000000	0.006912
605.000000	0.006949
604.000000	0.007011
603.000000	0.007069
602.000000	0.007113
601.000000	0.007170
600.000000	0.007258
599.000000	0.007360
598.000000	0.007455
597.000000	0.007541
596.000000	0.007591
595.000000	0.007545
594.000000	0.007397
593.000000	0.007235
592.000000	0.007154
591.000000	0.007169
590.000000	0.007232
589.000000	0.007304
588.000000	0.007355
587.000000	0.007346
586.000000	0.007285
585.000000	0.007252
584.000000	0.007314
583.000000	0.007439
582.000000	0.007549
581.000000	0.007624
580.000000	0.007707
579.000000	0.007818
578.000000	0.007925
577.000000	0.007983
576.000000	0.007961
575.000000	0.007870
574.000000	0.007785
573.000000	0.007794
572.000000	0.007895
571.000000	0.007992
570.000000	0.008031
569.000000	0.008081
568.000000	0.008223
567.000000	0.008421
566.000000	0.008579
565.000000	0.008664
564.000000	0.008698
563.000000	0.008709
562.000000	0.008748
561.000000	0.008904
560.000000	0.009199
559.000000	0.009521
558.000000	0.009736
557.000000	0.009820
556.000000	0.009824
555.000000	0.009760
554.000000	0.009621
553.000000	0.009452
552.000000	0.009293
551.000000	0.009107
550.000000	0.008834
549.000000	0.008500
548.000000	0.008193
547.000000	0.007966
546.000000	0.007835
545.000000	0.007807
544.000000	0.007850
543.000000	0.007896
542.000000	0.007926
541.000000	0.008001
540.000000	0.008142
539.000000	0.008263
538.000000	0.008293
537.000000	0.008294
536.000000	0.008343
535.000000	0.008386
534.000000	0.008323
533.000000	0.008190
532.000000	0.008128
531.000000	0.008211
530.000000	0.008394
529.000000	0.008602
528.000000	0.008773
527.000000	0.008834
526.000000	0.008753
525.000000	0.008600
524.000000	0.008462
523.000000	0.008333
522.000000	0.008170
521.000000	0.007994
520.000000	0.007840
519.000000	0.007676
518.000000	0.007455
517.000000	0.007210
516.000000	0.006999
515.000000	0.006815
514.000000	0.006633
513.000000	0.006467
512.000000	0.006305
511.000000	0.006068
510.000000	0.005750
509.000000	0.005509
508.000000	0.005499
507.000000	0.005646
506.000000	0.005728
505.000000	0.005664
504.000000	0.005556
503.000000	0.005498
502.000000	0.005470
501.000000	0.005431
500.000000	0.005393
499.000000	0.005380
498.000000	0.005405
497.000000	0.005481
496.000000	0.005561
495.000000	0.005510
494.000000	0.005212
493.000000	0.004721
492.000000	0.004229
491.000000	0.003892
490.000000	0.003761
489.000000	0.003817
488.000000	0.003983
487.000000	0.004121
486.000000	0.004137
485.000000	0.004058
484.000000	0.003940
483.000000	0.003742
482.000000	0.003435
481.000000	0.003167
480.000000	0.003148
479.000000	0.003383
478.000000	0.003650
477.000000	0.003727
476.000000	0.003569
475.000000	0.003275
474.000000	0.003010
473.000000	0.002963
472.000000	0.003197
471.000000	0.003531
470.000000	0.003720
469.000000	0.003687
468.000000	0.003503
467.000000	0.003246
466.000000	0.002973
465.000000	0.002725
464.000000	0.002476
463.000000	0.002154
462.000000	0.001783
461.000000	0.001545
460.000000	0.001582
459.000000	0.001823
458.000000	0.002079
457.000000	0.002246
456.000000	0.002316
455.000000	0.002264
454.000000	0.002088
453.000000	0.001888
452.000000	0.001730
451.000000	0.001550
450.000000	0.001313
