PE IR       SUBTECH     SPECTRUM    ASCII       PEDS        4.00        
   -1
3S-H10-F013_1.ASC
22/02/18
10:53:36.00
22/02/18
11:02:52.00
uco
Sample 013 By uco Date Friday, February 18 2022
450.000000
#HDR
-1
-1
#GR
cm-1
A
1.0
0.0
4000.000000
-1.000000
3551
8
0.053353
0.003067
#DATA
4000.000000	0.003602
3999.000000	0.003612
3998.000000	0.003609
3997.000000	0.003598
3996.000000	0.003587
3995.000000	0.003582
3994.000000	0.003582
3993.000000	0.003585
3992.000000	0.003588
3991.000000	0.003593
3990.000000	0.003600
3989.000000	0.003609
3988.000000	0.003615
3987.000000	0.003621
3986.000000	0.003627
3985.000000	0.003635
3984.000000	0.003641
3983.000000	0.003640
3982.000000	0.003634
3981.000000	0.003627
3980.000000	0.003623
3979.000000	0.003623
3978.000000	0.003631
3977.000000	0.003647
3976.000000	0.003669
3975.000000	0.003692
3974.000000	0.003706
3973.000000	0.003704
3972.000000	0.003684
3971.000000	0.003649
3970.000000	0.003612
3969.000000	0.003584
3968.000000	0.003571
3967.000000	0.003572
3966.000000	0.003581
3965.000000	0.003597
3964.000000	0.003616
3963.000000	0.003636
3962.000000	0.003653
3961.000000	0.003662
3960.000000	0.003665
3959.000000	0.003666
3958.000000	0.003672
3957.000000	0.003682
3956.000000	0.003698
3955.000000	0.003717
3954.000000	0.003739
3953.000000	0.003763
3952.000000	0.003781
3951.000000	0.003786
3950.000000	0.003775
3949.000000	0.003756
3948.000000	0.003741
3947.000000	0.003735
3946.000000	0.003736
3945.000000	0.003734
3944.000000	0.003726
3943.000000	0.003713
3942.000000	0.003703
3941.000000	0.003695
3940.000000	0.003682
3939.000000	0.003663
3938.000000	0.003647
3937.000000	0.003648
3936.000000	0.003667
3935.000000	0.003695
3934.000000	0.003714
3933.000000	0.003713
3932.000000	0.003698
3931.000000	0.003684
3930.000000	0.003681
3929.000000	0.003691
3928.000000	0.003707
3927.000000	0.003722
3926.000000	0.003730
3925.000000	0.003726
3924.000000	0.003716
3923.000000	0.003705
3922.000000	0.003702
3921.000000	0.003708
3920.000000	0.003721
3919.000000	0.003732
3918.000000	0.003739
3917.000000	0.003741
3916.000000	0.003744
3915.000000	0.003747
3914.000000	0.003747
3913.000000	0.003740
3912.000000	0.003727
3911.000000	0.003716
3910.000000	0.003711
3909.000000	0.003711
3908.000000	0.003712
3907.000000	0.003711
3906.000000	0.003710
3905.000000	0.003716
3904.000000	0.003729
3903.000000	0.003745
3902.000000	0.003751
3901.000000	0.003743
3900.000000	0.003731
3899.000000	0.003730
3898.000000	0.003744
3897.000000	0.003766
3896.000000	0.003783
3895.000000	0.003787
3894.000000	0.003776
3893.000000	0.003753
3892.000000	0.003731
3891.000000	0.003726
3890.000000	0.003740
3889.000000	0.003758
3888.000000	0.003768
3887.000000	0.003767
3886.000000	0.003758
3885.000000	0.003745
3884.000000	0.003730
3883.000000	0.003709
3882.000000	0.003685
3881.000000	0.003669
3880.000000	0.003675
3879.000000	0.003701
3878.000000	0.003734
3877.000000	0.003760
3876.000000	0.003781
3875.000000	0.003800
3874.000000	0.003813
3873.000000	0.003806
3872.000000	0.003765
3871.000000	0.003701
3870.000000	0.003646
3869.000000	0.003627
3868.000000	0.003633
3867.000000	0.003639
3866.000000	0.003633
3865.000000	0.003620
3864.000000	0.003608
3863.000000	0.003602
3862.000000	0.003601
3861.000000	0.003607
3860.000000	0.003623
3859.000000	0.003651
3858.000000	0.003686
3857.000000	0.003728
3856.000000	0.003766
3855.000000	0.003785
3854.000000	0.003782
3853.000000	0.003786
3852.000000	0.003808
3851.000000	0.003820
3850.000000	0.003808
3849.000000	0.003786
3848.000000	0.003769
3847.000000	0.003759
3846.000000	0.003749
3845.000000	0.003732
3844.000000	0.003708
3843.000000	0.003681
3842.000000	0.003656
3841.000000	0.003634
3840.000000	0.003617
3839.000000	0.003616
3838.000000	0.003642
3837.000000	0.003689
3836.000000	0.003734
3835.000000	0.003758
3834.000000	0.003757
3833.000000	0.003738
3832.000000	0.003714
3831.000000	0.003702
3830.000000	0.003707
3829.000000	0.003721
3828.000000	0.003732
3827.000000	0.003732
3826.000000	0.003721
3825.000000	0.003703
3824.000000	0.003680
3823.000000	0.003657
3822.000000	0.003643
3821.000000	0.003653
3820.000000	0.003691
3819.000000	0.003731
3818.000000	0.003747
3817.000000	0.003739
3816.000000	0.003724
3815.000000	0.003724
3814.000000	0.003739
3813.000000	0.003759
3812.000000	0.003777
3811.000000	0.003789
3810.000000	0.003785
3809.000000	0.003760
3808.000000	0.003720
3807.000000	0.003682
3806.000000	0.003657
3805.000000	0.003637
3804.000000	0.003611
3803.000000	0.003588
3802.000000	0.003586
3801.000000	0.003622
3800.000000	0.003682
3799.000000	0.003732
3798.000000	0.003756
3797.000000	0.003761
3796.000000	0.003758
3795.000000	0.003747
3794.000000	0.003729
3793.000000	0.003708
3792.000000	0.003693
3791.000000	0.003686
3790.000000	0.003680
3789.000000	0.003668
3788.000000	0.003647
3787.000000	0.003627
3786.000000	0.003616
3785.000000	0.003618
3784.000000	0.003629
3783.000000	0.003640
3782.000000	0.003647
3781.000000	0.003652
3780.000000	0.003665
3779.000000	0.003689
3778.000000	0.003713
3777.000000	0.003722
3776.000000	0.003708
3775.000000	0.003683
3774.000000	0.003662
3773.000000	0.003651
3772.000000	0.003647
3771.000000	0.003648
3770.000000	0.003652
3769.000000	0.003661
3768.000000	0.003667
3767.000000	0.003661
3766.000000	0.003646
3765.000000	0.003634
3764.000000	0.003635
3763.000000	0.003641
3762.000000	0.003643
3761.000000	0.003633
3760.000000	0.003613
3759.000000	0.003592
3758.000000	0.003581
3757.000000	0.003579
3756.000000	0.003580
3755.000000	0.003581
3754.000000	0.003584
3753.000000	0.003594
3752.000000	0.003610
3751.000000	0.003632
3750.000000	0.003661
3749.000000	0.003690
3748.000000	0.003709
3747.000000	0.003720
3746.000000	0.003731
3745.000000	0.003743
3744.000000	0.003756
3743.000000	0.003756
3742.000000	0.003723
3741.000000	0.003668
3740.000000	0.003617
3739.000000	0.003590
3738.000000	0.003585
3737.000000	0.003593
3736.000000	0.003600
3735.000000	0.003604
3734.000000	0.003607
3733.000000	0.003611
3732.000000	0.003612
3731.000000	0.003604
3730.000000	0.003587
3729.000000	0.003570
3728.000000	0.003571
3727.000000	0.003593
3726.000000	0.003627
3725.000000	0.003651
3724.000000	0.003656
3723.000000	0.003645
3722.000000	0.003629
3721.000000	0.003611
3720.000000	0.003590
3719.000000	0.003571
3718.000000	0.003565
3717.000000	0.003574
3716.000000	0.003594
3715.000000	0.003615
3714.000000	0.003630
3713.000000	0.003629
3712.000000	0.003612
3711.000000	0.003589
3710.000000	0.003579
3709.000000	0.003586
3708.000000	0.003603
3707.000000	0.003621
3706.000000	0.003631
3705.000000	0.003632
3704.000000	0.003625
3703.000000	0.003615
3702.000000	0.003610
3701.000000	0.003611
3700.000000	0.003617
3699.000000	0.003619
3698.000000	0.003619
3697.000000	0.003620
3696.000000	0.003626
3695.000000	0.003633
3694.000000	0.003638
3693.000000	0.003646
3692.000000	0.003659
3691.000000	0.003676
3690.000000	0.003693
3689.000000	0.003708
3688.000000	0.003722
3687.000000	0.003735
3686.000000	0.003747
3685.000000	0.003759
3684.000000	0.003768
3683.000000	0.003763
3682.000000	0.003740
3681.000000	0.003710
3680.000000	0.003694
3679.000000	0.003705
3678.000000	0.003741
3677.000000	0.003788
3676.000000	0.003832
3675.000000	0.003870
3674.000000	0.003900
3673.000000	0.003913
3672.000000	0.003913
3671.000000	0.003916
3670.000000	0.003930
3669.000000	0.003955
3668.000000	0.003981
3667.000000	0.003999
3666.000000	0.004016
3665.000000	0.004038
3664.000000	0.004069
3663.000000	0.004106
3662.000000	0.004143
3661.000000	0.004172
3660.000000	0.004187
3659.000000	0.004187
3658.000000	0.004186
3657.000000	0.004202
3656.000000	0.004245
3655.000000	0.004306
3654.000000	0.004364
3653.000000	0.004411
3652.000000	0.004452
3651.000000	0.004498
3650.000000	0.004548
3649.000000	0.004596
3648.000000	0.004636
3647.000000	0.004665
3646.000000	0.004690
3645.000000	0.004715
3644.000000	0.004742
3643.000000	0.004770
3642.000000	0.004799
3641.000000	0.004826
3640.000000	0.004853
3639.000000	0.004882
3638.000000	0.004922
3637.000000	0.004972
3636.000000	0.005025
3635.000000	0.005072
3634.000000	0.005108
3633.000000	0.005133
3632.000000	0.005151
3631.000000	0.005173
3630.000000	0.005217
3629.000000	0.005294
3628.000000	0.005387
3627.000000	0.005457
3626.000000	0.005490
3625.000000	0.005508
3624.000000	0.005530
3623.000000	0.005556
3622.000000	0.005571
3621.000000	0.005569
3620.000000	0.005568
3619.000000	0.005596
3618.000000	0.005660
3617.000000	0.005735
3616.000000	0.005795
3615.000000	0.005833
3614.000000	0.005869
3613.000000	0.005922
3612.000000	0.005989
3611.000000	0.006051
3610.000000	0.006092
3609.000000	0.006112
3608.000000	0.006127
3607.000000	0.006158
3606.000000	0.006216
3605.000000	0.006300
3604.000000	0.006398
3603.000000	0.006495
3602.000000	0.006577
3601.000000	0.006638
3600.000000	0.006685
3599.000000	0.006723
3598.000000	0.006757
3597.000000	0.006794
3596.000000	0.006838
3595.000000	0.006895
3594.000000	0.006968
3593.000000	0.007046
3592.000000	0.007118
3591.000000	0.007173
3590.000000	0.007219
3589.000000	0.007271
3588.000000	0.007340
3587.000000	0.007418
3586.000000	0.007489
3585.000000	0.007540
3584.000000	0.007571
3583.000000	0.007596
3582.000000	0.007632
3581.000000	0.007691
3580.000000	0.007774
3579.000000	0.007868
3578.000000	0.007958
3577.000000	0.008040
3576.000000	0.008116
3575.000000	0.008194
3574.000000	0.008275
3573.000000	0.008353
3572.000000	0.008419
3571.000000	0.008470
3570.000000	0.008507
3569.000000	0.008538
3568.000000	0.008572
3567.000000	0.008625
3566.000000	0.008709
3565.000000	0.008817
3564.000000	0.008929
3563.000000	0.009026
3562.000000	0.009103
3561.000000	0.009166
3560.000000	0.009228
3559.000000	0.009296
3558.000000	0.009371
3557.000000	0.009457
3556.000000	0.009551
3555.000000	0.009645
3554.000000	0.009728
3553.000000	0.009792
3552.000000	0.009835
3551.000000	0.009864
3550.000000	0.009891
3549.000000	0.009932
3548.000000	0.009997
3547.000000	0.010084
3546.000000	0.010183
3545.000000	0.010280
3544.000000	0.010363
3543.000000	0.010424
3542.000000	0.010465
3541.000000	0.010503
3540.000000	0.010555
3539.000000	0.010631
3538.000000	0.010721
3537.000000	0.010809
3536.000000	0.010883
3535.000000	0.010943
3534.000000	0.010997
3533.000000	0.011054
3532.000000	0.011112
3531.000000	0.011171
3530.000000	0.011230
3529.000000	0.011297
3528.000000	0.011373
3527.000000	0.011453
3526.000000	0.011526
3525.000000	0.011587
3524.000000	0.011641
3523.000000	0.011696
3522.000000	0.011757
3521.000000	0.011822
3520.000000	0.011892
3519.000000	0.011966
3518.000000	0.012048
3517.000000	0.012131
3516.000000	0.012202
3515.000000	0.012256
3514.000000	0.012300
3513.000000	0.012348
3512.000000	0.012411
3511.000000	0.012489
3510.000000	0.012572
3509.000000	0.012651
3508.000000	0.012722
3507.000000	0.012786
3506.000000	0.012847
3505.000000	0.012901
3504.000000	0.012946
3503.000000	0.012986
3502.000000	0.013029
3501.000000	0.013081
3500.000000	0.013143
3499.000000	0.013210
3498.000000	0.013279
3497.000000	0.013347
3496.000000	0.013414
3495.000000	0.013478
3494.000000	0.013536
3493.000000	0.013585
3492.000000	0.013624
3491.000000	0.013657
3490.000000	0.013690
3489.000000	0.013723
3488.000000	0.013753
3487.000000	0.013778
3486.000000	0.013803
3485.000000	0.013835
3484.000000	0.013878
3483.000000	0.013930
3482.000000	0.013988
3481.000000	0.014052
3480.000000	0.014123
3479.000000	0.014192
3478.000000	0.014255
3477.000000	0.014315
3476.000000	0.014379
3475.000000	0.014451
3474.000000	0.014527
3473.000000	0.014594
3472.000000	0.014647
3471.000000	0.014690
3470.000000	0.014738
3469.000000	0.014802
3468.000000	0.014877
3467.000000	0.014946
3466.000000	0.014991
3465.000000	0.015010
3464.000000	0.015018
3463.000000	0.015033
3462.000000	0.015067
3461.000000	0.015119
3460.000000	0.015178
3459.000000	0.015237
3458.000000	0.015292
3457.000000	0.015337
3456.000000	0.015376
3455.000000	0.015420
3454.000000	0.015481
3453.000000	0.015562
3452.000000	0.015646
3451.000000	0.015716
3450.000000	0.015766
3449.000000	0.015804
3448.000000	0.015841
3447.000000	0.015882
3446.000000	0.015929
3445.000000	0.015976
3444.000000	0.016024
3443.000000	0.016079
3442.000000	0.016146
3441.000000	0.016221
3440.000000	0.016291
3439.000000	0.016350
3438.000000	0.016400
3437.000000	0.016453
3436.000000	0.016510
3435.000000	0.016571
3434.000000	0.016632
3433.000000	0.016693
3432.000000	0.016751
3431.000000	0.016801
3430.000000	0.016844
3429.000000	0.016886
3428.000000	0.016934
3427.000000	0.016990
3426.000000	0.017049
3425.000000	0.017103
3424.000000	0.017146
3423.000000	0.017179
3422.000000	0.017214
3421.000000	0.017261
3420.000000	0.017328
3419.000000	0.017406
3418.000000	0.017483
3417.000000	0.017546
3416.000000	0.017593
3415.000000	0.017630
3414.000000	0.017669
3413.000000	0.017718
3412.000000	0.017781
3411.000000	0.017856
3410.000000	0.017936
3409.000000	0.018017
3408.000000	0.018091
3407.000000	0.018152
3406.000000	0.018198
3405.000000	0.018229
3404.000000	0.018253
3403.000000	0.018277
3402.000000	0.018315
3401.000000	0.018375
3400.000000	0.018453
3399.000000	0.018533
3398.000000	0.018595
3397.000000	0.018631
3396.000000	0.018649
3395.000000	0.018664
3394.000000	0.018692
3393.000000	0.018736
3392.000000	0.018794
3391.000000	0.018861
3390.000000	0.018929
3389.000000	0.018992
3388.000000	0.019047
3387.000000	0.019100
3386.000000	0.019155
3385.000000	0.019215
3384.000000	0.019281
3383.000000	0.019348
3382.000000	0.019413
3381.000000	0.019472
3380.000000	0.019525
3379.000000	0.019578
3378.000000	0.019637
3377.000000	0.019699
3376.000000	0.019758
3375.000000	0.019816
3374.000000	0.019882
3373.000000	0.019964
3372.000000	0.020054
3371.000000	0.020137
3370.000000	0.020204
3369.000000	0.020254
3368.000000	0.020298
3367.000000	0.020353
3366.000000	0.020429
3365.000000	0.020522
3364.000000	0.020619
3363.000000	0.020709
3362.000000	0.020794
3361.000000	0.020880
3360.000000	0.020972
3359.000000	0.021066
3358.000000	0.021158
3357.000000	0.021248
3356.000000	0.021335
3355.000000	0.021416
3354.000000	0.021489
3353.000000	0.021559
3352.000000	0.021639
3351.000000	0.021736
3350.000000	0.021847
3349.000000	0.021957
3348.000000	0.022053
3347.000000	0.022134
3346.000000	0.022209
3345.000000	0.022294
3344.000000	0.022387
3343.000000	0.022479
3342.000000	0.022556
3341.000000	0.022614
3340.000000	0.022668
3339.000000	0.022741
3338.000000	0.022842
3337.000000	0.022957
3336.000000	0.023060
3335.000000	0.023132
3334.000000	0.023181
3333.000000	0.023229
3332.000000	0.023294
3331.000000	0.023375
3330.000000	0.023459
3329.000000	0.023533
3328.000000	0.023589
3327.000000	0.023634
3326.000000	0.023683
3325.000000	0.023748
3324.000000	0.023826
3323.000000	0.023908
3322.000000	0.023983
3321.000000	0.024045
3320.000000	0.024096
3319.000000	0.024146
3318.000000	0.024206
3317.000000	0.024277
3316.000000	0.024350
3315.000000	0.024415
3314.000000	0.024472
3313.000000	0.024521
3312.000000	0.024563
3311.000000	0.024592
3310.000000	0.024606
3309.000000	0.024613
3308.000000	0.024624
3307.000000	0.024652
3306.000000	0.024702
3305.000000	0.024766
3304.000000	0.024825
3303.000000	0.024869
3302.000000	0.024902
3301.000000	0.024935
3300.000000	0.024976
3299.000000	0.025020
3298.000000	0.025056
3297.000000	0.025076
3296.000000	0.025081
3295.000000	0.025077
3294.000000	0.025076
3293.000000	0.025083
3292.000000	0.025101
3291.000000	0.025130
3290.000000	0.025164
3289.000000	0.025197
3288.000000	0.025217
3287.000000	0.025219
3286.000000	0.025209
3285.000000	0.025195
3284.000000	0.025188
3283.000000	0.025185
3282.000000	0.025185
3281.000000	0.025181
3280.000000	0.025166
3279.000000	0.025135
3278.000000	0.025090
3277.000000	0.025043
3276.000000	0.025008
3275.000000	0.024990
3274.000000	0.024980
3273.000000	0.024963
3272.000000	0.024930
3271.000000	0.024883
3270.000000	0.024833
3269.000000	0.024792
3268.000000	0.024766
3267.000000	0.024751
3266.000000	0.024737
3265.000000	0.024710
3264.000000	0.024663
3263.000000	0.024603
3262.000000	0.024543
3261.000000	0.024489
3260.000000	0.024437
3259.000000	0.024377
3258.000000	0.024306
3257.000000	0.024227
3256.000000	0.024144
3255.000000	0.024067
3254.000000	0.024003
3253.000000	0.023948
3252.000000	0.023888
3251.000000	0.023811
3250.000000	0.023728
3249.000000	0.023656
3248.000000	0.023606
3247.000000	0.023572
3246.000000	0.023541
3245.000000	0.023503
3244.000000	0.023454
3243.000000	0.023392
3242.000000	0.023319
3241.000000	0.023241
3240.000000	0.023167
3239.000000	0.023109
3238.000000	0.023073
3237.000000	0.023053
3236.000000	0.023030
3235.000000	0.022989
3234.000000	0.022931
3233.000000	0.022874
3232.000000	0.022831
3231.000000	0.022803
3230.000000	0.022779
3229.000000	0.022746
3228.000000	0.022701
3227.000000	0.022651
3226.000000	0.022607
3225.000000	0.022571
3224.000000	0.022538
3223.000000	0.022502
3222.000000	0.022460
3221.000000	0.022416
3220.000000	0.022369
3219.000000	0.022313
3218.000000	0.022255
3217.000000	0.022202
3216.000000	0.022155
3215.000000	0.022107
3214.000000	0.022047
3213.000000	0.021977
3212.000000	0.021905
3211.000000	0.021839
3210.000000	0.021784
3209.000000	0.021741
3208.000000	0.021707
3207.000000	0.021677
3206.000000	0.021645
3205.000000	0.021608
3204.000000	0.021563
3203.000000	0.021509
3202.000000	0.021452
3201.000000	0.021395
3200.000000	0.021337
3199.000000	0.021274
3198.000000	0.021207
3197.000000	0.021145
3196.000000	0.021091
3195.000000	0.021035
3194.000000	0.020967
3193.000000	0.020887
3192.000000	0.020807
3191.000000	0.020740
3190.000000	0.020692
3189.000000	0.020652
3188.000000	0.020601
3187.000000	0.020524
3186.000000	0.020423
3185.000000	0.020320
3184.000000	0.020233
3183.000000	0.020166
3182.000000	0.020108
3181.000000	0.020049
3180.000000	0.019989
3179.000000	0.019927
3178.000000	0.019856
3177.000000	0.019773
3176.000000	0.019682
3175.000000	0.019593
3174.000000	0.019507
3173.000000	0.019420
3172.000000	0.019327
3171.000000	0.019227
3170.000000	0.019126
3169.000000	0.019027
3168.000000	0.018940
3167.000000	0.018873
3166.000000	0.018832
3165.000000	0.018811
3164.000000	0.018795
3163.000000	0.018763
3162.000000	0.018707
3161.000000	0.018627
3160.000000	0.018537
3159.000000	0.018448
3158.000000	0.018370
3157.000000	0.018304
3156.000000	0.018245
3155.000000	0.018186
3154.000000	0.018121
3153.000000	0.018048
3152.000000	0.017971
3151.000000	0.017896
3150.000000	0.017827
3149.000000	0.017766
3148.000000	0.017711
3147.000000	0.017664
3146.000000	0.017623
3145.000000	0.017585
3144.000000	0.017543
3143.000000	0.017490
3142.000000	0.017422
3141.000000	0.017344
3140.000000	0.017266
3139.000000	0.017200
3138.000000	0.017146
3137.000000	0.017095
3136.000000	0.017036
3135.000000	0.016970
3134.000000	0.016908
3133.000000	0.016860
3132.000000	0.016827
3131.000000	0.016802
3130.000000	0.016782
3129.000000	0.016768
3128.000000	0.016755
3127.000000	0.016735
3126.000000	0.016700
3125.000000	0.016656
3124.000000	0.016613
3123.000000	0.016575
3122.000000	0.016541
3121.000000	0.016509
3120.000000	0.016481
3119.000000	0.016465
3118.000000	0.016462
3117.000000	0.016464
3116.000000	0.016467
3115.000000	0.016468
3114.000000	0.016468
3113.000000	0.016471
3112.000000	0.016477
3111.000000	0.016482
3110.000000	0.016483
3109.000000	0.016478
3108.000000	0.016474
3107.000000	0.016479
3106.000000	0.016498
3105.000000	0.016524
3104.000000	0.016544
3103.000000	0.016551
3102.000000	0.016549
3101.000000	0.016551
3100.000000	0.016560
3099.000000	0.016573
3098.000000	0.016584
3097.000000	0.016595
3096.000000	0.016608
3095.000000	0.016628
3094.000000	0.016652
3093.000000	0.016677
3092.000000	0.016700
3091.000000	0.016718
3090.000000	0.016725
3089.000000	0.016723
3088.000000	0.016719
3087.000000	0.016722
3086.000000	0.016738
3085.000000	0.016768
3084.000000	0.016803
3083.000000	0.016832
3082.000000	0.016848
3081.000000	0.016850
3080.000000	0.016845
3079.000000	0.016840
3078.000000	0.016840
3077.000000	0.016842
3076.000000	0.016847
3075.000000	0.016854
3074.000000	0.016863
3073.000000	0.016871
3072.000000	0.016874
3071.000000	0.016865
3070.000000	0.016843
3069.000000	0.016807
3068.000000	0.016766
3067.000000	0.016731
3066.000000	0.016710
3065.000000	0.016701
3064.000000	0.016694
3063.000000	0.016677
3062.000000	0.016643
3061.000000	0.016593
3060.000000	0.016535
3059.000000	0.016482
3058.000000	0.016436
3057.000000	0.016389
3056.000000	0.016329
3055.000000	0.016248
3054.000000	0.016152
3053.000000	0.016056
3052.000000	0.015978
3051.000000	0.015919
3050.000000	0.015864
3049.000000	0.015795
3048.000000	0.015712
3047.000000	0.015627
3046.000000	0.015551
3045.000000	0.015481
3044.000000	0.015409
3043.000000	0.015337
3042.000000	0.015280
3041.000000	0.015240
3040.000000	0.015204
3039.000000	0.015151
3038.000000	0.015073
3037.000000	0.014981
3036.000000	0.014894
3035.000000	0.014821
3034.000000	0.014764
3033.000000	0.014718
3032.000000	0.014672
3031.000000	0.014623
3030.000000	0.014573
3029.000000	0.014527
3028.000000	0.014482
3027.000000	0.014430
3026.000000	0.014363
3025.000000	0.014288
3024.000000	0.014216
3023.000000	0.014161
3022.000000	0.014129
3021.000000	0.014112
3020.000000	0.014095
3019.000000	0.014065
3018.000000	0.014018
3017.000000	0.013966
3016.000000	0.013924
3015.000000	0.013901
3014.000000	0.013893
3013.000000	0.013894
3012.000000	0.013894
3011.000000	0.013883
3010.000000	0.013854
3009.000000	0.013811
3008.000000	0.013763
3007.000000	0.013721
3006.000000	0.013689
3005.000000	0.013663
3004.000000	0.013639
3003.000000	0.013620
3002.000000	0.013612
3001.000000	0.013613
3000.000000	0.013612
2999.000000	0.013602
2998.000000	0.013582
2997.000000	0.013559
2996.000000	0.013539
2995.000000	0.013528
2994.000000	0.013532
2993.000000	0.013554
2992.000000	0.013588
2991.000000	0.013626
2990.000000	0.013669
2989.000000	0.013725
2988.000000	0.013797
2987.000000	0.013878
2986.000000	0.013957
2985.000000	0.014029
2984.000000	0.014096
2983.000000	0.014166
2982.000000	0.014246
2981.000000	0.014333
2980.000000	0.014418
2979.000000	0.014493
2978.000000	0.014559
2977.000000	0.014623
2976.000000	0.014692
2975.000000	0.014765
2974.000000	0.014836
2973.000000	0.014903
2972.000000	0.014967
2971.000000	0.015035
2970.000000	0.015112
2969.000000	0.015199
2968.000000	0.015289
2967.000000	0.015376
2966.000000	0.015454
2965.000000	0.015522
2964.000000	0.015580
2963.000000	0.015628
2962.000000	0.015666
2961.000000	0.015696
2960.000000	0.015724
2959.000000	0.015753
2958.000000	0.015782
2957.000000	0.015804
2956.000000	0.015814
2955.000000	0.015813
2954.000000	0.015808
2953.000000	0.015807
2952.000000	0.015809
2951.000000	0.015807
2950.000000	0.015789
2949.000000	0.015753
2948.000000	0.015705
2947.000000	0.015655
2946.000000	0.015609
2945.000000	0.015561
2944.000000	0.015511
2943.000000	0.015464
2942.000000	0.015439
2941.000000	0.015440
2940.000000	0.015448
2939.000000	0.015434
2938.000000	0.015388
2937.000000	0.015330
2936.000000	0.015287
2935.000000	0.015272
2934.000000	0.015278
2933.000000	0.015291
2932.000000	0.015305
2931.000000	0.015323
2930.000000	0.015357
2929.000000	0.015412
2928.000000	0.015483
2927.000000	0.015561
2926.000000	0.015653
2925.000000	0.015784
2924.000000	0.015983
2923.000000	0.016255
2922.000000	0.016578
2921.000000	0.016920
2920.000000	0.017254
2919.000000	0.017561
2918.000000	0.017822
2917.000000	0.018016
2916.000000	0.018127
2915.000000	0.018154
2914.000000	0.018110
2913.000000	0.018020
2912.000000	0.017905
2911.000000	0.017782
2910.000000	0.017661
2909.000000	0.017548
2908.000000	0.017444
2907.000000	0.017346
2906.000000	0.017250
2905.000000	0.017153
2904.000000	0.017060
2903.000000	0.016976
2902.000000	0.016899
2901.000000	0.016821
2900.000000	0.016737
2899.000000	0.016650
2898.000000	0.016562
2897.000000	0.016477
2896.000000	0.016396
2895.000000	0.016326
2894.000000	0.016271
2893.000000	0.016230
2892.000000	0.016196
2891.000000	0.016160
2890.000000	0.016123
2889.000000	0.016087
2888.000000	0.016052
2887.000000	0.016011
2886.000000	0.015956
2885.000000	0.015891
2884.000000	0.015830
2883.000000	0.015785
2882.000000	0.015755
2881.000000	0.015722
2880.000000	0.015672
2879.000000	0.015604
2878.000000	0.015532
2877.000000	0.015470
2876.000000	0.015425
2875.000000	0.015396
2874.000000	0.015380
2873.000000	0.015370
2872.000000	0.015361
2871.000000	0.015344
2870.000000	0.015307
2869.000000	0.015237
2868.000000	0.015125
2867.000000	0.014977
2866.000000	0.014810
2865.000000	0.014645
2864.000000	0.014491
2863.000000	0.014349
2862.000000	0.014218
2861.000000	0.014104
2860.000000	0.014018
2859.000000	0.013972
2858.000000	0.013970
2857.000000	0.014010
2856.000000	0.014098
2855.000000	0.014249
2854.000000	0.014476
2853.000000	0.014770
2852.000000	0.015093
2851.000000	0.015381
2850.000000	0.015580
2849.000000	0.015662
2848.000000	0.015634
2847.000000	0.015532
2846.000000	0.015390
2845.000000	0.015232
2844.000000	0.015066
2843.000000	0.014895
2842.000000	0.014721
2841.000000	0.014548
2840.000000	0.014381
2839.000000	0.014228
2838.000000	0.014090
2837.000000	0.013963
2836.000000	0.013840
2835.000000	0.013718
2834.000000	0.013603
2833.000000	0.013499
2832.000000	0.013407
2831.000000	0.013322
2830.000000	0.013242
2829.000000	0.013165
2828.000000	0.013094
2827.000000	0.013028
2826.000000	0.012962
2825.000000	0.012888
2824.000000	0.012804
2823.000000	0.012719
2822.000000	0.012648
2821.000000	0.012592
2820.000000	0.012537
2819.000000	0.012468
2818.000000	0.012387
2817.000000	0.012303
2816.000000	0.012223
2815.000000	0.012147
2814.000000	0.012076
2813.000000	0.012014
2812.000000	0.011966
2811.000000	0.011934
2810.000000	0.011911
2809.000000	0.011884
2808.000000	0.011843
2807.000000	0.011787
2806.000000	0.011726
2805.000000	0.011677
2804.000000	0.011643
2803.000000	0.011620
2802.000000	0.011597
2801.000000	0.011569
2800.000000	0.011533
2799.000000	0.011492
2798.000000	0.011450
2797.000000	0.011411
2796.000000	0.011377
2795.000000	0.011346
2794.000000	0.011313
2793.000000	0.011277
2792.000000	0.011238
2791.000000	0.011202
2790.000000	0.011175
2789.000000	0.011161
2788.000000	0.011149
2787.000000	0.011125
2786.000000	0.011082
2785.000000	0.011022
2784.000000	0.010957
2783.000000	0.010901
2782.000000	0.010861
2781.000000	0.010836
2780.000000	0.010819
2779.000000	0.010804
2778.000000	0.010787
2777.000000	0.010766
2776.000000	0.010739
2775.000000	0.010702
2774.000000	0.010662
2773.000000	0.010629
2772.000000	0.010605
2771.000000	0.010583
2770.000000	0.010558
2769.000000	0.010533
2768.000000	0.010515
2767.000000	0.010506
2766.000000	0.010499
2765.000000	0.010485
2764.000000	0.010459
2763.000000	0.010423
2762.000000	0.010384
2761.000000	0.010349
2760.000000	0.010321
2759.000000	0.010301
2758.000000	0.010291
2757.000000	0.010284
2756.000000	0.010273
2755.000000	0.010248
2754.000000	0.010210
2753.000000	0.010168
2752.000000	0.010135
2751.000000	0.010115
2750.000000	0.010106
2749.000000	0.010104
2748.000000	0.010101
2747.000000	0.010092
2746.000000	0.010077
2745.000000	0.010060
2744.000000	0.010041
2743.000000	0.010013
2742.000000	0.009974
2741.000000	0.009933
2740.000000	0.009901
2739.000000	0.009883
2738.000000	0.009870
2737.000000	0.009853
2736.000000	0.009826
2735.000000	0.009796
2734.000000	0.009769
2733.000000	0.009754
2732.000000	0.009746
2731.000000	0.009739
2730.000000	0.009727
2729.000000	0.009711
2728.000000	0.009695
2727.000000	0.009680
2726.000000	0.009660
2725.000000	0.009634
2724.000000	0.009602
2723.000000	0.009571
2722.000000	0.009543
2721.000000	0.009522
2720.000000	0.009509
2719.000000	0.009499
2718.000000	0.009485
2717.000000	0.009461
2716.000000	0.009428
2715.000000	0.009396
2714.000000	0.009373
2713.000000	0.009358
2712.000000	0.009343
2711.000000	0.009322
2710.000000	0.009295
2709.000000	0.009268
2708.000000	0.009250
2707.000000	0.009242
2706.000000	0.009243
2705.000000	0.009247
2704.000000	0.009247
2703.000000	0.009241
2702.000000	0.009229
2701.000000	0.009209
2700.000000	0.009180
2699.000000	0.009141
2698.000000	0.009101
2697.000000	0.009072
2696.000000	0.009061
2695.000000	0.009065
2694.000000	0.009071
2693.000000	0.009067
2692.000000	0.009048
2691.000000	0.009025
2690.000000	0.009014
2689.000000	0.009025
2688.000000	0.009048
2687.000000	0.009064
2686.000000	0.009061
2685.000000	0.009041
2684.000000	0.009015
2683.000000	0.008991
2682.000000	0.008972
2681.000000	0.008962
2680.000000	0.008959
2679.000000	0.008958
2678.000000	0.008955
2677.000000	0.008950
2676.000000	0.008947
2675.000000	0.008946
2674.000000	0.008944
2673.000000	0.008936
2672.000000	0.008921
2671.000000	0.008904
2670.000000	0.008885
2669.000000	0.008867
2668.000000	0.008855
2667.000000	0.008854
2666.000000	0.008864
2665.000000	0.008876
2664.000000	0.008880
2663.000000	0.008869
2662.000000	0.008845
2661.000000	0.008821
2660.000000	0.008804
2659.000000	0.008797
2658.000000	0.008791
2657.000000	0.008778
2656.000000	0.008752
2655.000000	0.008720
2654.000000	0.008690
2653.000000	0.008667
2652.000000	0.008649
2651.000000	0.008626
2650.000000	0.008591
2649.000000	0.008546
2648.000000	0.008499
2647.000000	0.008466
2646.000000	0.008453
2645.000000	0.008450
2644.000000	0.008441
2643.000000	0.008415
2642.000000	0.008379
2641.000000	0.008347
2640.000000	0.008325
2639.000000	0.008308
2638.000000	0.008292
2637.000000	0.008276
2636.000000	0.008257
2635.000000	0.008234
2634.000000	0.008204
2633.000000	0.008170
2632.000000	0.008134
2631.000000	0.008097
2630.000000	0.008066
2629.000000	0.008045
2628.000000	0.008033
2627.000000	0.008015
2626.000000	0.007980
2625.000000	0.007933
2624.000000	0.007890
2623.000000	0.007867
2622.000000	0.007866
2621.000000	0.007877
2620.000000	0.007886
2619.000000	0.007884
2618.000000	0.007866
2617.000000	0.007839
2616.000000	0.007813
2615.000000	0.007788
2614.000000	0.007756
2613.000000	0.007711
2612.000000	0.007657
2611.000000	0.007615
2610.000000	0.007597
2609.000000	0.007597
2608.000000	0.007602
2607.000000	0.007606
2606.000000	0.007610
2605.000000	0.007612
2604.000000	0.007599
2603.000000	0.007560
2602.000000	0.007510
2601.000000	0.007480
2600.000000	0.007483
2599.000000	0.007505
2598.000000	0.007520
2597.000000	0.007514
2596.000000	0.007487
2595.000000	0.007452
2594.000000	0.007418
2593.000000	0.007389
2592.000000	0.007365
2591.000000	0.007344
2590.000000	0.007325
2589.000000	0.007306
2588.000000	0.007283
2587.000000	0.007253
2586.000000	0.007220
2585.000000	0.007187
2584.000000	0.007155
2583.000000	0.007128
2582.000000	0.007121
2581.000000	0.007141
2580.000000	0.007174
2579.000000	0.007187
2578.000000	0.007166
2577.000000	0.007120
2576.000000	0.007070
2575.000000	0.007026
2574.000000	0.006995
2573.000000	0.006985
2572.000000	0.007002
2571.000000	0.007033
2570.000000	0.007053
2569.000000	0.007053
2568.000000	0.007050
2567.000000	0.007068
2566.000000	0.007103
2565.000000	0.007119
2564.000000	0.007085
2563.000000	0.007013
2562.000000	0.006948
2561.000000	0.006922
2560.000000	0.006924
2559.000000	0.006924
2558.000000	0.006902
2557.000000	0.006868
2556.000000	0.006842
2555.000000	0.006842
2554.000000	0.006868
2553.000000	0.006904
2552.000000	0.006926
2551.000000	0.006914
2550.000000	0.006867
2549.000000	0.006803
2548.000000	0.006748
2547.000000	0.006720
2546.000000	0.006727
2545.000000	0.006758
2544.000000	0.006789
2543.000000	0.006799
2542.000000	0.006781
2541.000000	0.006746
2540.000000	0.006711
2539.000000	0.006693
2538.000000	0.006703
2537.000000	0.006737
2536.000000	0.006771
2535.000000	0.006781
2534.000000	0.006759
2533.000000	0.006723
2532.000000	0.006694
2531.000000	0.006683
2530.000000	0.006689
2529.000000	0.006696
2528.000000	0.006691
2527.000000	0.006676
2526.000000	0.006670
2525.000000	0.006685
2524.000000	0.006708
2523.000000	0.006718
2522.000000	0.006705
2521.000000	0.006676
2520.000000	0.006642
2519.000000	0.006610
2518.000000	0.006589
2517.000000	0.006587
2516.000000	0.006596
2515.000000	0.006603
2514.000000	0.006606
2513.000000	0.006612
2512.000000	0.006620
2511.000000	0.006615
2510.000000	0.006596
2509.000000	0.006584
2508.000000	0.006595
2507.000000	0.006618
2506.000000	0.006628
2505.000000	0.006613
2504.000000	0.006586
2503.000000	0.006560
2502.000000	0.006539
2501.000000	0.006518
2500.000000	0.006505
2499.000000	0.006508
2498.000000	0.006526
2497.000000	0.006542
2496.000000	0.006540
2495.000000	0.006519
2494.000000	0.006490
2493.000000	0.006459
2492.000000	0.006427
2491.000000	0.006399
2490.000000	0.006382
2489.000000	0.006381
2488.000000	0.006390
2487.000000	0.006400
2486.000000	0.006410
2485.000000	0.006426
2484.000000	0.006443
2483.000000	0.006459
2482.000000	0.006470
2481.000000	0.006475
2480.000000	0.006463
2479.000000	0.006431
2478.000000	0.006388
2477.000000	0.006357
2476.000000	0.006347
2475.000000	0.006353
2474.000000	0.006363
2473.000000	0.006366
2472.000000	0.006355
2471.000000	0.006333
2470.000000	0.006318
2469.000000	0.006327
2468.000000	0.006352
2467.000000	0.006368
2466.000000	0.006354
2465.000000	0.006314
2464.000000	0.006266
2463.000000	0.006236
2462.000000	0.006239
2461.000000	0.006276
2460.000000	0.006322
2459.000000	0.006350
2458.000000	0.006349
2457.000000	0.006328
2456.000000	0.006299
2455.000000	0.006267
2454.000000	0.006240
2453.000000	0.006232
2452.000000	0.006248
2451.000000	0.006276
2450.000000	0.006301
2449.000000	0.006317
2448.000000	0.006325
2447.000000	0.006322
2446.000000	0.006304
2445.000000	0.006268
2444.000000	0.006223
2443.000000	0.006178
2442.000000	0.006146
2441.000000	0.006134
2440.000000	0.006142
2439.000000	0.006166
2438.000000	0.006196
2437.000000	0.006217
2436.000000	0.006214
2435.000000	0.006186
2434.000000	0.006146
2433.000000	0.006117
2432.000000	0.006106
2431.000000	0.006104
2430.000000	0.006105
2429.000000	0.006113
2428.000000	0.006128
2427.000000	0.006147
2426.000000	0.006162
2425.000000	0.006169
2424.000000	0.006170
2423.000000	0.006164
2422.000000	0.006156
2421.000000	0.006152
2420.000000	0.006150
2419.000000	0.006149
2418.000000	0.006147
2417.000000	0.006146
2416.000000	0.006141
2415.000000	0.006123
2414.000000	0.006089
2413.000000	0.006050
2412.000000	0.006019
2411.000000	0.006007
2410.000000	0.006018
2409.000000	0.006046
2408.000000	0.006081
2407.000000	0.006109
2406.000000	0.006116
2405.000000	0.006100
2404.000000	0.006069
2403.000000	0.006037
2402.000000	0.006017
2401.000000	0.006012
2400.000000	0.006012
2399.000000	0.006009
2398.000000	0.006005
2397.000000	0.006001
2396.000000	0.005997
2395.000000	0.005998
2394.000000	0.006017
2393.000000	0.006060
2392.000000	0.006109
2391.000000	0.006140
2390.000000	0.006144
2389.000000	0.006136
2388.000000	0.006135
2387.000000	0.006146
2386.000000	0.006170
2385.000000	0.006195
2384.000000	0.006205
2383.000000	0.006192
2382.000000	0.006166
2381.000000	0.006141
2380.000000	0.006119
2379.000000	0.006098
2378.000000	0.006085
2377.000000	0.006093
2376.000000	0.006112
2375.000000	0.006119
2374.000000	0.006110
2373.000000	0.006116
2372.000000	0.006157
2371.000000	0.006220
2370.000000	0.006274
2369.000000	0.006303
2368.000000	0.006302
2367.000000	0.006268
2366.000000	0.006221
2365.000000	0.006199
2364.000000	0.006224
2363.000000	0.006266
2362.000000	0.006285
2361.000000	0.006274
2360.000000	0.006247
2359.000000	0.006215
2358.000000	0.006178
2357.000000	0.006158
2356.000000	0.006178
2355.000000	0.006236
2354.000000	0.006300
2353.000000	0.006336
2352.000000	0.006337
2351.000000	0.006320
2350.000000	0.006310
2349.000000	0.006318
2348.000000	0.006334
2347.000000	0.006344
2346.000000	0.006343
2345.000000	0.006344
2344.000000	0.006363
2343.000000	0.006394
2342.000000	0.006418
2341.000000	0.006415
2340.000000	0.006392
2339.000000	0.006363
2338.000000	0.006333
2337.000000	0.006304
2336.000000	0.006293
2335.000000	0.006310
2334.000000	0.006347
2333.000000	0.006376
2332.000000	0.006383
2331.000000	0.006371
2330.000000	0.006359
2329.000000	0.006366
2328.000000	0.006400
2327.000000	0.006465
2326.000000	0.006548
2325.000000	0.006614
2324.000000	0.006624
2323.000000	0.006569
2322.000000	0.006485
2321.000000	0.006419
2320.000000	0.006387
2319.000000	0.006366
2318.000000	0.006338
2317.000000	0.006302
2316.000000	0.006273
2315.000000	0.006259
2314.000000	0.006261
2313.000000	0.006269
2312.000000	0.006276
2311.000000	0.006275
2310.000000	0.006272
2309.000000	0.006270
2308.000000	0.006261
2307.000000	0.006226
2306.000000	0.006161
2305.000000	0.006087
2304.000000	0.006039
2303.000000	0.006039
2302.000000	0.006079
2301.000000	0.006132
2300.000000	0.006170
2299.000000	0.006184
2298.000000	0.006182
2297.000000	0.006173
2296.000000	0.006163
2295.000000	0.006150
2294.000000	0.006136
2293.000000	0.006123
2292.000000	0.006109
2291.000000	0.006095
2290.000000	0.006086
2289.000000	0.006095
2288.000000	0.006122
2287.000000	0.006150
2286.000000	0.006160
2285.000000	0.006146
2284.000000	0.006118
2283.000000	0.006095
2282.000000	0.006084
2281.000000	0.006073
2280.000000	0.006044
2279.000000	0.006002
2278.000000	0.005973
2277.000000	0.005974
2276.000000	0.005986
2275.000000	0.005979
2274.000000	0.005953
2273.000000	0.005931
2272.000000	0.005921
2271.000000	0.005911
2270.000000	0.005889
2269.000000	0.005861
2268.000000	0.005839
2267.000000	0.005830
2266.000000	0.005835
2265.000000	0.005846
2264.000000	0.005841
2263.000000	0.005809
2262.000000	0.005765
2261.000000	0.005732
2260.000000	0.005712
2259.000000	0.005687
2258.000000	0.005649
2257.000000	0.005612
2256.000000	0.005590
2255.000000	0.005581
2254.000000	0.005585
2253.000000	0.005597
2252.000000	0.005606
2251.000000	0.005609
2250.000000	0.005624
2249.000000	0.005661
2248.000000	0.005695
2247.000000	0.005690
2246.000000	0.005649
2245.000000	0.005613
2244.000000	0.005595
2243.000000	0.005573
2242.000000	0.005527
2241.000000	0.005476
2240.000000	0.005458
2239.000000	0.005503
2238.000000	0.005613
2237.000000	0.005752
2236.000000	0.005845
2235.000000	0.005837
2234.000000	0.005762
2233.000000	0.005718
2232.000000	0.005748
2231.000000	0.005794
2230.000000	0.005779
2229.000000	0.005696
2228.000000	0.005596
2227.000000	0.005511
2226.000000	0.005433
2225.000000	0.005352
2224.000000	0.005285
2223.000000	0.005257
2222.000000	0.005285
2221.000000	0.005359
2220.000000	0.005445
2219.000000	0.005516
2218.000000	0.005565
2217.000000	0.005586
2216.000000	0.005542
2215.000000	0.005413
2214.000000	0.005260
2213.000000	0.005201
2212.000000	0.005286
2211.000000	0.005430
2210.000000	0.005502
2209.000000	0.005465
2208.000000	0.005398
2207.000000	0.005397
2206.000000	0.005494
2205.000000	0.005635
2204.000000	0.005732
2203.000000	0.005715
2202.000000	0.005584
2201.000000	0.005396
2200.000000	0.005225
2199.000000	0.005114
2198.000000	0.005063
2197.000000	0.005037
2196.000000	0.004995
2195.000000	0.004931
2194.000000	0.004882
2193.000000	0.004867
2192.000000	0.004849
2191.000000	0.004784
2190.000000	0.004709
2189.000000	0.004719
2188.000000	0.004854
2187.000000	0.005036
2186.000000	0.005157
2185.000000	0.005172
2184.000000	0.005095
2183.000000	0.004957
2182.000000	0.004801
2181.000000	0.004700
2180.000000	0.004716
2179.000000	0.004859
2178.000000	0.005092
2177.000000	0.005345
2176.000000	0.005523
2175.000000	0.005538
2174.000000	0.005378
2173.000000	0.005133
2172.000000	0.004931
2171.000000	0.004835
2170.000000	0.004818
2169.000000	0.004811
2168.000000	0.004779
2167.000000	0.004745
2166.000000	0.004765
2165.000000	0.004857
2164.000000	0.004958
2163.000000	0.004986
2162.000000	0.004917
2161.000000	0.004789
2160.000000	0.004636
2159.000000	0.004466
2158.000000	0.004301
2157.000000	0.004177
2156.000000	0.004121
2155.000000	0.004150
2154.000000	0.004290
2153.000000	0.004527
2152.000000	0.004764
2151.000000	0.004876
2150.000000	0.004821
2149.000000	0.004672
2148.000000	0.004555
2147.000000	0.004557
2146.000000	0.004690
2145.000000	0.004891
2144.000000	0.005052
2143.000000	0.005100
2142.000000	0.005065
2141.000000	0.005037
2140.000000	0.005069
2139.000000	0.005127
2138.000000	0.005151
2137.000000	0.005123
2136.000000	0.005058
2135.000000	0.004971
2134.000000	0.004867
2133.000000	0.004762
2132.000000	0.004693
2131.000000	0.004693
2130.000000	0.004765
2129.000000	0.004878
2128.000000	0.004999
2127.000000	0.005122
2126.000000	0.005257
2125.000000	0.005389
2124.000000	0.005477
2123.000000	0.005493
2122.000000	0.005465
2121.000000	0.005443
2120.000000	0.005449
2119.000000	0.005475
2118.000000	0.005509
2117.000000	0.005549
2116.000000	0.005579
2115.000000	0.005571
2114.000000	0.005526
2113.000000	0.005485
2112.000000	0.005493
2111.000000	0.005548
2110.000000	0.005599
2109.000000	0.005604
2108.000000	0.005568
2107.000000	0.005546
2106.000000	0.005576
2105.000000	0.005630
2104.000000	0.005638
2103.000000	0.005567
2102.000000	0.005465
2101.000000	0.005404
2100.000000	0.005405
2099.000000	0.005426
2098.000000	0.005428
2097.000000	0.005406
2096.000000	0.005374
2095.000000	0.005335
2094.000000	0.005296
2093.000000	0.005279
2092.000000	0.005310
2091.000000	0.005398
2090.000000	0.005509
2089.000000	0.005583
2088.000000	0.005584
2087.000000	0.005534
2086.000000	0.005498
2085.000000	0.005508
2084.000000	0.005530
2083.000000	0.005515
2082.000000	0.005456
2081.000000	0.005400
2080.000000	0.005390
2079.000000	0.005424
2078.000000	0.005461
2077.000000	0.005452
2076.000000	0.005383
2075.000000	0.005292
2074.000000	0.005236
2073.000000	0.005220
2072.000000	0.005196
2071.000000	0.005137
2070.000000	0.005075
2069.000000	0.005051
2068.000000	0.005046
2067.000000	0.005018
2066.000000	0.004985
2065.000000	0.005010
2064.000000	0.005106
2063.000000	0.005207
2062.000000	0.005236
2061.000000	0.005172
2060.000000	0.005051
2059.000000	0.004929
2058.000000	0.004844
2057.000000	0.004798
2056.000000	0.004765
2055.000000	0.004735
2054.000000	0.004728
2053.000000	0.004763
2052.000000	0.004813
2051.000000	0.004834
2050.000000	0.004818
2049.000000	0.004789
2048.000000	0.004759
2047.000000	0.004731
2046.000000	0.004715
2045.000000	0.004707
2044.000000	0.004677
2043.000000	0.004611
2042.000000	0.004541
2041.000000	0.004487
2040.000000	0.004415
2039.000000	0.004308
2038.000000	0.004242
2037.000000	0.004303
2036.000000	0.004432
2035.000000	0.004457
2034.000000	0.004290
2033.000000	0.004035
2032.000000	0.003876
2031.000000	0.003921
2030.000000	0.004149
2029.000000	0.004433
2028.000000	0.004615
2027.000000	0.004621
2026.000000	0.004505
2025.000000	0.004369
2024.000000	0.004259
2023.000000	0.004184
2022.000000	0.004161
2021.000000	0.004196
2020.000000	0.004259
2019.000000	0.004332
2018.000000	0.004442
2017.000000	0.004566
2016.000000	0.004596
2015.000000	0.004466
2014.000000	0.004257
2013.000000	0.004077
2012.000000	0.003918
2011.000000	0.003718
2010.000000	0.003515
2009.000000	0.003416
2008.000000	0.003438
2007.000000	0.003494
2006.000000	0.003543
2005.000000	0.003611
2004.000000	0.003693
2003.000000	0.003743
2002.000000	0.003765
2001.000000	0.003809
2000.000000	0.003892
1999.000000	0.003984
1998.000000	0.004071
1997.000000	0.004151
1996.000000	0.004194
1995.000000	0.004162
1994.000000	0.004084
1993.000000	0.004034
1992.000000	0.004030
1991.000000	0.004015
1990.000000	0.003942
1989.000000	0.003831
1988.000000	0.003730
1987.000000	0.003683
1986.000000	0.003717
1985.000000	0.003834
1984.000000	0.004009
1983.000000	0.004215
1982.000000	0.004431
1981.000000	0.004593
1980.000000	0.004585
1979.000000	0.004358
1978.000000	0.004014
1977.000000	0.003715
1976.000000	0.003533
1975.000000	0.003464
1974.000000	0.003525
1973.000000	0.003706
1972.000000	0.003894
1971.000000	0.003974
1970.000000	0.003951
1969.000000	0.003890
1968.000000	0.003805
1967.000000	0.003684
1966.000000	0.003591
1965.000000	0.003594
1964.000000	0.003638
1963.000000	0.003613
1962.000000	0.003515
1961.000000	0.003446
1960.000000	0.003476
1959.000000	0.003590
1958.000000	0.003749
1957.000000	0.003906
1956.000000	0.003996
1955.000000	0.003987
1954.000000	0.003940
1953.000000	0.003943
1952.000000	0.004002
1951.000000	0.004063
1950.000000	0.004124
1949.000000	0.004219
1948.000000	0.004312
1947.000000	0.004313
1946.000000	0.004198
1945.000000	0.004048
1944.000000	0.003938
1943.000000	0.003868
1942.000000	0.003811
1941.000000	0.003780
1940.000000	0.003801
1939.000000	0.003876
1938.000000	0.003995
1937.000000	0.004132
1936.000000	0.004235
1935.000000	0.004276
1934.000000	0.004283
1933.000000	0.004305
1932.000000	0.004338
1931.000000	0.004328
1930.000000	0.004253
1929.000000	0.004147
1928.000000	0.004064
1927.000000	0.004041
1926.000000	0.004094
1925.000000	0.004205
1924.000000	0.004289
1923.000000	0.004273
1922.000000	0.004186
1921.000000	0.004128
1920.000000	0.004135
1919.000000	0.004161
1918.000000	0.004163
1917.000000	0.004157
1916.000000	0.004170
1915.000000	0.004192
1914.000000	0.004203
1913.000000	0.004217
1912.000000	0.004258
1911.000000	0.004332
1910.000000	0.004421
1909.000000	0.004485
1908.000000	0.004487
1907.000000	0.004424
1906.000000	0.004330
1905.000000	0.004254
1904.000000	0.004203
1903.000000	0.004173
1902.000000	0.004176
1901.000000	0.004224
1900.000000	0.004291
1899.000000	0.004337
1898.000000	0.004358
1897.000000	0.004370
1896.000000	0.004363
1895.000000	0.004308
1894.000000	0.004220
1893.000000	0.004156
1892.000000	0.004148
1891.000000	0.004178
1890.000000	0.004213
1889.000000	0.004240
1888.000000	0.004266
1887.000000	0.004291
1886.000000	0.004304
1885.000000	0.004297
1884.000000	0.004263
1883.000000	0.004216
1882.000000	0.004187
1881.000000	0.004191
1880.000000	0.004203
1879.000000	0.004190
1878.000000	0.004140
1877.000000	0.004071
1876.000000	0.004001
1875.000000	0.003942
1874.000000	0.003908
1873.000000	0.003897
1872.000000	0.003880
1871.000000	0.003841
1870.000000	0.003815
1869.000000	0.003832
1868.000000	0.003863
1867.000000	0.003876
1866.000000	0.003881
1865.000000	0.003903
1864.000000	0.003940
1863.000000	0.003976
1862.000000	0.004009
1861.000000	0.004042
1860.000000	0.004057
1859.000000	0.004036
1858.000000	0.003994
1857.000000	0.003966
1856.000000	0.003963
1855.000000	0.003977
1854.000000	0.004009
1853.000000	0.004057
1852.000000	0.004090
1851.000000	0.004088
1850.000000	0.004053
1849.000000	0.004007
1848.000000	0.003950
1847.000000	0.003878
1846.000000	0.003808
1845.000000	0.003775
1844.000000	0.003787
1843.000000	0.003816
1842.000000	0.003847
1841.000000	0.003884
1840.000000	0.003914
1839.000000	0.003917
1838.000000	0.003907
1837.000000	0.003917
1836.000000	0.003940
1835.000000	0.003934
1834.000000	0.003882
1833.000000	0.003794
1832.000000	0.003690
1831.000000	0.003591
1830.000000	0.003508
1829.000000	0.003473
1828.000000	0.003514
1827.000000	0.003609
1826.000000	0.003714
1825.000000	0.003800
1824.000000	0.003858
1823.000000	0.003895
1822.000000	0.003923
1821.000000	0.003942
1820.000000	0.003939
1819.000000	0.003904
1818.000000	0.003851
1817.000000	0.003816
1816.000000	0.003804
1815.000000	0.003794
1814.000000	0.003773
1813.000000	0.003753
1812.000000	0.003754
1811.000000	0.003772
1810.000000	0.003802
1809.000000	0.003849
1808.000000	0.003894
1807.000000	0.003912
1806.000000	0.003911
1805.000000	0.003919
1804.000000	0.003934
1803.000000	0.003921
1802.000000	0.003852
1801.000000	0.003735
1800.000000	0.003633
1799.000000	0.003603
1798.000000	0.003653
1797.000000	0.003723
1796.000000	0.003739
1795.000000	0.003678
1794.000000	0.003579
1793.000000	0.003506
1792.000000	0.003481
1791.000000	0.003488
1790.000000	0.003539
1789.000000	0.003637
1788.000000	0.003741
1787.000000	0.003799
1786.000000	0.003795
1785.000000	0.003755
1784.000000	0.003705
1783.000000	0.003671
1782.000000	0.003669
1781.000000	0.003678
1780.000000	0.003680
1779.000000	0.003675
1778.000000	0.003688
1777.000000	0.003717
1776.000000	0.003732
1775.000000	0.003705
1774.000000	0.003619
1773.000000	0.003495
1772.000000	0.003396
1771.000000	0.003392
1770.000000	0.003523
1769.000000	0.003731
1768.000000	0.003873
1767.000000	0.003872
1766.000000	0.003796
1765.000000	0.003741
1764.000000	0.003715
1763.000000	0.003665
1762.000000	0.003588
1761.000000	0.003545
1760.000000	0.003578
1759.000000	0.003655
1758.000000	0.003742
1757.000000	0.003818
1756.000000	0.003889
1755.000000	0.003998
1754.000000	0.004184
1753.000000	0.004431
1752.000000	0.004660
1751.000000	0.004805
1750.000000	0.004906
1749.000000	0.005073
1748.000000	0.005324
1747.000000	0.005599
1746.000000	0.005865
1745.000000	0.006118
1744.000000	0.006322
1743.000000	0.006401
1742.000000	0.006386
1741.000000	0.006424
1740.000000	0.006577
1739.000000	0.006726
1738.000000	0.006793
1737.000000	0.006834
1736.000000	0.006871
1735.000000	0.006858
1734.000000	0.006796
1733.000000	0.006732
1732.000000	0.006679
1731.000000	0.006627
1730.000000	0.006580
1729.000000	0.006542
1728.000000	0.006515
1727.000000	0.006503
1726.000000	0.006502
1725.000000	0.006524
1724.000000	0.006555
1723.000000	0.006515
1722.000000	0.006385
1721.000000	0.006262
1720.000000	0.006261
1719.000000	0.006406
1718.000000	0.006611
1717.000000	0.006768
1716.000000	0.006858
1715.000000	0.006930
1714.000000	0.007048
1713.000000	0.007246
1712.000000	0.007481
1711.000000	0.007690
1710.000000	0.007853
1709.000000	0.007977
1708.000000	0.008083
1707.000000	0.008234
1706.000000	0.008486
1705.000000	0.008823
1704.000000	0.009158
1703.000000	0.009426
1702.000000	0.009619
1701.000000	0.009963
1700.000000	0.010715
1699.000000	0.011678
1698.000000	0.012665
1697.000000	0.013676
1696.000000	0.014594
1695.000000	0.015281
1694.000000	0.015792
1693.000000	0.016310
1692.000000	0.016949
1691.000000	0.017647
1690.000000	0.018322
1689.000000	0.018961
1688.000000	0.019593
1687.000000	0.020205
1686.000000	0.020756
1685.000000	0.021402
1684.000000	0.022221
1683.000000	0.023050
1682.000000	0.023935
1681.000000	0.024905
1680.000000	0.025823
1679.000000	0.026539
1678.000000	0.027104
1677.000000	0.027727
1676.000000	0.028576
1675.000000	0.029600
1674.000000	0.030583
1673.000000	0.031447
1672.000000	0.032275
1671.000000	0.033156
1670.000000	0.034167
1669.000000	0.035305
1668.000000	0.036444
1667.000000	0.037425
1666.000000	0.038216
1665.000000	0.038930
1664.000000	0.039693
1663.000000	0.040539
1662.000000	0.041428
1661.000000	0.042334
1660.000000	0.043232
1659.000000	0.044023
1658.000000	0.044615
1657.000000	0.045062
1656.000000	0.045494
1655.000000	0.045929
1654.000000	0.046405
1653.000000	0.047056
1652.000000	0.047752
1651.000000	0.048182
1650.000000	0.048393
1649.000000	0.048710
1648.000000	0.049195
1647.000000	0.049692
1646.000000	0.050112
1645.000000	0.050553
1644.000000	0.050998
1643.000000	0.051395
1642.000000	0.051737
1641.000000	0.051992
1640.000000	0.052150
1639.000000	0.052245
1638.000000	0.052311
1637.000000	0.052348
1636.000000	0.052349
1635.000000	0.052395
1634.000000	0.052597
1633.000000	0.052916
1632.000000	0.053213
1631.000000	0.053353
1630.000000	0.053274
1629.000000	0.053034
1628.000000	0.052724
1627.000000	0.052382
1626.000000	0.052001
1625.000000	0.051547
1624.000000	0.050999
1623.000000	0.050370
1622.000000	0.049732
1621.000000	0.049159
1620.000000	0.048645
1619.000000	0.048090
1618.000000	0.047316
1617.000000	0.046248
1616.000000	0.045068
1615.000000	0.044034
1614.000000	0.043194
1613.000000	0.042432
1612.000000	0.041600
1611.000000	0.040655
1610.000000	0.039675
1609.000000	0.038729
1608.000000	0.037825
1607.000000	0.036973
1606.000000	0.036204
1605.000000	0.035508
1604.000000	0.034862
1603.000000	0.034251
1602.000000	0.033674
1601.000000	0.033124
1600.000000	0.032608
1599.000000	0.032156
1598.000000	0.031792
1597.000000	0.031500
1596.000000	0.031248
1595.000000	0.031023
1594.000000	0.030829
1593.000000	0.030659
1592.000000	0.030503
1591.000000	0.030366
1590.000000	0.030250
1589.000000	0.030133
1588.000000	0.030005
1587.000000	0.029898
1586.000000	0.029853
1585.000000	0.029858
1584.000000	0.029885
1583.000000	0.029963
1582.000000	0.030107
1581.000000	0.030288
1580.000000	0.030500
1579.000000	0.030804
1578.000000	0.031213
1577.000000	0.031637
1576.000000	0.031968
1575.000000	0.032193
1574.000000	0.032388
1573.000000	0.032600
1572.000000	0.032818
1571.000000	0.033051
1570.000000	0.033414
1569.000000	0.033960
1568.000000	0.034609
1567.000000	0.035281
1566.000000	0.035946
1565.000000	0.036594
1564.000000	0.037186
1563.000000	0.037712
1562.000000	0.038115
1561.000000	0.038248
1560.000000	0.038300
1559.000000	0.038613
1558.000000	0.039138
1557.000000	0.039958
1556.000000	0.040866
1555.000000	0.041691
1554.000000	0.042348
1553.000000	0.042854
1552.000000	0.043310
1551.000000	0.043754
1550.000000	0.044123
1549.000000	0.044384
1548.000000	0.044589
1547.000000	0.044801
1546.000000	0.045014
1545.000000	0.045173
1544.000000	0.045224
1543.000000	0.045196
1542.000000	0.045205
1541.000000	0.045340
1540.000000	0.045512
1539.000000	0.045666
1538.000000	0.045819
1537.000000	0.045886
1536.000000	0.045874
1535.000000	0.045795
1534.000000	0.045651
1533.000000	0.045500
1532.000000	0.045445
1531.000000	0.045465
1530.000000	0.045439
1529.000000	0.045313
1528.000000	0.045101
1527.000000	0.044800
1526.000000	0.044416
1525.000000	0.044012
1524.000000	0.043684
1523.000000	0.043441
1522.000000	0.043173
1521.000000	0.042794
1520.000000	0.042389
1519.000000	0.042078
1518.000000	0.041890
1517.000000	0.041743
1516.000000	0.041536
1515.000000	0.041277
1514.000000	0.040985
1513.000000	0.040614
1512.000000	0.040130
1511.000000	0.039573
1510.000000	0.039032
1509.000000	0.038527
1508.000000	0.037943
1507.000000	0.037071
1506.000000	0.036147
1505.000000	0.035623
1504.000000	0.035284
1503.000000	0.034880
1502.000000	0.034320
1501.000000	0.033555
1500.000000	0.032643
1499.000000	0.031715
1498.000000	0.030828
1497.000000	0.029950
1496.000000	0.029067
1495.000000	0.028214
1494.000000	0.027431
1493.000000	0.026738
1492.000000	0.026125
1491.000000	0.025549
1490.000000	0.024971
1489.000000	0.024412
1488.000000	0.023954
1487.000000	0.023614
1486.000000	0.023367
1485.000000	0.023189
1484.000000	0.023060
1483.000000	0.022976
1482.000000	0.022944
1481.000000	0.022981
1480.000000	0.023070
1479.000000	0.023173
1478.000000	0.023276
1477.000000	0.023408
1476.000000	0.023583
1475.000000	0.023775
1474.000000	0.023975
1473.000000	0.024209
1472.000000	0.024491
1471.000000	0.024825
1470.000000	0.025206
1469.000000	0.025600
1468.000000	0.025957
1467.000000	0.026248
1466.000000	0.026533
1465.000000	0.026898
1464.000000	0.027348
1463.000000	0.027786
1462.000000	0.028119
1461.000000	0.028358
1460.000000	0.028598
1459.000000	0.028950
1458.000000	0.029481
1457.000000	0.030145
1456.000000	0.030764
1455.000000	0.031216
1454.000000	0.031546
1453.000000	0.031847
1452.000000	0.032084
1451.000000	0.032191
1450.000000	0.032197
1449.000000	0.032177
1448.000000	0.032151
1447.000000	0.032111
1446.000000	0.032087
1445.000000	0.032076
1444.000000	0.032047
1443.000000	0.031958
1442.000000	0.031796
1441.000000	0.031584
1440.000000	0.031351
1439.000000	0.031091
1438.000000	0.030776
1437.000000	0.030438
1436.000000	0.030136
1435.000000	0.029899
1434.000000	0.029687
1433.000000	0.029430
1432.000000	0.029079
1431.000000	0.028656
1430.000000	0.028252
1429.000000	0.027948
1428.000000	0.027751
1427.000000	0.027626
1426.000000	0.027547
1425.000000	0.027482
1424.000000	0.027409
1423.000000	0.027325
1422.000000	0.027257
1421.000000	0.027209
1420.000000	0.027195
1419.000000	0.027231
1418.000000	0.027288
1417.000000	0.027369
1416.000000	0.027478
1415.000000	0.027588
1414.000000	0.027682
1413.000000	0.027783
1412.000000	0.027913
1411.000000	0.028059
1410.000000	0.028205
1409.000000	0.028365
1408.000000	0.028554
1407.000000	0.028760
1406.000000	0.028972
1405.000000	0.029168
1404.000000	0.029322
1403.000000	0.029409
1402.000000	0.029432
1401.000000	0.029420
1400.000000	0.029399
1399.000000	0.029369
1398.000000	0.029324
1397.000000	0.029271
1396.000000	0.029193
1395.000000	0.029065
1394.000000	0.028924
1393.000000	0.028829
1392.000000	0.028778
1391.000000	0.028729
1390.000000	0.028666
1389.000000	0.028599
1388.000000	0.028521
1387.000000	0.028396
1386.000000	0.028223
1385.000000	0.028047
1384.000000	0.027890
1383.000000	0.027734
1382.000000	0.027569
1381.000000	0.027414
1380.000000	0.027272
1379.000000	0.027114
1378.000000	0.026929
1377.000000	0.026738
1376.000000	0.026561
1375.000000	0.026379
1374.000000	0.026154
1373.000000	0.025905
1372.000000	0.025681
1371.000000	0.025490
1370.000000	0.025315
1369.000000	0.025133
1368.000000	0.024938
1367.000000	0.024732
1366.000000	0.024524
1365.000000	0.024321
1364.000000	0.024113
1363.000000	0.023867
1362.000000	0.023564
1361.000000	0.023251
1360.000000	0.022973
1359.000000	0.022736
1358.000000	0.022533
1357.000000	0.022362
1356.000000	0.022221
1355.000000	0.022100
1354.000000	0.022004
1353.000000	0.021958
1352.000000	0.021982
1351.000000	0.022061
1350.000000	0.022166
1349.000000	0.022280
1348.000000	0.022410
1347.000000	0.022562
1346.000000	0.022728
1345.000000	0.022899
1344.000000	0.023090
1343.000000	0.023327
1342.000000	0.023625
1341.000000	0.023956
1340.000000	0.024245
1339.000000	0.024416
1338.000000	0.024460
1337.000000	0.024422
1336.000000	0.024347
1335.000000	0.024249
1334.000000	0.024123
1333.000000	0.023961
1332.000000	0.023758
1331.000000	0.023519
1330.000000	0.023263
1329.000000	0.023011
1328.000000	0.022774
1327.000000	0.022565
1326.000000	0.022402
1325.000000	0.022299
1324.000000	0.022256
1323.000000	0.022258
1322.000000	0.022295
1321.000000	0.022364
1320.000000	0.022451
1319.000000	0.022536
1318.000000	0.022604
1317.000000	0.022662
1316.000000	0.022724
1315.000000	0.022785
1314.000000	0.022816
1313.000000	0.022783
1312.000000	0.022671
1311.000000	0.022495
1310.000000	0.022291
1309.000000	0.022096
1308.000000	0.021920
1307.000000	0.021745
1306.000000	0.021552
1305.000000	0.021338
1304.000000	0.021119
1303.000000	0.020908
1302.000000	0.020707
1301.000000	0.020519
1300.000000	0.020351
1299.000000	0.020206
1298.000000	0.020083
1297.000000	0.019990
1296.000000	0.019942
1295.000000	0.019959
1294.000000	0.020044
1293.000000	0.020182
1292.000000	0.020355
1291.000000	0.020551
1290.000000	0.020759
1289.000000	0.020970
1288.000000	0.021173
1287.000000	0.021368
1286.000000	0.021566
1285.000000	0.021789
1284.000000	0.022052
1283.000000	0.022347
1282.000000	0.022645
1281.000000	0.022916
1280.000000	0.023131
1279.000000	0.023277
1278.000000	0.023359
1277.000000	0.023396
1276.000000	0.023411
1275.000000	0.023421
1274.000000	0.023435
1273.000000	0.023458
1272.000000	0.023486
1271.000000	0.023514
1270.000000	0.023540
1269.000000	0.023565
1268.000000	0.023589
1267.000000	0.023607
1266.000000	0.023614
1265.000000	0.023618
1264.000000	0.023639
1263.000000	0.023700
1262.000000	0.023812
1261.000000	0.023974
1260.000000	0.024174
1259.000000	0.024414
1258.000000	0.024704
1257.000000	0.025038
1256.000000	0.025387
1255.000000	0.025718
1254.000000	0.026025
1253.000000	0.026325
1252.000000	0.026633
1251.000000	0.026957
1250.000000	0.027307
1249.000000	0.027691
1248.000000	0.028092
1247.000000	0.028490
1246.000000	0.028884
1245.000000	0.029298
1244.000000	0.029739
1243.000000	0.030189
1242.000000	0.030627
1241.000000	0.031049
1240.000000	0.031447
1239.000000	0.031809
1238.000000	0.032128
1237.000000	0.032409
1236.000000	0.032646
1235.000000	0.032817
1234.000000	0.032907
1233.000000	0.032919
1232.000000	0.032854
1231.000000	0.032702
1230.000000	0.032461
1229.000000	0.032141
1228.000000	0.031750
1227.000000	0.031286
1226.000000	0.030753
1225.000000	0.030160
1224.000000	0.029513
1223.000000	0.028815
1222.000000	0.028083
1221.000000	0.027351
1220.000000	0.026645
1219.000000	0.025984
1218.000000	0.025391
1217.000000	0.024888
1216.000000	0.024482
1215.000000	0.024152
1214.000000	0.023880
1213.000000	0.023660
1212.000000	0.023491
1211.000000	0.023364
1210.000000	0.023272
1209.000000	0.023214
1208.000000	0.023179
1207.000000	0.023143
1206.000000	0.023085
1205.000000	0.023009
1204.000000	0.022921
1203.000000	0.022817
1202.000000	0.022675
1201.000000	0.022476
1200.000000	0.022208
1199.000000	0.021874
1198.000000	0.021487
1197.000000	0.021063
1196.000000	0.020617
1195.000000	0.020158
1194.000000	0.019701
1193.000000	0.019265
1192.000000	0.018862
1191.000000	0.018495
1190.000000	0.018164
1189.000000	0.017872
1188.000000	0.017624
1187.000000	0.017429
1186.000000	0.017304
1185.000000	0.017261
1184.000000	0.017295
1183.000000	0.017385
1182.000000	0.017509
1181.000000	0.017663
1180.000000	0.017841
1179.000000	0.018024
1178.000000	0.018191
1177.000000	0.018339
1176.000000	0.018476
1175.000000	0.018609
1174.000000	0.018739
1173.000000	0.018871
1172.000000	0.019014
1171.000000	0.019175
1170.000000	0.019349
1169.000000	0.019523
1168.000000	0.019686
1167.000000	0.019831
1166.000000	0.019961
1165.000000	0.020091
1164.000000	0.020215
1163.000000	0.020309
1162.000000	0.020348
1161.000000	0.020330
1160.000000	0.020268
1159.000000	0.020173
1158.000000	0.020047
1157.000000	0.019890
1156.000000	0.019701
1155.000000	0.019473
1154.000000	0.019207
1153.000000	0.018925
1152.000000	0.018653
1151.000000	0.018400
1150.000000	0.018159
1149.000000	0.017925
1148.000000	0.017699
1147.000000	0.017474
1146.000000	0.017231
1145.000000	0.016962
1144.000000	0.016695
1143.000000	0.016473
1142.000000	0.016313
1141.000000	0.016185
1140.000000	0.016037
1139.000000	0.015838
1138.000000	0.015596
1137.000000	0.015343
1136.000000	0.015105
1135.000000	0.014889
1134.000000	0.014698
1133.000000	0.014539
1132.000000	0.014423
1131.000000	0.014349
1130.000000	0.014305
1129.000000	0.014279
1128.000000	0.014271
1127.000000	0.014289
1126.000000	0.014337
1125.000000	0.014406
1124.000000	0.014480
1123.000000	0.014552
1122.000000	0.014629
1121.000000	0.014724
1120.000000	0.014835
1119.000000	0.014945
1118.000000	0.015045
1117.000000	0.015144
1116.000000	0.015256
1115.000000	0.015377
1114.000000	0.015489
1113.000000	0.015584
1112.000000	0.015676
1111.000000	0.015780
1110.000000	0.015897
1109.000000	0.016010
1108.000000	0.016112
1107.000000	0.016212
1106.000000	0.016330
1105.000000	0.016482
1104.000000	0.016668
1103.000000	0.016873
1102.000000	0.017072
1101.000000	0.017245
1100.000000	0.017387
1099.000000	0.017503
1098.000000	0.017611
1097.000000	0.017725
1096.000000	0.017852
1095.000000	0.017991
1094.000000	0.018142
1093.000000	0.018304
1092.000000	0.018483
1091.000000	0.018690
1090.000000	0.018941
1089.000000	0.019243
1088.000000	0.019600
1087.000000	0.020008
1086.000000	0.020461
1085.000000	0.020925
1084.000000	0.021342
1083.000000	0.021653
1082.000000	0.021822
1081.000000	0.021838
1080.000000	0.021700
1079.000000	0.021423
1078.000000	0.021061
1077.000000	0.020678
1076.000000	0.020300
1075.000000	0.019922
1074.000000	0.019544
1073.000000	0.019200
1072.000000	0.018923
1071.000000	0.018725
1070.000000	0.018601
1069.000000	0.018554
1068.000000	0.018584
1067.000000	0.018677
1066.000000	0.018808
1065.000000	0.018965
1064.000000	0.019145
1063.000000	0.019334
1062.000000	0.019512
1061.000000	0.019664
1060.000000	0.019790
1059.000000	0.019896
1058.000000	0.019982
1057.000000	0.020047
1056.000000	0.020091
1055.000000	0.020125
1054.000000	0.020154
1053.000000	0.020171
1052.000000	0.020152
1051.000000	0.020085
1050.000000	0.019991
1049.000000	0.019911
1048.000000	0.019862
1047.000000	0.019824
1046.000000	0.019773
1045.000000	0.019708
1044.000000	0.019648
1043.000000	0.019609
1042.000000	0.019602
1041.000000	0.019639
1040.000000	0.019724
1039.000000	0.019859
1038.000000	0.020044
1037.000000	0.020286
1036.000000	0.020584
1035.000000	0.020914
1034.000000	0.021233
1033.000000	0.021499
1032.000000	0.021686
1031.000000	0.021787
1030.000000	0.021818
1029.000000	0.021806
1028.000000	0.021769
1027.000000	0.021708
1026.000000	0.021623
1025.000000	0.021515
1024.000000	0.021394
1023.000000	0.021269
1022.000000	0.021154
1021.000000	0.021066
1020.000000	0.021019
1019.000000	0.021014
1018.000000	0.021039
1017.000000	0.021060
1016.000000	0.021032
1015.000000	0.020912
1014.000000	0.020684
1013.000000	0.020364
1012.000000	0.019974
1011.000000	0.019533
1010.000000	0.019062
1009.000000	0.018585
1008.000000	0.018114
1007.000000	0.017646
1006.000000	0.017178
1005.000000	0.016723
1004.000000	0.016300
1003.000000	0.015915
1002.000000	0.015549
1001.000000	0.015168
1000.000000	0.014763
999.000000	0.014363
998.000000	0.014008
997.000000	0.013713
996.000000	0.013447
995.000000	0.013175
994.000000	0.012881
993.000000	0.012579
992.000000	0.012283
991.000000	0.011999
990.000000	0.011736
989.000000	0.011506
988.000000	0.011317
987.000000	0.011161
986.000000	0.011019
985.000000	0.010879
984.000000	0.010740
983.000000	0.010606
982.000000	0.010480
981.000000	0.010356
980.000000	0.010229
979.000000	0.010110
978.000000	0.010015
977.000000	0.009941
976.000000	0.009864
975.000000	0.009766
974.000000	0.009660
973.000000	0.009572
972.000000	0.009506
971.000000	0.009436
970.000000	0.009332
969.000000	0.009188
968.000000	0.009014
967.000000	0.008836
966.000000	0.008689
965.000000	0.008597
964.000000	0.008545
963.000000	0.008487
962.000000	0.008393
961.000000	0.008281
960.000000	0.008191
959.000000	0.008135
958.000000	0.008100
957.000000	0.008072
956.000000	0.008047
955.000000	0.008023
954.000000	0.007982
953.000000	0.007907
952.000000	0.007796
951.000000	0.007667
950.000000	0.007535
949.000000	0.007407
948.000000	0.007278
947.000000	0.007140
946.000000	0.006991
945.000000	0.006841
944.000000	0.006700
943.000000	0.006576
942.000000	0.006484
941.000000	0.006441
940.000000	0.006453
939.000000	0.006492
938.000000	0.006519
937.000000	0.006512
936.000000	0.006480
935.000000	0.006439
934.000000	0.006388
933.000000	0.006315
932.000000	0.006218
931.000000	0.006113
930.000000	0.006025
929.000000	0.005963
928.000000	0.005916
927.000000	0.005855
926.000000	0.005758
925.000000	0.005623
924.000000	0.005461
923.000000	0.005283
922.000000	0.005095
921.000000	0.004909
920.000000	0.004743
919.000000	0.004611
918.000000	0.004509
917.000000	0.004420
916.000000	0.004323
915.000000	0.004202
914.000000	0.004056
913.000000	0.003903
912.000000	0.003769
911.000000	0.003676
910.000000	0.003627
909.000000	0.003615
908.000000	0.003626
907.000000	0.003636
906.000000	0.003626
905.000000	0.003593
904.000000	0.003560
903.000000	0.003552
902.000000	0.003569
901.000000	0.003594
900.000000	0.003612
899.000000	0.003621
898.000000	0.003621
897.000000	0.003609
896.000000	0.003587
895.000000	0.003563
894.000000	0.003543
893.000000	0.003532
892.000000	0.003534
891.000000	0.003550
890.000000	0.003571
889.000000	0.003581
888.000000	0.003577
887.000000	0.003571
886.000000	0.003577
885.000000	0.003601
884.000000	0.003649
883.000000	0.003732
882.000000	0.003850
881.000000	0.003982
880.000000	0.004100
879.000000	0.004198
878.000000	0.004285
877.000000	0.004363
876.000000	0.004421
875.000000	0.004452
874.000000	0.004459
873.000000	0.004432
872.000000	0.004340
871.000000	0.004175
870.000000	0.003976
869.000000	0.003798
868.000000	0.003671
867.000000	0.003590
866.000000	0.003541
865.000000	0.003516
864.000000	0.003510
863.000000	0.003509
862.000000	0.003514
861.000000	0.003539
860.000000	0.003606
859.000000	0.003726
858.000000	0.003883
857.000000	0.004039
856.000000	0.004153
855.000000	0.004220
854.000000	0.004272
853.000000	0.004343
852.000000	0.004433
851.000000	0.004512
850.000000	0.004556
849.000000	0.004574
848.000000	0.004592
847.000000	0.004627
846.000000	0.004689
845.000000	0.004777
844.000000	0.004884
843.000000	0.004999
842.000000	0.005117
841.000000	0.005245
840.000000	0.005387
839.000000	0.005543
838.000000	0.005701
837.000000	0.005829
836.000000	0.005891
835.000000	0.005887
834.000000	0.005857
833.000000	0.005839
832.000000	0.005826
831.000000	0.005787
830.000000	0.005725
829.000000	0.005674
828.000000	0.005637
827.000000	0.005575
826.000000	0.005456
825.000000	0.005293
824.000000	0.005119
823.000000	0.004951
822.000000	0.004801
821.000000	0.004688
820.000000	0.004619
819.000000	0.004575
818.000000	0.004519
817.000000	0.004431
816.000000	0.004308
815.000000	0.004163
814.000000	0.004029
813.000000	0.003936
812.000000	0.003881
811.000000	0.003825
810.000000	0.003737
809.000000	0.003637
808.000000	0.003565
807.000000	0.003538
806.000000	0.003535
805.000000	0.003530
804.000000	0.003513
803.000000	0.003493
802.000000	0.003490
801.000000	0.003512
800.000000	0.003550
799.000000	0.003586
798.000000	0.003614
797.000000	0.003626
796.000000	0.003610
795.000000	0.003560
794.000000	0.003507
793.000000	0.003491
792.000000	0.003518
791.000000	0.003564
790.000000	0.003615
789.000000	0.003676
788.000000	0.003741
787.000000	0.003783
786.000000	0.003794
785.000000	0.003794
784.000000	0.003800
783.000000	0.003808
782.000000	0.003813
781.000000	0.003827
780.000000	0.003851
779.000000	0.003856
778.000000	0.003824
777.000000	0.003776
776.000000	0.003746
775.000000	0.003740
774.000000	0.003750
773.000000	0.003783
772.000000	0.003837
771.000000	0.003888
770.000000	0.003904
769.000000	0.003887
768.000000	0.003871
767.000000	0.003875
766.000000	0.003895
765.000000	0.003920
764.000000	0.003943
763.000000	0.003957
762.000000	0.003968
761.000000	0.004000
760.000000	0.004070
759.000000	0.004167
758.000000	0.004260
757.000000	0.004345
756.000000	0.004439
755.000000	0.004556
754.000000	0.004686
753.000000	0.004802
752.000000	0.004882
751.000000	0.004935
750.000000	0.004989
749.000000	0.005066
748.000000	0.005144
747.000000	0.005183
746.000000	0.005168
745.000000	0.005127
744.000000	0.005083
743.000000	0.005028
742.000000	0.004948
741.000000	0.004865
740.000000	0.004824
739.000000	0.004856
738.000000	0.004950
737.000000	0.005071
736.000000	0.005168
735.000000	0.005223
734.000000	0.005272
733.000000	0.005380
732.000000	0.005567
731.000000	0.005786
730.000000	0.005980
729.000000	0.006147
728.000000	0.006319
727.000000	0.006508
726.000000	0.006700
725.000000	0.006879
724.000000	0.007041
723.000000	0.007185
722.000000	0.007311
721.000000	0.007426
720.000000	0.007532
719.000000	0.007626
718.000000	0.007712
717.000000	0.007800
716.000000	0.007884
715.000000	0.007950
714.000000	0.008007
713.000000	0.008082
712.000000	0.008180
711.000000	0.008270
710.000000	0.008337
709.000000	0.008415
708.000000	0.008543
707.000000	0.008709
706.000000	0.008861
705.000000	0.008963
704.000000	0.009019
703.000000	0.009046
702.000000	0.009066
701.000000	0.009097
700.000000	0.009139
699.000000	0.009173
698.000000	0.009175
697.000000	0.009141
696.000000	0.009080
695.000000	0.009010
694.000000	0.008955
693.000000	0.008940
692.000000	0.008972
691.000000	0.009037
690.000000	0.009117
689.000000	0.009204
688.000000	0.009286
687.000000	0.009340
686.000000	0.009353
685.000000	0.009326
684.000000	0.009276
683.000000	0.009238
682.000000	0.009257
681.000000	0.009359
680.000000	0.009508
679.000000	0.009641
678.000000	0.009727
677.000000	0.009782
676.000000	0.009818
675.000000	0.009836
674.000000	0.009864
673.000000	0.009943
672.000000	0.010060
671.000000	0.010148
670.000000	0.010178
669.000000	0.010196
668.000000	0.010277
667.000000	0.010463
666.000000	0.010662
665.000000	0.010759
664.000000	0.010741
663.000000	0.010645
662.000000	0.010554
661.000000	0.010556
660.000000	0.010649
659.000000	0.010751
658.000000	0.010801
657.000000	0.010809
656.000000	0.010803
655.000000	0.010800
654.000000	0.010837
653.000000	0.010950
652.000000	0.011097
651.000000	0.011175
650.000000	0.011148
649.000000	0.011099
648.000000	0.011102
647.000000	0.011131
646.000000	0.011130
645.000000	0.011117
644.000000	0.011141
643.000000	0.011197
642.000000	0.011232
641.000000	0.011203
640.000000	0.011089
639.000000	0.010896
638.000000	0.010686
637.000000	0.010545
636.000000	0.010499
635.000000	0.010499
634.000000	0.010513
633.000000	0.010562
632.000000	0.010639
631.000000	0.010670
630.000000	0.010612
629.000000	0.010537
628.000000	0.010542
627.000000	0.010631
626.000000	0.010726
625.000000	0.010770
624.000000	0.010769
623.000000	0.010757
622.000000	0.010762
621.000000	0.010794
620.000000	0.010830
619.000000	0.010845
618.000000	0.010862
617.000000	0.010919
616.000000	0.010975
615.000000	0.010938
614.000000	0.010805
613.000000	0.010698
612.000000	0.010701
611.000000	0.010740
610.000000	0.010704
609.000000	0.010594
608.000000	0.010495
607.000000	0.010449
606.000000	0.010447
605.000000	0.010504
604.000000	0.010630
603.000000	0.010779
602.000000	0.010893
601.000000	0.010978
600.000000	0.011074
599.000000	0.011177
598.000000	0.011249
597.000000	0.011271
596.000000	0.011244
595.000000	0.011160
594.000000	0.011039
593.000000	0.010943
592.000000	0.010908
591.000000	0.010901
590.000000	0.010887
589.000000	0.010882
588.000000	0.010893
587.000000	0.010884
586.000000	0.010837
585.000000	0.010807
584.000000	0.010834
583.000000	0.010886
582.000000	0.010930
581.000000	0.010998
580.000000	0.011114
579.000000	0.011228
578.000000	0.011299
577.000000	0.011364
576.000000	0.011439
575.000000	0.011450
574.000000	0.011368
573.000000	0.011327
572.000000	0.011475
571.000000	0.011771
570.000000	0.012034
569.000000	0.012167
568.000000	0.012235
567.000000	0.012321
566.000000	0.012448
565.000000	0.012621
564.000000	0.012838
563.000000	0.013057
562.000000	0.013254
561.000000	0.013455
560.000000	0.013665
559.000000	0.013799
558.000000	0.013787
557.000000	0.013708
556.000000	0.013693
555.000000	0.013742
554.000000	0.013738
553.000000	0.013611
552.000000	0.013402
551.000000	0.013184
550.000000	0.013008
549.000000	0.012886
548.000000	0.012755
547.000000	0.012531
546.000000	0.012238
545.000000	0.012033
544.000000	0.012017
543.000000	0.012120
542.000000	0.012235
541.000000	0.012340
540.000000	0.012419
539.000000	0.012359
538.000000	0.012119
537.000000	0.011874
536.000000	0.011859
535.000000	0.012084
534.000000	0.012369
533.000000	0.012604
532.000000	0.012834
531.000000	0.013102
530.000000	0.013364
529.000000	0.013545
528.000000	0.013588
527.000000	0.013451
526.000000	0.013169
525.000000	0.012895
524.000000	0.012765
523.000000	0.012759
522.000000	0.012776
521.000000	0.012759
520.000000	0.012679
519.000000	0.012481
518.000000	0.012148
517.000000	0.011746
516.000000	0.011342
515.000000	0.010964
514.000000	0.010684
513.000000	0.010607
512.000000	0.010691
511.000000	0.010699
510.000000	0.010467
509.000000	0.010112
508.000000	0.009850
507.000000	0.009717
506.000000	0.009618
505.000000	0.009519
504.000000	0.009422
503.000000	0.009240
502.000000	0.008891
501.000000	0.008485
500.000000	0.008210
499.000000	0.008123
498.000000	0.008167
497.000000	0.008296
496.000000	0.008448
495.000000	0.008505
494.000000	0.008393
493.000000	0.008176
492.000000	0.007930
491.000000	0.007648
490.000000	0.007357
489.000000	0.007204
488.000000	0.007259
487.000000	0.007344
486.000000	0.007237
485.000000	0.006959
484.000000	0.006696
483.000000	0.006514
482.000000	0.006361
481.000000	0.006261
480.000000	0.006283
479.000000	0.006369
478.000000	0.006393
477.000000	0.006338
476.000000	0.006257
475.000000	0.006137
474.000000	0.005963
473.000000	0.005851
472.000000	0.005898
471.000000	0.005969
470.000000	0.005857
469.000000	0.005584
468.000000	0.005333
467.000000	0.005198
466.000000	0.005152
465.000000	0.005151
464.000000	0.005112
463.000000	0.004877
462.000000	0.004408
461.000000	0.003905
460.000000	0.003552
459.000000	0.003289
458.000000	0.003067
457.000000	0.003093
456.000000	0.003660
455.000000	0.003908
454.000000	0.003820
453.000000	0.003539
452.000000	0.003461
451.000000	0.003624
450.000000	0.003661
