PE IR       SUBTECH     SPECTRUM    ASCII       PEDS        4.00        
   -1
3S-H10-C007_1.ASC
22/02/16
16:16:00.00
22/02/16
16:48:54.00
uco
Sample 007 By uco Date Wednesday, February 16 2022
450.000000
#HDR
-1
-1
#GR
cm-1
A
1.0
0.0
4000.000000
-1.000000
3551
8
0.147527
-0.002320
#DATA
4000.000000	-0.001842
3999.000000	-0.001844
3998.000000	-0.001844
3997.000000	-0.001839
3996.000000	-0.001830
3995.000000	-0.001816
3994.000000	-0.001797
3993.000000	-0.001774
3992.000000	-0.001757
3991.000000	-0.001752
3990.000000	-0.001759
3989.000000	-0.001770
3988.000000	-0.001775
3987.000000	-0.001769
3986.000000	-0.001757
3985.000000	-0.001742
3984.000000	-0.001730
3983.000000	-0.001724
3982.000000	-0.001728
3981.000000	-0.001742
3980.000000	-0.001764
3979.000000	-0.001786
3978.000000	-0.001800
3977.000000	-0.001800
3976.000000	-0.001790
3975.000000	-0.001775
3974.000000	-0.001760
3973.000000	-0.001746
3972.000000	-0.001733
3971.000000	-0.001718
3970.000000	-0.001701
3969.000000	-0.001683
3968.000000	-0.001667
3967.000000	-0.001658
3966.000000	-0.001659
3965.000000	-0.001666
3964.000000	-0.001673
3963.000000	-0.001672
3962.000000	-0.001661
3961.000000	-0.001646
3960.000000	-0.001633
3959.000000	-0.001623
3958.000000	-0.001612
3957.000000	-0.001596
3956.000000	-0.001576
3955.000000	-0.001559
3954.000000	-0.001551
3953.000000	-0.001556
3952.000000	-0.001575
3951.000000	-0.001609
3950.000000	-0.001653
3949.000000	-0.001694
3948.000000	-0.001717
3947.000000	-0.001716
3946.000000	-0.001697
3945.000000	-0.001675
3944.000000	-0.001657
3943.000000	-0.001640
3942.000000	-0.001620
3941.000000	-0.001603
3940.000000	-0.001599
3939.000000	-0.001610
3938.000000	-0.001628
3937.000000	-0.001640
3936.000000	-0.001644
3935.000000	-0.001641
3934.000000	-0.001639
3933.000000	-0.001641
3932.000000	-0.001646
3931.000000	-0.001653
3930.000000	-0.001661
3929.000000	-0.001664
3928.000000	-0.001662
3927.000000	-0.001656
3926.000000	-0.001646
3925.000000	-0.001629
3924.000000	-0.001601
3923.000000	-0.001575
3922.000000	-0.001570
3921.000000	-0.001586
3920.000000	-0.001610
3919.000000	-0.001626
3918.000000	-0.001634
3917.000000	-0.001639
3916.000000	-0.001639
3915.000000	-0.001633
3914.000000	-0.001626
3913.000000	-0.001621
3912.000000	-0.001617
3911.000000	-0.001606
3910.000000	-0.001584
3909.000000	-0.001550
3908.000000	-0.001509
3907.000000	-0.001475
3906.000000	-0.001462
3905.000000	-0.001469
3904.000000	-0.001480
3903.000000	-0.001487
3902.000000	-0.001499
3901.000000	-0.001533
3900.000000	-0.001581
3899.000000	-0.001616
3898.000000	-0.001621
3897.000000	-0.001600
3896.000000	-0.001565
3895.000000	-0.001527
3894.000000	-0.001503
3893.000000	-0.001511
3892.000000	-0.001545
3891.000000	-0.001571
3890.000000	-0.001558
3889.000000	-0.001527
3888.000000	-0.001525
3887.000000	-0.001575
3886.000000	-0.001644
3885.000000	-0.001672
3884.000000	-0.001637
3883.000000	-0.001576
3882.000000	-0.001527
3881.000000	-0.001505
3880.000000	-0.001504
3879.000000	-0.001507
3878.000000	-0.001516
3877.000000	-0.001536
3876.000000	-0.001566
3875.000000	-0.001584
3874.000000	-0.001570
3873.000000	-0.001537
3872.000000	-0.001531
3871.000000	-0.001569
3870.000000	-0.001609
3869.000000	-0.001599
3868.000000	-0.001556
3867.000000	-0.001537
3866.000000	-0.001556
3865.000000	-0.001576
3864.000000	-0.001567
3863.000000	-0.001539
3862.000000	-0.001515
3861.000000	-0.001494
3860.000000	-0.001455
3859.000000	-0.001389
3858.000000	-0.001307
3857.000000	-0.001241
3856.000000	-0.001234
3855.000000	-0.001313
3854.000000	-0.001443
3853.000000	-0.001535
3852.000000	-0.001558
3851.000000	-0.001563
3850.000000	-0.001579
3849.000000	-0.001595
3848.000000	-0.001592
3847.000000	-0.001570
3846.000000	-0.001546
3845.000000	-0.001535
3844.000000	-0.001540
3843.000000	-0.001545
3842.000000	-0.001539
3841.000000	-0.001525
3840.000000	-0.001513
3839.000000	-0.001504
3838.000000	-0.001492
3837.000000	-0.001478
3836.000000	-0.001470
3835.000000	-0.001474
3834.000000	-0.001494
3833.000000	-0.001523
3832.000000	-0.001546
3831.000000	-0.001552
3830.000000	-0.001548
3829.000000	-0.001556
3828.000000	-0.001588
3827.000000	-0.001624
3826.000000	-0.001629
3825.000000	-0.001593
3824.000000	-0.001547
3823.000000	-0.001527
3822.000000	-0.001538
3821.000000	-0.001541
3820.000000	-0.001517
3819.000000	-0.001505
3818.000000	-0.001543
3817.000000	-0.001616
3816.000000	-0.001661
3815.000000	-0.001647
3814.000000	-0.001616
3813.000000	-0.001619
3812.000000	-0.001649
3811.000000	-0.001661
3810.000000	-0.001642
3809.000000	-0.001624
3808.000000	-0.001638
3807.000000	-0.001664
3806.000000	-0.001656
3805.000000	-0.001616
3804.000000	-0.001591
3803.000000	-0.001611
3802.000000	-0.001647
3801.000000	-0.001648
3800.000000	-0.001613
3799.000000	-0.001590
3798.000000	-0.001605
3797.000000	-0.001639
3796.000000	-0.001658
3795.000000	-0.001659
3794.000000	-0.001664
3793.000000	-0.001688
3792.000000	-0.001717
3791.000000	-0.001736
3790.000000	-0.001738
3789.000000	-0.001733
3788.000000	-0.001726
3787.000000	-0.001720
3786.000000	-0.001717
3785.000000	-0.001711
3784.000000	-0.001695
3783.000000	-0.001673
3782.000000	-0.001666
3781.000000	-0.001684
3780.000000	-0.001715
3779.000000	-0.001729
3778.000000	-0.001718
3777.000000	-0.001704
3776.000000	-0.001710
3775.000000	-0.001732
3774.000000	-0.001753
3773.000000	-0.001763
3772.000000	-0.001772
3771.000000	-0.001782
3770.000000	-0.001780
3769.000000	-0.001759
3768.000000	-0.001738
3767.000000	-0.001739
3766.000000	-0.001763
3765.000000	-0.001788
3764.000000	-0.001797
3763.000000	-0.001795
3762.000000	-0.001798
3761.000000	-0.001805
3760.000000	-0.001806
3759.000000	-0.001804
3758.000000	-0.001809
3757.000000	-0.001820
3756.000000	-0.001824
3755.000000	-0.001820
3754.000000	-0.001812
3753.000000	-0.001802
3752.000000	-0.001789
3751.000000	-0.001785
3750.000000	-0.001796
3749.000000	-0.001799
3748.000000	-0.001776
3747.000000	-0.001752
3746.000000	-0.001764
3745.000000	-0.001801
3744.000000	-0.001811
3743.000000	-0.001782
3742.000000	-0.001766
3741.000000	-0.001790
3740.000000	-0.001823
3739.000000	-0.001827
3738.000000	-0.001806
3737.000000	-0.001787
3736.000000	-0.001781
3735.000000	-0.001784
3734.000000	-0.001793
3733.000000	-0.001805
3732.000000	-0.001805
3731.000000	-0.001785
3730.000000	-0.001767
3729.000000	-0.001784
3728.000000	-0.001842
3727.000000	-0.001908
3726.000000	-0.001934
3725.000000	-0.001911
3724.000000	-0.001859
3723.000000	-0.001804
3722.000000	-0.001761
3721.000000	-0.001746
3720.000000	-0.001766
3719.000000	-0.001807
3718.000000	-0.001843
3717.000000	-0.001854
3716.000000	-0.001839
3715.000000	-0.001814
3714.000000	-0.001785
3713.000000	-0.001742
3712.000000	-0.001677
3711.000000	-0.001611
3710.000000	-0.001582
3709.000000	-0.001610
3708.000000	-0.001677
3707.000000	-0.001743
3706.000000	-0.001776
3705.000000	-0.001773
3704.000000	-0.001749
3703.000000	-0.001725
3702.000000	-0.001716
3701.000000	-0.001726
3700.000000	-0.001752
3699.000000	-0.001787
3698.000000	-0.001816
3697.000000	-0.001821
3696.000000	-0.001790
3695.000000	-0.001735
3694.000000	-0.001683
3693.000000	-0.001652
3692.000000	-0.001635
3691.000000	-0.001617
3690.000000	-0.001589
3689.000000	-0.001553
3688.000000	-0.001521
3687.000000	-0.001504
3686.000000	-0.001506
3685.000000	-0.001520
3684.000000	-0.001523
3683.000000	-0.001495
3682.000000	-0.001443
3681.000000	-0.001384
3680.000000	-0.001317
3679.000000	-0.001233
3678.000000	-0.001159
3677.000000	-0.001142
3676.000000	-0.001178
3675.000000	-0.001197
3674.000000	-0.001179
3673.000000	-0.001173
3672.000000	-0.001213
3671.000000	-0.001264
3670.000000	-0.001255
3669.000000	-0.001175
3668.000000	-0.001088
3667.000000	-0.001043
3666.000000	-0.001038
3665.000000	-0.001048
3664.000000	-0.001057
3663.000000	-0.001054
3662.000000	-0.001036
3661.000000	-0.000997
3660.000000	-0.000944
3659.000000	-0.000892
3658.000000	-0.000862
3657.000000	-0.000853
3656.000000	-0.000839
3655.000000	-0.000803
3654.000000	-0.000759
3653.000000	-0.000734
3652.000000	-0.000729
3651.000000	-0.000716
3650.000000	-0.000659
3649.000000	-0.000560
3648.000000	-0.000451
3647.000000	-0.000355
3646.000000	-0.000281
3645.000000	-0.000242
3644.000000	-0.000244
3643.000000	-0.000275
3642.000000	-0.000308
3641.000000	-0.000320
3640.000000	-0.000302
3639.000000	-0.000257
3638.000000	-0.000196
3637.000000	-0.000132
3636.000000	-0.000080
3635.000000	-0.000040
3634.000000	0.000001
3633.000000	0.000044
3632.000000	0.000071
3631.000000	0.000074
3630.000000	0.000088
3629.000000	0.000167
3628.000000	0.000299
3627.000000	0.000411
3626.000000	0.000459
3625.000000	0.000463
3624.000000	0.000463
3623.000000	0.000478
3622.000000	0.000500
3621.000000	0.000518
3620.000000	0.000549
3619.000000	0.000619
3618.000000	0.000721
3617.000000	0.000820
3616.000000	0.000886
3615.000000	0.000918
3614.000000	0.000943
3613.000000	0.000988
3612.000000	0.001053
3611.000000	0.001119
3610.000000	0.001175
3609.000000	0.001227
3608.000000	0.001289
3607.000000	0.001359
3606.000000	0.001420
3605.000000	0.001463
3604.000000	0.001494
3603.000000	0.001525
3602.000000	0.001561
3601.000000	0.001592
3600.000000	0.001616
3599.000000	0.001638
3598.000000	0.001668
3597.000000	0.001715
3596.000000	0.001777
3595.000000	0.001850
3594.000000	0.001927
3593.000000	0.001997
3592.000000	0.002049
3591.000000	0.002076
3590.000000	0.002084
3589.000000	0.002102
3588.000000	0.002172
3587.000000	0.002311
3586.000000	0.002477
3585.000000	0.002611
3584.000000	0.002689
3583.000000	0.002733
3582.000000	0.002775
3581.000000	0.002832
3580.000000	0.002901
3579.000000	0.002977
3578.000000	0.003054
3577.000000	0.003130
3576.000000	0.003200
3575.000000	0.003260
3574.000000	0.003312
3573.000000	0.003364
3572.000000	0.003423
3571.000000	0.003484
3570.000000	0.003543
3569.000000	0.003600
3568.000000	0.003671
3567.000000	0.003774
3566.000000	0.003897
3565.000000	0.004011
3564.000000	0.004096
3563.000000	0.004153
3562.000000	0.004192
3561.000000	0.004224
3560.000000	0.004261
3559.000000	0.004320
3558.000000	0.004405
3557.000000	0.004505
3556.000000	0.004601
3555.000000	0.004684
3554.000000	0.004760
3553.000000	0.004840
3552.000000	0.004926
3551.000000	0.005005
3550.000000	0.005062
3549.000000	0.005096
3548.000000	0.005126
3547.000000	0.005177
3546.000000	0.005257
3545.000000	0.005348
3544.000000	0.005428
3543.000000	0.005490
3542.000000	0.005537
3541.000000	0.005578
3540.000000	0.005620
3539.000000	0.005668
3538.000000	0.005724
3537.000000	0.005786
3536.000000	0.005855
3535.000000	0.005928
3534.000000	0.006001
3533.000000	0.006070
3532.000000	0.006133
3531.000000	0.006192
3530.000000	0.006250
3529.000000	0.006305
3528.000000	0.006361
3527.000000	0.006421
3526.000000	0.006486
3525.000000	0.006549
3524.000000	0.006608
3523.000000	0.006666
3522.000000	0.006727
3521.000000	0.006785
3520.000000	0.006836
3519.000000	0.006883
3518.000000	0.006939
3517.000000	0.007005
3516.000000	0.007077
3515.000000	0.007143
3514.000000	0.007201
3513.000000	0.007255
3512.000000	0.007310
3511.000000	0.007371
3510.000000	0.007438
3509.000000	0.007506
3508.000000	0.007570
3507.000000	0.007624
3506.000000	0.007665
3505.000000	0.007694
3504.000000	0.007718
3503.000000	0.007753
3502.000000	0.007808
3501.000000	0.007880
3500.000000	0.007957
3499.000000	0.008029
3498.000000	0.008092
3497.000000	0.008146
3496.000000	0.008196
3495.000000	0.008249
3494.000000	0.008310
3493.000000	0.008374
3492.000000	0.008437
3491.000000	0.008497
3490.000000	0.008555
3489.000000	0.008612
3488.000000	0.008667
3487.000000	0.008721
3486.000000	0.008775
3485.000000	0.008830
3484.000000	0.008881
3483.000000	0.008929
3482.000000	0.008976
3481.000000	0.009025
3480.000000	0.009074
3479.000000	0.009128
3478.000000	0.009192
3477.000000	0.009267
3476.000000	0.009347
3475.000000	0.009415
3474.000000	0.009455
3473.000000	0.009465
3472.000000	0.009462
3471.000000	0.009469
3470.000000	0.009501
3469.000000	0.009551
3468.000000	0.009603
3467.000000	0.009648
3466.000000	0.009682
3465.000000	0.009706
3464.000000	0.009721
3463.000000	0.009734
3462.000000	0.009755
3461.000000	0.009787
3460.000000	0.009826
3459.000000	0.009863
3458.000000	0.009894
3457.000000	0.009919
3456.000000	0.009940
3455.000000	0.009961
3454.000000	0.009983
3453.000000	0.010012
3452.000000	0.010047
3451.000000	0.010086
3450.000000	0.010124
3449.000000	0.010155
3448.000000	0.010182
3447.000000	0.010205
3446.000000	0.010223
3445.000000	0.010228
3444.000000	0.010224
3443.000000	0.010227
3442.000000	0.010251
3441.000000	0.010296
3440.000000	0.010346
3439.000000	0.010387
3438.000000	0.010420
3437.000000	0.010455
3436.000000	0.010499
3435.000000	0.010542
3434.000000	0.010569
3433.000000	0.010574
3432.000000	0.010570
3431.000000	0.010573
3430.000000	0.010591
3429.000000	0.010614
3428.000000	0.010638
3427.000000	0.010664
3426.000000	0.010702
3425.000000	0.010747
3424.000000	0.010783
3423.000000	0.010799
3422.000000	0.010800
3421.000000	0.010803
3420.000000	0.010821
3419.000000	0.010851
3418.000000	0.010880
3417.000000	0.010899
3416.000000	0.010913
3415.000000	0.010933
3414.000000	0.010964
3413.000000	0.011003
3412.000000	0.011037
3411.000000	0.011056
3410.000000	0.011056
3409.000000	0.011048
3408.000000	0.011049
3407.000000	0.011066
3406.000000	0.011092
3405.000000	0.011113
3404.000000	0.011123
3403.000000	0.011126
3402.000000	0.011130
3401.000000	0.011138
3400.000000	0.011146
3399.000000	0.011154
3398.000000	0.011166
3397.000000	0.011183
3396.000000	0.011204
3395.000000	0.011227
3394.000000	0.011250
3393.000000	0.011273
3392.000000	0.011299
3391.000000	0.011326
3390.000000	0.011353
3389.000000	0.011373
3388.000000	0.011389
3387.000000	0.011406
3386.000000	0.011430
3385.000000	0.011466
3384.000000	0.011511
3383.000000	0.011558
3382.000000	0.011595
3381.000000	0.011618
3380.000000	0.011634
3379.000000	0.011662
3378.000000	0.011717
3377.000000	0.011794
3376.000000	0.011874
3375.000000	0.011937
3374.000000	0.011971
3373.000000	0.011984
3372.000000	0.011996
3371.000000	0.012030
3370.000000	0.012091
3369.000000	0.012169
3368.000000	0.012244
3367.000000	0.012306
3366.000000	0.012354
3365.000000	0.012393
3364.000000	0.012433
3363.000000	0.012480
3362.000000	0.012538
3361.000000	0.012602
3360.000000	0.012669
3359.000000	0.012735
3358.000000	0.012803
3357.000000	0.012872
3356.000000	0.012947
3355.000000	0.013026
3354.000000	0.013105
3353.000000	0.013178
3352.000000	0.013245
3351.000000	0.013307
3350.000000	0.013366
3349.000000	0.013421
3348.000000	0.013475
3347.000000	0.013536
3346.000000	0.013603
3345.000000	0.013670
3344.000000	0.013731
3343.000000	0.013795
3342.000000	0.013872
3341.000000	0.013961
3340.000000	0.014051
3339.000000	0.014130
3338.000000	0.014194
3337.000000	0.014244
3336.000000	0.014279
3335.000000	0.014304
3334.000000	0.014324
3333.000000	0.014354
3332.000000	0.014404
3331.000000	0.014476
3330.000000	0.014550
3329.000000	0.014603
3328.000000	0.014626
3327.000000	0.014631
3326.000000	0.014640
3325.000000	0.014669
3324.000000	0.014724
3323.000000	0.014797
3322.000000	0.014869
3321.000000	0.014919
3320.000000	0.014941
3319.000000	0.014942
3318.000000	0.014937
3317.000000	0.014934
3316.000000	0.014932
3315.000000	0.014929
3314.000000	0.014930
3313.000000	0.014935
3312.000000	0.014947
3311.000000	0.014961
3310.000000	0.014971
3309.000000	0.014975
3308.000000	0.014973
3307.000000	0.014969
3306.000000	0.014969
3305.000000	0.014976
3304.000000	0.014995
3303.000000	0.015024
3302.000000	0.015054
3301.000000	0.015068
3300.000000	0.015058
3299.000000	0.015035
3298.000000	0.015019
3297.000000	0.015024
3296.000000	0.015046
3295.000000	0.015066
3294.000000	0.015062
3293.000000	0.015024
3292.000000	0.014959
3291.000000	0.014890
3290.000000	0.014841
3289.000000	0.014820
3288.000000	0.014816
3287.000000	0.014814
3286.000000	0.014800
3285.000000	0.014773
3284.000000	0.014736
3283.000000	0.014695
3282.000000	0.014655
3281.000000	0.014619
3280.000000	0.014589
3279.000000	0.014564
3278.000000	0.014533
3277.000000	0.014488
3276.000000	0.014424
3275.000000	0.014345
3274.000000	0.014258
3273.000000	0.014170
3272.000000	0.014090
3271.000000	0.014029
3270.000000	0.013992
3269.000000	0.013970
3268.000000	0.013947
3267.000000	0.013908
3266.000000	0.013851
3265.000000	0.013786
3264.000000	0.013733
3263.000000	0.013703
3262.000000	0.013690
3261.000000	0.013670
3260.000000	0.013622
3259.000000	0.013543
3258.000000	0.013449
3257.000000	0.013359
3256.000000	0.013291
3255.000000	0.013246
3254.000000	0.013209
3253.000000	0.013160
3252.000000	0.013087
3251.000000	0.013000
3250.000000	0.012917
3249.000000	0.012846
3248.000000	0.012786
3247.000000	0.012731
3246.000000	0.012678
3245.000000	0.012624
3244.000000	0.012565
3243.000000	0.012505
3242.000000	0.012449
3241.000000	0.012406
3240.000000	0.012377
3239.000000	0.012356
3238.000000	0.012338
3237.000000	0.012313
3236.000000	0.012273
3235.000000	0.012217
3234.000000	0.012148
3233.000000	0.012076
3232.000000	0.012007
3231.000000	0.011947
3230.000000	0.011900
3229.000000	0.011860
3228.000000	0.011820
3227.000000	0.011771
3226.000000	0.011715
3225.000000	0.011660
3224.000000	0.011619
3223.000000	0.011590
3222.000000	0.011568
3221.000000	0.011541
3220.000000	0.011507
3219.000000	0.011467
3218.000000	0.011422
3217.000000	0.011369
3216.000000	0.011308
3215.000000	0.011252
3214.000000	0.011210
3213.000000	0.011184
3212.000000	0.011161
3211.000000	0.011126
3210.000000	0.011070
3209.000000	0.010998
3208.000000	0.010920
3207.000000	0.010852
3206.000000	0.010800
3205.000000	0.010759
3204.000000	0.010721
3203.000000	0.010678
3202.000000	0.010631
3201.000000	0.010587
3200.000000	0.010545
3199.000000	0.010501
3198.000000	0.010453
3197.000000	0.010403
3196.000000	0.010355
3195.000000	0.010307
3194.000000	0.010255
3193.000000	0.010194
3192.000000	0.010124
3191.000000	0.010052
3190.000000	0.009984
3189.000000	0.009923
3188.000000	0.009865
3187.000000	0.009803
3186.000000	0.009730
3185.000000	0.009649
3184.000000	0.009572
3183.000000	0.009514
3182.000000	0.009476
3181.000000	0.009446
3180.000000	0.009410
3179.000000	0.009360
3178.000000	0.009301
3177.000000	0.009236
3176.000000	0.009168
3175.000000	0.009101
3174.000000	0.009042
3173.000000	0.008996
3172.000000	0.008952
3171.000000	0.008896
3170.000000	0.008826
3169.000000	0.008752
3168.000000	0.008687
3167.000000	0.008629
3166.000000	0.008574
3165.000000	0.008519
3164.000000	0.008472
3163.000000	0.008436
3162.000000	0.008410
3161.000000	0.008386
3160.000000	0.008354
3159.000000	0.008304
3158.000000	0.008235
3157.000000	0.008161
3156.000000	0.008099
3155.000000	0.008056
3154.000000	0.008021
3153.000000	0.007982
3152.000000	0.007936
3151.000000	0.007891
3150.000000	0.007852
3149.000000	0.007816
3148.000000	0.007782
3147.000000	0.007747
3146.000000	0.007714
3145.000000	0.007683
3144.000000	0.007647
3143.000000	0.007599
3142.000000	0.007540
3141.000000	0.007478
3140.000000	0.007425
3139.000000	0.007388
3138.000000	0.007362
3137.000000	0.007344
3136.000000	0.007332
3135.000000	0.007330
3134.000000	0.007336
3133.000000	0.007342
3132.000000	0.007333
3131.000000	0.007302
3130.000000	0.007256
3129.000000	0.007215
3128.000000	0.007198
3127.000000	0.007211
3126.000000	0.007239
3125.000000	0.007257
3124.000000	0.007246
3123.000000	0.007205
3122.000000	0.007153
3121.000000	0.007111
3120.000000	0.007094
3119.000000	0.007099
3118.000000	0.007118
3117.000000	0.007142
3116.000000	0.007168
3115.000000	0.007199
3114.000000	0.007236
3113.000000	0.007278
3112.000000	0.007320
3111.000000	0.007356
3110.000000	0.007382
3109.000000	0.007401
3108.000000	0.007417
3107.000000	0.007439
3106.000000	0.007472
3105.000000	0.007515
3104.000000	0.007564
3103.000000	0.007609
3102.000000	0.007644
3101.000000	0.007669
3100.000000	0.007691
3099.000000	0.007716
3098.000000	0.007749
3097.000000	0.007789
3096.000000	0.007828
3095.000000	0.007859
3094.000000	0.007879
3093.000000	0.007893
3092.000000	0.007909
3091.000000	0.007936
3090.000000	0.007979
3089.000000	0.008035
3088.000000	0.008091
3087.000000	0.008134
3086.000000	0.008166
3085.000000	0.008199
3084.000000	0.008242
3083.000000	0.008282
3082.000000	0.008301
3081.000000	0.008290
3080.000000	0.008264
3079.000000	0.008251
3078.000000	0.008274
3077.000000	0.008335
3076.000000	0.008414
3075.000000	0.008483
3074.000000	0.008529
3073.000000	0.008554
3072.000000	0.008570
3071.000000	0.008580
3070.000000	0.008576
3069.000000	0.008555
3068.000000	0.008524
3067.000000	0.008492
3066.000000	0.008466
3065.000000	0.008443
3064.000000	0.008420
3063.000000	0.008394
3062.000000	0.008363
3061.000000	0.008328
3060.000000	0.008291
3059.000000	0.008244
3058.000000	0.008186
3057.000000	0.008122
3056.000000	0.008066
3055.000000	0.008025
3054.000000	0.007993
3053.000000	0.007961
3052.000000	0.007926
3051.000000	0.007896
3050.000000	0.007872
3049.000000	0.007852
3048.000000	0.007836
3047.000000	0.007824
3046.000000	0.007815
3045.000000	0.007803
3044.000000	0.007785
3043.000000	0.007766
3042.000000	0.007752
3041.000000	0.007742
3040.000000	0.007733
3039.000000	0.007721
3038.000000	0.007703
3037.000000	0.007682
3036.000000	0.007664
3035.000000	0.007659
3034.000000	0.007675
3033.000000	0.007711
3032.000000	0.007759
3031.000000	0.007810
3030.000000	0.007864
3029.000000	0.007923
3028.000000	0.007996
3027.000000	0.008091
3026.000000	0.008215
3025.000000	0.008367
3024.000000	0.008536
3023.000000	0.008712
3022.000000	0.008897
3021.000000	0.009105
3020.000000	0.009348
3019.000000	0.009628
3018.000000	0.009938
3017.000000	0.010275
3016.000000	0.010637
3015.000000	0.011026
3014.000000	0.011441
3013.000000	0.011886
3012.000000	0.012356
3011.000000	0.012840
3010.000000	0.013311
3009.000000	0.013733
3008.000000	0.014079
3007.000000	0.014338
3006.000000	0.014516
3005.000000	0.014629
3004.000000	0.014680
3003.000000	0.014659
3002.000000	0.014561
3001.000000	0.014390
3000.000000	0.014168
2999.000000	0.013920
2998.000000	0.013672
2997.000000	0.013445
2996.000000	0.013256
2995.000000	0.013115
2994.000000	0.013036
2993.000000	0.013028
2992.000000	0.013096
2991.000000	0.013232
2990.000000	0.013422
2989.000000	0.013658
2988.000000	0.013935
2987.000000	0.014251
2986.000000	0.014604
2985.000000	0.015000
2984.000000	0.015447
2983.000000	0.015947
2982.000000	0.016497
2981.000000	0.017101
2980.000000	0.017765
2979.000000	0.018491
2978.000000	0.019273
2977.000000	0.020111
2976.000000	0.021016
2975.000000	0.022004
2974.000000	0.023089
2973.000000	0.024276
2972.000000	0.025575
2971.000000	0.026991
2970.000000	0.028527
2969.000000	0.030179
2968.000000	0.031939
2967.000000	0.033794
2966.000000	0.035721
2965.000000	0.037689
2964.000000	0.039661
2963.000000	0.041603
2962.000000	0.043482
2961.000000	0.045265
2960.000000	0.046922
2959.000000	0.048424
2958.000000	0.049743
2957.000000	0.050859
2956.000000	0.051753
2955.000000	0.052420
2954.000000	0.052864
2953.000000	0.053119
2952.000000	0.053265
2951.000000	0.053415
2950.000000	0.053689
2949.000000	0.054175
2948.000000	0.054940
2947.000000	0.056039
2946.000000	0.057513
2945.000000	0.059385
2944.000000	0.061645
2943.000000	0.064273
2942.000000	0.067254
2941.000000	0.070586
2940.000000	0.074264
2939.000000	0.078277
2938.000000	0.082601
2937.000000	0.087201
2936.000000	0.092035
2935.000000	0.097068
2934.000000	0.102270
2933.000000	0.107601
2932.000000	0.112994
2931.000000	0.118365
2930.000000	0.123624
2929.000000	0.128682
2928.000000	0.133444
2927.000000	0.137795
2926.000000	0.141579
2925.000000	0.144596
2924.000000	0.146637
2923.000000	0.147527
2922.000000	0.147169
2921.000000	0.145562
2920.000000	0.142790
2919.000000	0.139013
2918.000000	0.134426
2917.000000	0.129242
2916.000000	0.123682
2915.000000	0.117969
2914.000000	0.112309
2913.000000	0.106866
2912.000000	0.101751
2911.000000	0.097020
2910.000000	0.092680
2909.000000	0.088710
2908.000000	0.085079
2907.000000	0.081760
2906.000000	0.078720
2905.000000	0.075918
2904.000000	0.073308
2903.000000	0.070848
2902.000000	0.068509
2901.000000	0.066274
2900.000000	0.064144
2899.000000	0.062119
2898.000000	0.060183
2897.000000	0.058310
2896.000000	0.056466
2895.000000	0.054638
2894.000000	0.052830
2893.000000	0.051060
2892.000000	0.049349
2891.000000	0.047715
2890.000000	0.046166
2889.000000	0.044702
2888.000000	0.043325
2887.000000	0.042043
2886.000000	0.040878
2885.000000	0.039854
2884.000000	0.038995
2883.000000	0.038318
2882.000000	0.037840
2881.000000	0.037579
2880.000000	0.037554
2879.000000	0.037786
2878.000000	0.038286
2877.000000	0.039045
2876.000000	0.040024
2875.000000	0.041138
2874.000000	0.042270
2873.000000	0.043299
2872.000000	0.044147
2871.000000	0.044821
2870.000000	0.045424
2869.000000	0.046110
2868.000000	0.047039
2867.000000	0.048353
2866.000000	0.050173
2865.000000	0.052591
2864.000000	0.055658
2863.000000	0.059378
2862.000000	0.063719
2861.000000	0.068619
2860.000000	0.073972
2859.000000	0.079613
2858.000000	0.085305
2857.000000	0.090740
2856.000000	0.095536
2855.000000	0.099277
2854.000000	0.101565
2853.000000	0.102102
2852.000000	0.100762
2851.000000	0.097608
2850.000000	0.092880
2849.000000	0.086948
2848.000000	0.080241
2847.000000	0.073183
2846.000000	0.066144
2845.000000	0.059425
2844.000000	0.053247
2843.000000	0.047746
2842.000000	0.042964
2841.000000	0.038875
2840.000000	0.035412
2839.000000	0.032491
2838.000000	0.030026
2837.000000	0.027937
2836.000000	0.026158
2835.000000	0.024629
2834.000000	0.023296
2833.000000	0.022111
2832.000000	0.021034
2831.000000	0.020039
2830.000000	0.019115
2829.000000	0.018259
2828.000000	0.017472
2827.000000	0.016746
2826.000000	0.016076
2825.000000	0.015461
2824.000000	0.014901
2823.000000	0.014389
2822.000000	0.013919
2821.000000	0.013484
2820.000000	0.013083
2819.000000	0.012712
2818.000000	0.012367
2817.000000	0.012045
2816.000000	0.011746
2815.000000	0.011468
2814.000000	0.011206
2813.000000	0.010958
2812.000000	0.010725
2811.000000	0.010506
2810.000000	0.010294
2809.000000	0.010078
2808.000000	0.009860
2807.000000	0.009646
2806.000000	0.009448
2805.000000	0.009269
2804.000000	0.009104
2803.000000	0.008950
2802.000000	0.008810
2801.000000	0.008685
2800.000000	0.008570
2799.000000	0.008455
2798.000000	0.008335
2797.000000	0.008210
2796.000000	0.008085
2795.000000	0.007962
2794.000000	0.007840
2793.000000	0.007722
2792.000000	0.007609
2791.000000	0.007500
2790.000000	0.007396
2789.000000	0.007298
2788.000000	0.007207
2787.000000	0.007117
2786.000000	0.007027
2785.000000	0.006942
2784.000000	0.006863
2783.000000	0.006781
2782.000000	0.006691
2781.000000	0.006596
2780.000000	0.006506
2779.000000	0.006429
2778.000000	0.006367
2777.000000	0.006317
2776.000000	0.006269
2775.000000	0.006210
2774.000000	0.006133
2773.000000	0.006053
2772.000000	0.005986
2771.000000	0.005938
2770.000000	0.005897
2769.000000	0.005853
2768.000000	0.005800
2767.000000	0.005738
2766.000000	0.005669
2765.000000	0.005597
2764.000000	0.005534
2763.000000	0.005487
2762.000000	0.005454
2761.000000	0.005429
2760.000000	0.005409
2759.000000	0.005396
2758.000000	0.005387
2757.000000	0.005381
2756.000000	0.005373
2755.000000	0.005366
2754.000000	0.005359
2753.000000	0.005350
2752.000000	0.005331
2751.000000	0.005297
2750.000000	0.005256
2749.000000	0.005220
2748.000000	0.005194
2747.000000	0.005170
2746.000000	0.005144
2745.000000	0.005121
2744.000000	0.005109
2743.000000	0.005105
2742.000000	0.005106
2741.000000	0.005111
2740.000000	0.005121
2739.000000	0.005133
2738.000000	0.005139
2737.000000	0.005133
2736.000000	0.005117
2735.000000	0.005099
2734.000000	0.005086
2733.000000	0.005083
2732.000000	0.005089
2731.000000	0.005091
2730.000000	0.005082
2729.000000	0.005060
2728.000000	0.005029
2727.000000	0.004992
2726.000000	0.004951
2725.000000	0.004907
2724.000000	0.004863
2723.000000	0.004821
2722.000000	0.004785
2721.000000	0.004759
2720.000000	0.004742
2719.000000	0.004726
2718.000000	0.004703
2717.000000	0.004673
2716.000000	0.004640
2715.000000	0.004610
2714.000000	0.004588
2713.000000	0.004574
2712.000000	0.004563
2711.000000	0.004545
2710.000000	0.004514
2709.000000	0.004479
2708.000000	0.004452
2707.000000	0.004441
2706.000000	0.004439
2705.000000	0.004438
2704.000000	0.004437
2703.000000	0.004441
2702.000000	0.004446
2701.000000	0.004451
2700.000000	0.004450
2699.000000	0.004446
2698.000000	0.004442
2697.000000	0.004445
2696.000000	0.004451
2695.000000	0.004457
2694.000000	0.004461
2693.000000	0.004471
2692.000000	0.004492
2691.000000	0.004523
2690.000000	0.004556
2689.000000	0.004584
2688.000000	0.004606
2687.000000	0.004619
2686.000000	0.004626
2685.000000	0.004634
2684.000000	0.004648
2683.000000	0.004672
2682.000000	0.004701
2681.000000	0.004726
2680.000000	0.004734
2679.000000	0.004717
2678.000000	0.004677
2677.000000	0.004630
2676.000000	0.004597
2675.000000	0.004590
2674.000000	0.004600
2673.000000	0.004606
2672.000000	0.004599
2671.000000	0.004579
2670.000000	0.004557
2669.000000	0.004543
2668.000000	0.004533
2667.000000	0.004518
2666.000000	0.004495
2665.000000	0.004468
2664.000000	0.004437
2663.000000	0.004402
2662.000000	0.004358
2661.000000	0.004305
2660.000000	0.004240
2659.000000	0.004163
2658.000000	0.004076
2657.000000	0.003992
2656.000000	0.003922
2655.000000	0.003863
2654.000000	0.003806
2653.000000	0.003743
2652.000000	0.003670
2651.000000	0.003593
2650.000000	0.003523
2649.000000	0.003464
2648.000000	0.003410
2647.000000	0.003352
2646.000000	0.003288
2645.000000	0.003228
2644.000000	0.003177
2643.000000	0.003128
2642.000000	0.003069
2641.000000	0.003004
2640.000000	0.002940
2639.000000	0.002882
2638.000000	0.002823
2637.000000	0.002763
2636.000000	0.002704
2635.000000	0.002648
2634.000000	0.002592
2633.000000	0.002534
2632.000000	0.002476
2631.000000	0.002419
2630.000000	0.002365
2629.000000	0.002316
2628.000000	0.002274
2627.000000	0.002233
2626.000000	0.002191
2625.000000	0.002151
2624.000000	0.002112
2623.000000	0.002072
2622.000000	0.002024
2621.000000	0.001974
2620.000000	0.001929
2619.000000	0.001891
2618.000000	0.001851
2617.000000	0.001802
2616.000000	0.001749
2615.000000	0.001703
2614.000000	0.001669
2613.000000	0.001640
2612.000000	0.001606
2611.000000	0.001558
2610.000000	0.001501
2609.000000	0.001451
2608.000000	0.001418
2607.000000	0.001403
2606.000000	0.001396
2605.000000	0.001385
2604.000000	0.001364
2603.000000	0.001342
2602.000000	0.001334
2601.000000	0.001343
2600.000000	0.001350
2599.000000	0.001331
2598.000000	0.001284
2597.000000	0.001230
2596.000000	0.001184
2595.000000	0.001147
2594.000000	0.001116
2593.000000	0.001097
2592.000000	0.001090
2591.000000	0.001083
2590.000000	0.001069
2589.000000	0.001047
2588.000000	0.001020
2587.000000	0.000985
2586.000000	0.000948
2585.000000	0.000924
2584.000000	0.000915
2583.000000	0.000901
2582.000000	0.000863
2581.000000	0.000811
2580.000000	0.000774
2579.000000	0.000770
2578.000000	0.000789
2577.000000	0.000813
2576.000000	0.000822
2575.000000	0.000805
2574.000000	0.000765
2573.000000	0.000714
2572.000000	0.000667
2571.000000	0.000631
2570.000000	0.000609
2569.000000	0.000602
2568.000000	0.000603
2567.000000	0.000599
2566.000000	0.000580
2565.000000	0.000554
2564.000000	0.000528
2563.000000	0.000507
2562.000000	0.000494
2561.000000	0.000496
2560.000000	0.000515
2559.000000	0.000539
2558.000000	0.000548
2557.000000	0.000532
2556.000000	0.000494
2555.000000	0.000448
2554.000000	0.000411
2553.000000	0.000389
2552.000000	0.000374
2551.000000	0.000357
2550.000000	0.000346
2549.000000	0.000354
2548.000000	0.000375
2547.000000	0.000393
2546.000000	0.000401
2545.000000	0.000409
2544.000000	0.000417
2543.000000	0.000413
2542.000000	0.000398
2541.000000	0.000385
2540.000000	0.000384
2539.000000	0.000385
2538.000000	0.000382
2537.000000	0.000385
2536.000000	0.000407
2535.000000	0.000435
2534.000000	0.000447
2533.000000	0.000438
2532.000000	0.000421
2531.000000	0.000405
2530.000000	0.000397
2529.000000	0.000400
2528.000000	0.000420
2527.000000	0.000451
2526.000000	0.000481
2525.000000	0.000495
2524.000000	0.000482
2523.000000	0.000445
2522.000000	0.000405
2521.000000	0.000387
2520.000000	0.000393
2519.000000	0.000400
2518.000000	0.000385
2517.000000	0.000347
2516.000000	0.000308
2515.000000	0.000285
2514.000000	0.000284
2513.000000	0.000296
2512.000000	0.000300
2511.000000	0.000287
2510.000000	0.000266
2509.000000	0.000254
2508.000000	0.000254
2507.000000	0.000255
2506.000000	0.000260
2505.000000	0.000279
2504.000000	0.000309
2503.000000	0.000328
2502.000000	0.000325
2501.000000	0.000311
2500.000000	0.000304
2499.000000	0.000303
2498.000000	0.000306
2497.000000	0.000314
2496.000000	0.000320
2495.000000	0.000309
2494.000000	0.000274
2493.000000	0.000220
2492.000000	0.000154
2491.000000	0.000081
2490.000000	0.000023
2489.000000	0.000005
2488.000000	0.000027
2487.000000	0.000062
2486.000000	0.000086
2485.000000	0.000096
2484.000000	0.000094
2483.000000	0.000074
2482.000000	0.000038
2481.000000	0.000009
2480.000000	0.000004
2479.000000	0.000015
2478.000000	0.000029
2477.000000	0.000048
2476.000000	0.000073
2475.000000	0.000090
2474.000000	0.000082
2473.000000	0.000048
2472.000000	0.000009
2471.000000	-0.000013
2470.000000	-0.000005
2469.000000	0.000030
2468.000000	0.000073
2467.000000	0.000104
2466.000000	0.000120
2465.000000	0.000135
2464.000000	0.000148
2463.000000	0.000139
2462.000000	0.000104
2461.000000	0.000066
2460.000000	0.000051
2459.000000	0.000061
2458.000000	0.000078
2457.000000	0.000092
2456.000000	0.000092
2455.000000	0.000075
2454.000000	0.000051
2453.000000	0.000046
2452.000000	0.000065
2451.000000	0.000091
2450.000000	0.000108
2449.000000	0.000121
2448.000000	0.000137
2447.000000	0.000147
2446.000000	0.000146
2445.000000	0.000143
2444.000000	0.000152
2443.000000	0.000172
2442.000000	0.000198
2441.000000	0.000226
2440.000000	0.000245
2439.000000	0.000240
2438.000000	0.000212
2437.000000	0.000182
2436.000000	0.000156
2435.000000	0.000130
2434.000000	0.000113
2433.000000	0.000129
2432.000000	0.000180
2431.000000	0.000225
2430.000000	0.000225
2429.000000	0.000190
2428.000000	0.000153
2427.000000	0.000133
2426.000000	0.000126
2425.000000	0.000127
2424.000000	0.000136
2423.000000	0.000149
2422.000000	0.000169
2421.000000	0.000199
2420.000000	0.000231
2419.000000	0.000246
2418.000000	0.000244
2417.000000	0.000244
2416.000000	0.000259
2415.000000	0.000281
2414.000000	0.000305
2413.000000	0.000337
2412.000000	0.000370
2411.000000	0.000382
2410.000000	0.000366
2409.000000	0.000348
2408.000000	0.000348
2407.000000	0.000351
2406.000000	0.000333
2405.000000	0.000300
2404.000000	0.000274
2403.000000	0.000267
2402.000000	0.000272
2401.000000	0.000287
2400.000000	0.000308
2399.000000	0.000333
2398.000000	0.000359
2397.000000	0.000393
2396.000000	0.000436
2395.000000	0.000475
2394.000000	0.000501
2393.000000	0.000519
2392.000000	0.000534
2391.000000	0.000543
2390.000000	0.000547
2389.000000	0.000557
2388.000000	0.000584
2387.000000	0.000616
2386.000000	0.000641
2385.000000	0.000660
2384.000000	0.000682
2383.000000	0.000711
2382.000000	0.000742
2381.000000	0.000769
2380.000000	0.000784
2379.000000	0.000784
2378.000000	0.000774
2377.000000	0.000771
2376.000000	0.000776
2375.000000	0.000784
2374.000000	0.000794
2373.000000	0.000810
2372.000000	0.000817
2371.000000	0.000795
2370.000000	0.000756
2369.000000	0.000744
2368.000000	0.000781
2367.000000	0.000845
2366.000000	0.000909
2365.000000	0.000959
2364.000000	0.000979
2363.000000	0.000963
2362.000000	0.000945
2361.000000	0.000964
2360.000000	0.001035
2359.000000	0.001112
2358.000000	0.001142
2357.000000	0.001120
2356.000000	0.001071
2355.000000	0.001052
2354.000000	0.001079
2353.000000	0.001121
2352.000000	0.001127
2351.000000	0.001101
2350.000000	0.001105
2349.000000	0.001185
2348.000000	0.001330
2347.000000	0.001452
2346.000000	0.001456
2345.000000	0.001354
2344.000000	0.001240
2343.000000	0.001204
2342.000000	0.001225
2341.000000	0.001251
2340.000000	0.001264
2339.000000	0.001269
2338.000000	0.001278
2337.000000	0.001297
2336.000000	0.001331
2335.000000	0.001357
2334.000000	0.001363
2333.000000	0.001347
2332.000000	0.001336
2331.000000	0.001326
2330.000000	0.001330
2329.000000	0.001339
2328.000000	0.001381
2327.000000	0.001451
2326.000000	0.001545
2325.000000	0.001628
2324.000000	0.001656
2323.000000	0.001596
2322.000000	0.001469
2321.000000	0.001339
2320.000000	0.001255
2319.000000	0.001200
2318.000000	0.001154
2317.000000	0.001101
2316.000000	0.001050
2315.000000	0.000988
2314.000000	0.000929
2313.000000	0.000899
2312.000000	0.000914
2311.000000	0.000935
2310.000000	0.000937
2309.000000	0.000926
2308.000000	0.000928
2307.000000	0.000921
2306.000000	0.000886
2305.000000	0.000833
2304.000000	0.000797
2303.000000	0.000779
2302.000000	0.000761
2301.000000	0.000729
2300.000000	0.000702
2299.000000	0.000680
2298.000000	0.000664
2297.000000	0.000644
2296.000000	0.000626
2295.000000	0.000604
2294.000000	0.000588
2293.000000	0.000579
2292.000000	0.000571
2291.000000	0.000539
2290.000000	0.000482
2289.000000	0.000431
2288.000000	0.000403
2287.000000	0.000386
2286.000000	0.000361
2285.000000	0.000337
2284.000000	0.000324
2283.000000	0.000310
2282.000000	0.000277
2281.000000	0.000232
2280.000000	0.000190
2279.000000	0.000156
2278.000000	0.000142
2277.000000	0.000166
2276.000000	0.000211
2275.000000	0.000226
2274.000000	0.000195
2273.000000	0.000165
2272.000000	0.000166
2271.000000	0.000164
2270.000000	0.000122
2269.000000	0.000070
2268.000000	0.000055
2267.000000	0.000077
2266.000000	0.000106
2265.000000	0.000140
2264.000000	0.000187
2263.000000	0.000224
2262.000000	0.000223
2261.000000	0.000208
2260.000000	0.000215
2259.000000	0.000243
2258.000000	0.000251
2257.000000	0.000211
2256.000000	0.000119
2255.000000	-0.000005
2254.000000	-0.000110
2253.000000	-0.000134
2252.000000	-0.000074
2251.000000	-0.000001
2250.000000	0.000024
2249.000000	0.000002
2248.000000	-0.000047
2247.000000	-0.000115
2246.000000	-0.000174
2245.000000	-0.000168
2244.000000	-0.000098
2243.000000	-0.000046
2242.000000	-0.000080
2241.000000	-0.000160
2240.000000	-0.000220
2239.000000	-0.000262
2238.000000	-0.000327
2237.000000	-0.000417
2236.000000	-0.000495
2235.000000	-0.000542
2234.000000	-0.000542
2233.000000	-0.000477
2232.000000	-0.000367
2231.000000	-0.000282
2230.000000	-0.000273
2229.000000	-0.000317
2228.000000	-0.000375
2227.000000	-0.000435
2226.000000	-0.000482
2225.000000	-0.000473
2224.000000	-0.000413
2223.000000	-0.000378
2222.000000	-0.000417
2221.000000	-0.000493
2220.000000	-0.000553
2219.000000	-0.000591
2218.000000	-0.000591
2217.000000	-0.000512
2216.000000	-0.000377
2215.000000	-0.000300
2214.000000	-0.000352
2213.000000	-0.000461
2212.000000	-0.000529
2211.000000	-0.000562
2210.000000	-0.000616
2209.000000	-0.000680
2208.000000	-0.000716
2207.000000	-0.000723
2206.000000	-0.000721
2205.000000	-0.000702
2204.000000	-0.000670
2203.000000	-0.000657
2202.000000	-0.000643
2201.000000	-0.000540
2200.000000	-0.000345
2199.000000	-0.000209
2198.000000	-0.000262
2197.000000	-0.000436
2196.000000	-0.000559
2195.000000	-0.000564
2194.000000	-0.000529
2193.000000	-0.000548
2192.000000	-0.000649
2191.000000	-0.000790
2190.000000	-0.000891
2189.000000	-0.000911
2188.000000	-0.000911
2187.000000	-0.000972
2186.000000	-0.001045
2185.000000	-0.000986
2184.000000	-0.000777
2183.000000	-0.000582
2182.000000	-0.000518
2181.000000	-0.000529
2180.000000	-0.000539
2179.000000	-0.000582
2178.000000	-0.000679
2177.000000	-0.000762
2176.000000	-0.000798
2175.000000	-0.000861
2174.000000	-0.000983
2173.000000	-0.001063
2172.000000	-0.001032
2171.000000	-0.000962
2170.000000	-0.000913
2169.000000	-0.000825
2168.000000	-0.000669
2167.000000	-0.000559
2166.000000	-0.000595
2165.000000	-0.000719
2164.000000	-0.000858
2163.000000	-0.001072
2162.000000	-0.001409
2161.000000	-0.001741
2160.000000	-0.001941
2159.000000	-0.002080
2158.000000	-0.002249
2157.000000	-0.002320
2156.000000	-0.002138
2155.000000	-0.001750
2154.000000	-0.001304
2153.000000	-0.000899
2152.000000	-0.000606
2151.000000	-0.000500
2150.000000	-0.000566
2149.000000	-0.000675
2148.000000	-0.000725
2147.000000	-0.000715
2146.000000	-0.000656
2145.000000	-0.000534
2144.000000	-0.000407
2143.000000	-0.000395
2142.000000	-0.000501
2141.000000	-0.000574
2140.000000	-0.000514
2139.000000	-0.000395
2138.000000	-0.000326
2137.000000	-0.000318
2136.000000	-0.000336
2135.000000	-0.000373
2134.000000	-0.000397
2133.000000	-0.000340
2132.000000	-0.000202
2131.000000	-0.000076
2130.000000	-0.000014
2129.000000	0.000045
2128.000000	0.000156
2127.000000	0.000266
2126.000000	0.000303
2125.000000	0.000279
2124.000000	0.000241
2123.000000	0.000206
2122.000000	0.000182
2121.000000	0.000209
2120.000000	0.000305
2119.000000	0.000426
2118.000000	0.000519
2117.000000	0.000580
2116.000000	0.000618
2115.000000	0.000614
2114.000000	0.000578
2113.000000	0.000576
2112.000000	0.000649
2111.000000	0.000752
2110.000000	0.000821
2109.000000	0.000854
2108.000000	0.000866
2107.000000	0.000831
2106.000000	0.000727
2105.000000	0.000601
2104.000000	0.000519
2103.000000	0.000493
2102.000000	0.000495
2101.000000	0.000504
2100.000000	0.000501
2099.000000	0.000465
2098.000000	0.000407
2097.000000	0.000371
2096.000000	0.000353
2095.000000	0.000303
2094.000000	0.000231
2093.000000	0.000224
2092.000000	0.000316
2091.000000	0.000419
2090.000000	0.000443
2089.000000	0.000413
2088.000000	0.000405
2087.000000	0.000443
2086.000000	0.000505
2085.000000	0.000584
2084.000000	0.000661
2083.000000	0.000688
2082.000000	0.000648
2081.000000	0.000589
2080.000000	0.000554
2079.000000	0.000520
2078.000000	0.000459
2077.000000	0.000386
2076.000000	0.000308
2075.000000	0.000192
2074.000000	0.000029
2073.000000	-0.000114
2072.000000	-0.000182
2071.000000	-0.000187
2070.000000	-0.000164
2069.000000	-0.000130
2068.000000	-0.000123
2067.000000	-0.000193
2066.000000	-0.000293
2065.000000	-0.000310
2064.000000	-0.000224
2063.000000	-0.000156
2062.000000	-0.000181
2061.000000	-0.000231
2060.000000	-0.000239
2059.000000	-0.000254
2058.000000	-0.000323
2057.000000	-0.000400
2056.000000	-0.000429
2055.000000	-0.000443
2054.000000	-0.000458
2053.000000	-0.000421
2052.000000	-0.000324
2051.000000	-0.000273
2050.000000	-0.000337
2049.000000	-0.000437
2048.000000	-0.000487
2047.000000	-0.000525
2046.000000	-0.000594
2045.000000	-0.000631
2044.000000	-0.000626
2043.000000	-0.000710
2042.000000	-0.000939
2041.000000	-0.001149
2040.000000	-0.001189
2039.000000	-0.001150
2038.000000	-0.001184
2037.000000	-0.001279
2036.000000	-0.001349
2035.000000	-0.001398
2034.000000	-0.001426
2033.000000	-0.001358
2032.000000	-0.001232
2031.000000	-0.001228
2030.000000	-0.001365
2029.000000	-0.001395
2028.000000	-0.001186
2027.000000	-0.000973
2026.000000	-0.001017
2025.000000	-0.001235
2024.000000	-0.001388
2023.000000	-0.001447
2022.000000	-0.001546
2021.000000	-0.001730
2020.000000	-0.001926
2019.000000	-0.002056
2018.000000	-0.002032
2017.000000	-0.001812
2016.000000	-0.001558
2015.000000	-0.001537
2014.000000	-0.001750
2013.000000	-0.001893
2012.000000	-0.001769
2011.000000	-0.001529
2010.000000	-0.001388
2009.000000	-0.001338
2008.000000	-0.001298
2007.000000	-0.001301
2006.000000	-0.001361
2005.000000	-0.001377
2004.000000	-0.001336
2003.000000	-0.001375
2002.000000	-0.001527
2001.000000	-0.001617
2000.000000	-0.001528
1999.000000	-0.001370
1998.000000	-0.001282
1997.000000	-0.001240
1996.000000	-0.001213
1995.000000	-0.001286
1994.000000	-0.001490
1993.000000	-0.001667
1992.000000	-0.001689
1991.000000	-0.001654
1990.000000	-0.001682
1989.000000	-0.001705
1988.000000	-0.001629
1987.000000	-0.001534
1986.000000	-0.001525
1985.000000	-0.001536
1984.000000	-0.001465
1983.000000	-0.001349
1982.000000	-0.001268
1981.000000	-0.001193
1980.000000	-0.001113
1979.000000	-0.001152
1978.000000	-0.001388
1977.000000	-0.001674
1976.000000	-0.001868
1975.000000	-0.002029
1974.000000	-0.002207
1973.000000	-0.002259
1972.000000	-0.002071
1971.000000	-0.001758
1970.000000	-0.001477
1969.000000	-0.001259
1968.000000	-0.001127
1967.000000	-0.001185
1966.000000	-0.001419
1965.000000	-0.001627
1964.000000	-0.001672
1963.000000	-0.001629
1962.000000	-0.001578
1961.000000	-0.001463
1960.000000	-0.001271
1959.000000	-0.001133
1958.000000	-0.001129
1957.000000	-0.001169
1956.000000	-0.001177
1955.000000	-0.001209
1954.000000	-0.001306
1953.000000	-0.001396
1952.000000	-0.001432
1951.000000	-0.001476
1950.000000	-0.001546
1949.000000	-0.001549
1948.000000	-0.001458
1947.000000	-0.001408
1946.000000	-0.001500
1945.000000	-0.001667
1944.000000	-0.001800
1943.000000	-0.001862
1942.000000	-0.001815
1941.000000	-0.001602
1940.000000	-0.001298
1939.000000	-0.001111
1938.000000	-0.001152
1937.000000	-0.001313
1936.000000	-0.001435
1935.000000	-0.001482
1934.000000	-0.001478
1933.000000	-0.001402
1932.000000	-0.001272
1931.000000	-0.001193
1930.000000	-0.001218
1929.000000	-0.001275
1928.000000	-0.001298
1927.000000	-0.001319
1926.000000	-0.001370
1925.000000	-0.001391
1924.000000	-0.001344
1923.000000	-0.001304
1922.000000	-0.001342
1921.000000	-0.001414
1920.000000	-0.001451
1919.000000	-0.001458
1918.000000	-0.001459
1917.000000	-0.001416
1916.000000	-0.001322
1915.000000	-0.001249
1914.000000	-0.001249
1913.000000	-0.001280
1912.000000	-0.001297
1911.000000	-0.001323
1910.000000	-0.001368
1909.000000	-0.001376
1908.000000	-0.001330
1907.000000	-0.001300
1906.000000	-0.001330
1905.000000	-0.001358
1904.000000	-0.001331
1903.000000	-0.001288
1902.000000	-0.001264
1901.000000	-0.001228
1900.000000	-0.001166
1899.000000	-0.001128
1898.000000	-0.001138
1897.000000	-0.001141
1896.000000	-0.001105
1895.000000	-0.001104
1894.000000	-0.001191
1893.000000	-0.001308
1892.000000	-0.001372
1891.000000	-0.001383
1890.000000	-0.001367
1889.000000	-0.001315
1888.000000	-0.001241
1887.000000	-0.001206
1886.000000	-0.001221
1885.000000	-0.001229
1884.000000	-0.001208
1883.000000	-0.001219
1882.000000	-0.001290
1881.000000	-0.001362
1880.000000	-0.001384
1879.000000	-0.001382
1878.000000	-0.001380
1877.000000	-0.001349
1876.000000	-0.001284
1875.000000	-0.001265
1874.000000	-0.001346
1873.000000	-0.001479
1872.000000	-0.001594
1871.000000	-0.001691
1870.000000	-0.001776
1869.000000	-0.001796
1868.000000	-0.001721
1867.000000	-0.001622
1866.000000	-0.001560
1865.000000	-0.001510
1864.000000	-0.001450
1863.000000	-0.001416
1862.000000	-0.001419
1861.000000	-0.001393
1860.000000	-0.001308
1859.000000	-0.001225
1858.000000	-0.001203
1857.000000	-0.001212
1856.000000	-0.001216
1855.000000	-0.001243
1854.000000	-0.001312
1853.000000	-0.001380
1852.000000	-0.001429
1851.000000	-0.001496
1850.000000	-0.001605
1849.000000	-0.001714
1848.000000	-0.001796
1847.000000	-0.001888
1846.000000	-0.001993
1845.000000	-0.002043
1844.000000	-0.002014
1843.000000	-0.001950
1842.000000	-0.001842
1841.000000	-0.001657
1840.000000	-0.001450
1839.000000	-0.001331
1838.000000	-0.001347
1837.000000	-0.001403
1836.000000	-0.001413
1835.000000	-0.001406
1834.000000	-0.001424
1833.000000	-0.001427
1832.000000	-0.001373
1831.000000	-0.001312
1830.000000	-0.001337
1829.000000	-0.001415
1828.000000	-0.001462
1827.000000	-0.001476
1826.000000	-0.001500
1825.000000	-0.001517
1824.000000	-0.001485
1823.000000	-0.001420
1822.000000	-0.001362
1821.000000	-0.001317
1820.000000	-0.001283
1819.000000	-0.001284
1818.000000	-0.001311
1817.000000	-0.001292
1816.000000	-0.001209
1815.000000	-0.001142
1814.000000	-0.001137
1813.000000	-0.001140
1812.000000	-0.001091
1811.000000	-0.001040
1810.000000	-0.001044
1809.000000	-0.001044
1808.000000	-0.000971
1807.000000	-0.000864
1806.000000	-0.000798
1805.000000	-0.000781
1804.000000	-0.000794
1803.000000	-0.000831
1802.000000	-0.000845
1801.000000	-0.000758
1800.000000	-0.000566
1799.000000	-0.000403
1798.000000	-0.000359
1797.000000	-0.000368
1796.000000	-0.000352
1795.000000	-0.000335
1794.000000	-0.000362
1793.000000	-0.000409
1792.000000	-0.000416
1791.000000	-0.000363
1790.000000	-0.000249
1789.000000	-0.000076
1788.000000	0.000097
1787.000000	0.000182
1786.000000	0.000176
1785.000000	0.000200
1784.000000	0.000338
1783.000000	0.000519
1782.000000	0.000661
1781.000000	0.000773
1780.000000	0.000919
1779.000000	0.001082
1778.000000	0.001229
1777.000000	0.001381
1776.000000	0.001539
1775.000000	0.001684
1774.000000	0.001885
1773.000000	0.002273
1772.000000	0.002828
1771.000000	0.003363
1770.000000	0.003836
1769.000000	0.004472
1768.000000	0.005470
1767.000000	0.006735
1766.000000	0.008062
1765.000000	0.009470
1764.000000	0.011192
1763.000000	0.013456
1762.000000	0.016323
1761.000000	0.019666
1760.000000	0.023362
1759.000000	0.027488
1758.000000	0.032418
1757.000000	0.038422
1756.000000	0.045037
1755.000000	0.051431
1754.000000	0.057482
1753.000000	0.063891
1752.000000	0.071284
1751.000000	0.079330
1750.000000	0.087055
1749.000000	0.093883
1748.000000	0.099534
1747.000000	0.103694
1746.000000	0.106323
1745.000000	0.107590
1744.000000	0.107515
1743.000000	0.106073
1742.000000	0.103382
1741.000000	0.099452
1740.000000	0.094142
1739.000000	0.087954
1738.000000	0.082022
1737.000000	0.076696
1736.000000	0.071234
1735.000000	0.064665
1734.000000	0.057360
1733.000000	0.051344
1732.000000	0.047347
1731.000000	0.044380
1730.000000	0.041603
1729.000000	0.038884
1728.000000	0.036338
1727.000000	0.034008
1726.000000	0.031857
1725.000000	0.029825
1724.000000	0.027890
1723.000000	0.026098
1722.000000	0.024548
1721.000000	0.023205
1720.000000	0.021870
1719.000000	0.020374
1718.000000	0.018805
1717.000000	0.017560
1716.000000	0.016870
1715.000000	0.016549
1714.000000	0.016356
1713.000000	0.016192
1712.000000	0.016019
1711.000000	0.015817
1710.000000	0.015633
1709.000000	0.015545
1708.000000	0.015573
1707.000000	0.015670
1706.000000	0.015786
1705.000000	0.015874
1704.000000	0.015850
1703.000000	0.015726
1702.000000	0.015772
1701.000000	0.016214
1700.000000	0.016625
1699.000000	0.016651
1698.000000	0.016659
1697.000000	0.016991
1696.000000	0.017685
1695.000000	0.018477
1694.000000	0.019257
1693.000000	0.020060
1692.000000	0.020754
1691.000000	0.021268
1690.000000	0.021684
1689.000000	0.022040
1688.000000	0.022228
1687.000000	0.022222
1686.000000	0.022346
1685.000000	0.023031
1684.000000	0.024128
1683.000000	0.025147
1682.000000	0.026065
1681.000000	0.027020
1680.000000	0.027971
1679.000000	0.028821
1678.000000	0.029585
1677.000000	0.030438
1676.000000	0.031498
1675.000000	0.032574
1674.000000	0.033471
1673.000000	0.034295
1672.000000	0.035201
1671.000000	0.036217
1670.000000	0.037338
1669.000000	0.038487
1668.000000	0.039535
1667.000000	0.040437
1666.000000	0.041262
1665.000000	0.042146
1664.000000	0.043172
1663.000000	0.044230
1662.000000	0.045181
1661.000000	0.046039
1660.000000	0.046866
1659.000000	0.047621
1658.000000	0.048203
1657.000000	0.048505
1656.000000	0.048492
1655.000000	0.048413
1654.000000	0.048682
1653.000000	0.049243
1652.000000	0.049731
1651.000000	0.050402
1650.000000	0.051234
1649.000000	0.051832
1648.000000	0.052121
1647.000000	0.052221
1646.000000	0.052266
1645.000000	0.052443
1644.000000	0.052837
1643.000000	0.053287
1642.000000	0.053635
1641.000000	0.053879
1640.000000	0.054053
1639.000000	0.054127
1638.000000	0.054131
1637.000000	0.054233
1636.000000	0.054474
1635.000000	0.054648
1634.000000	0.054678
1633.000000	0.054728
1632.000000	0.054777
1631.000000	0.054721
1630.000000	0.054553
1629.000000	0.054276
1628.000000	0.053834
1627.000000	0.053203
1626.000000	0.052466
1625.000000	0.051677
1624.000000	0.050758
1623.000000	0.049602
1622.000000	0.048328
1621.000000	0.047124
1620.000000	0.045962
1619.000000	0.044683
1618.000000	0.043207
1617.000000	0.041584
1616.000000	0.040037
1615.000000	0.038841
1614.000000	0.037954
1613.000000	0.037082
1612.000000	0.036039
1611.000000	0.034863
1610.000000	0.033686
1609.000000	0.032564
1608.000000	0.031469
1607.000000	0.030408
1606.000000	0.029437
1605.000000	0.028558
1604.000000	0.027726
1603.000000	0.026943
1602.000000	0.026250
1601.000000	0.025650
1600.000000	0.025109
1599.000000	0.024618
1598.000000	0.024200
1597.000000	0.023848
1596.000000	0.023535
1595.000000	0.023272
1594.000000	0.023098
1593.000000	0.022996
1592.000000	0.022919
1591.000000	0.022866
1590.000000	0.022887
1589.000000	0.022996
1588.000000	0.023161
1587.000000	0.023367
1586.000000	0.023626
1585.000000	0.023933
1584.000000	0.024256
1583.000000	0.024620
1582.000000	0.025063
1581.000000	0.025532
1580.000000	0.025882
1579.000000	0.026048
1578.000000	0.026168
1577.000000	0.026488
1576.000000	0.027053
1575.000000	0.027737
1574.000000	0.028485
1573.000000	0.029199
1572.000000	0.029820
1571.000000	0.030452
1570.000000	0.031161
1569.000000	0.031845
1568.000000	0.032431
1567.000000	0.033036
1566.000000	0.033752
1565.000000	0.034499
1564.000000	0.035045
1563.000000	0.035226
1562.000000	0.035140
1561.000000	0.035235
1560.000000	0.035933
1559.000000	0.036989
1558.000000	0.037869
1557.000000	0.038515
1556.000000	0.039154
1555.000000	0.039775
1554.000000	0.040363
1553.000000	0.040913
1552.000000	0.041402
1551.000000	0.041813
1550.000000	0.042177
1549.000000	0.042523
1548.000000	0.042777
1547.000000	0.042871
1546.000000	0.042833
1545.000000	0.042762
1544.000000	0.042737
1543.000000	0.042753
1542.000000	0.042760
1541.000000	0.042735
1540.000000	0.042610
1539.000000	0.042362
1538.000000	0.042222
1537.000000	0.042319
1536.000000	0.042382
1535.000000	0.042175
1534.000000	0.041671
1533.000000	0.041013
1532.000000	0.040427
1531.000000	0.039967
1530.000000	0.039543
1529.000000	0.039058
1528.000000	0.038450
1527.000000	0.037753
1526.000000	0.037097
1525.000000	0.036558
1524.000000	0.036032
1523.000000	0.035340
1522.000000	0.034462
1521.000000	0.033662
1520.000000	0.033222
1519.000000	0.033071
1518.000000	0.032889
1517.000000	0.032496
1516.000000	0.031972
1515.000000	0.031442
1514.000000	0.030926
1513.000000	0.030353
1512.000000	0.029657
1511.000000	0.028794
1510.000000	0.027785
1509.000000	0.026710
1508.000000	0.025688
1507.000000	0.024827
1506.000000	0.024246
1505.000000	0.023986
1504.000000	0.024006
1503.000000	0.024005
1502.000000	0.023756
1501.000000	0.023319
1500.000000	0.022786
1499.000000	0.022125
1498.000000	0.021340
1497.000000	0.020611
1496.000000	0.020103
1495.000000	0.019808
1494.000000	0.019647
1493.000000	0.019503
1492.000000	0.019247
1491.000000	0.018812
1490.000000	0.018357
1489.000000	0.018198
1488.000000	0.018372
1487.000000	0.018622
1486.000000	0.018857
1485.000000	0.019178
1484.000000	0.019607
1483.000000	0.020087
1482.000000	0.020617
1481.000000	0.021266
1480.000000	0.022010
1479.000000	0.022775
1478.000000	0.023618
1477.000000	0.024665
1476.000000	0.025916
1475.000000	0.027407
1474.000000	0.029654
1473.000000	0.033384
1472.000000	0.038485
1471.000000	0.043936
1470.000000	0.049086
1469.000000	0.053774
1468.000000	0.057778
1467.000000	0.060847
1466.000000	0.062975
1465.000000	0.064349
1464.000000	0.065141
1463.000000	0.065550
1462.000000	0.065817
1461.000000	0.066047
1460.000000	0.066163
1459.000000	0.066157
1458.000000	0.066245
1457.000000	0.066533
1456.000000	0.066718
1455.000000	0.066665
1454.000000	0.066375
1453.000000	0.065725
1452.000000	0.064746
1451.000000	0.063662
1450.000000	0.062688
1449.000000	0.061888
1448.000000	0.061228
1447.000000	0.060683
1446.000000	0.060265
1445.000000	0.059925
1444.000000	0.059568
1443.000000	0.059124
1442.000000	0.058594
1441.000000	0.057989
1440.000000	0.057251
1439.000000	0.056314
1438.000000	0.055180
1437.000000	0.053941
1436.000000	0.052794
1435.000000	0.051937
1434.000000	0.051288
1433.000000	0.050607
1432.000000	0.049757
1431.000000	0.048760
1430.000000	0.047712
1429.000000	0.046733
1428.000000	0.045918
1427.000000	0.045288
1426.000000	0.044809
1425.000000	0.044453
1424.000000	0.044247
1423.000000	0.044173
1422.000000	0.044137
1421.000000	0.044100
1420.000000	0.044106
1419.000000	0.044156
1418.000000	0.044229
1417.000000	0.044315
1416.000000	0.044287
1415.000000	0.043990
1414.000000	0.043369
1413.000000	0.042496
1412.000000	0.041523
1411.000000	0.040615
1410.000000	0.039874
1409.000000	0.039316
1408.000000	0.038909
1407.000000	0.038616
1406.000000	0.038426
1405.000000	0.038333
1404.000000	0.038308
1403.000000	0.038274
1402.000000	0.038137
1401.000000	0.037836
1400.000000	0.037372
1399.000000	0.036828
1398.000000	0.036320
1397.000000	0.035907
1396.000000	0.035589
1395.000000	0.035370
1394.000000	0.035272
1393.000000	0.035293
1392.000000	0.035389
1391.000000	0.035474
1390.000000	0.035484
1389.000000	0.035469
1388.000000	0.035589
1387.000000	0.035981
1386.000000	0.036648
1385.000000	0.037471
1384.000000	0.038345
1383.000000	0.039235
1382.000000	0.040155
1381.000000	0.041111
1380.000000	0.042022
1379.000000	0.042703
1378.000000	0.042947
1377.000000	0.042669
1376.000000	0.041916
1375.000000	0.040839
1374.000000	0.039698
1373.000000	0.038746
1372.000000	0.038048
1371.000000	0.037489
1370.000000	0.036950
1369.000000	0.036397
1368.000000	0.035843
1367.000000	0.035267
1366.000000	0.034608
1365.000000	0.033825
1364.000000	0.032951
1363.000000	0.032117
1362.000000	0.031482
1361.000000	0.031098
1360.000000	0.030880
1359.000000	0.030712
1358.000000	0.030545
1357.000000	0.030398
1356.000000	0.030307
1355.000000	0.030281
1354.000000	0.030302
1353.000000	0.030359
1352.000000	0.030441
1351.000000	0.030533
1350.000000	0.030628
1349.000000	0.030731
1348.000000	0.030849
1347.000000	0.030976
1346.000000	0.031108
1345.000000	0.031253
1344.000000	0.031393
1343.000000	0.031468
1342.000000	0.031410
1341.000000	0.031222
1340.000000	0.030995
1339.000000	0.030838
1338.000000	0.030778
1337.000000	0.030760
1336.000000	0.030705
1335.000000	0.030568
1334.000000	0.030341
1333.000000	0.030045
1332.000000	0.029711
1331.000000	0.029368
1330.000000	0.029051
1329.000000	0.028801
1328.000000	0.028647
1327.000000	0.028586
1326.000000	0.028593
1325.000000	0.028642
1324.000000	0.028720
1323.000000	0.028815
1322.000000	0.028910
1321.000000	0.028996
1320.000000	0.029064
1319.000000	0.029106
1318.000000	0.029124
1317.000000	0.029123
1316.000000	0.029094
1315.000000	0.029019
1314.000000	0.028894
1313.000000	0.028748
1312.000000	0.028612
1311.000000	0.028492
1310.000000	0.028381
1309.000000	0.028283
1308.000000	0.028202
1307.000000	0.028136
1306.000000	0.028082
1305.000000	0.028047
1304.000000	0.028026
1303.000000	0.027991
1302.000000	0.027914
1301.000000	0.027796
1300.000000	0.027658
1299.000000	0.027518
1298.000000	0.027391
1297.000000	0.027296
1296.000000	0.027253
1295.000000	0.027273
1294.000000	0.027358
1293.000000	0.027511
1292.000000	0.027719
1291.000000	0.027961
1290.000000	0.028240
1289.000000	0.028592
1288.000000	0.029045
1287.000000	0.029584
1286.000000	0.030170
1285.000000	0.030774
1284.000000	0.031368
1283.000000	0.031913
1282.000000	0.032374
1281.000000	0.032751
1280.000000	0.033054
1279.000000	0.033283
1278.000000	0.033432
1277.000000	0.033511
1276.000000	0.033537
1275.000000	0.033521
1274.000000	0.033489
1273.000000	0.033491
1272.000000	0.033578
1271.000000	0.033767
1270.000000	0.034047
1269.000000	0.034394
1268.000000	0.034771
1267.000000	0.035133
1266.000000	0.035468
1265.000000	0.035801
1264.000000	0.036156
1263.000000	0.036531
1262.000000	0.036928
1261.000000	0.037372
1260.000000	0.037869
1259.000000	0.038391
1258.000000	0.038906
1257.000000	0.039409
1256.000000	0.039898
1255.000000	0.040371
1254.000000	0.040857
1253.000000	0.041419
1252.000000	0.042097
1251.000000	0.042881
1250.000000	0.043739
1249.000000	0.044656
1248.000000	0.045601
1247.000000	0.046523
1246.000000	0.047395
1245.000000	0.048227
1244.000000	0.049022
1243.000000	0.049747
1242.000000	0.050383
1241.000000	0.050944
1240.000000	0.051430
1239.000000	0.051800
1238.000000	0.052027
1237.000000	0.052120
1236.000000	0.052095
1235.000000	0.051941
1234.000000	0.051659
1233.000000	0.051283
1232.000000	0.050839
1231.000000	0.050324
1230.000000	0.049745
1229.000000	0.049120
1228.000000	0.048444
1227.000000	0.047686
1226.000000	0.046848
1225.000000	0.045979
1224.000000	0.045119
1223.000000	0.044278
1222.000000	0.043464
1221.000000	0.042703
1220.000000	0.042002
1219.000000	0.041348
1218.000000	0.040756
1217.000000	0.040274
1216.000000	0.039936
1215.000000	0.039720
1214.000000	0.039595
1213.000000	0.039557
1212.000000	0.039603
1211.000000	0.039716
1210.000000	0.039890
1209.000000	0.040143
1208.000000	0.040465
1207.000000	0.040816
1206.000000	0.041166
1205.000000	0.041527
1204.000000	0.041908
1203.000000	0.042295
1202.000000	0.042676
1201.000000	0.043069
1200.000000	0.043478
1199.000000	0.043876
1198.000000	0.044249
1197.000000	0.044617
1196.000000	0.044994
1195.000000	0.045372
1194.000000	0.045753
1193.000000	0.046173
1192.000000	0.046648
1191.000000	0.047159
1190.000000	0.047693
1189.000000	0.048280
1188.000000	0.048949
1187.000000	0.049695
1186.000000	0.050510
1185.000000	0.051412
1184.000000	0.052414
1183.000000	0.053503
1182.000000	0.054678
1181.000000	0.055965
1180.000000	0.057359
1179.000000	0.058805
1178.000000	0.060265
1177.000000	0.061744
1176.000000	0.063240
1175.000000	0.064720
1174.000000	0.066174
1173.000000	0.067628
1172.000000	0.069078
1171.000000	0.070458
1170.000000	0.071730
1169.000000	0.072922
1168.000000	0.074053
1167.000000	0.075093
1166.000000	0.076010
1165.000000	0.076815
1164.000000	0.077498
1163.000000	0.077997
1162.000000	0.078281
1161.000000	0.078370
1160.000000	0.078274
1159.000000	0.077966
1158.000000	0.077451
1157.000000	0.076789
1156.000000	0.076016
1155.000000	0.075126
1154.000000	0.074148
1153.000000	0.073163
1152.000000	0.072221
1151.000000	0.071301
1150.000000	0.070385
1149.000000	0.069497
1148.000000	0.068639
1147.000000	0.067756
1146.000000	0.066805
1145.000000	0.065768
1144.000000	0.064596
1143.000000	0.063190
1142.000000	0.061486
1141.000000	0.059502
1140.000000	0.057265
1139.000000	0.054783
1138.000000	0.052103
1137.000000	0.049348
1136.000000	0.046646
1135.000000	0.044079
1134.000000	0.041713
1133.000000	0.039631
1132.000000	0.037901
1131.000000	0.036545
1130.000000	0.035577
1129.000000	0.035024
1128.000000	0.034901
1127.000000	0.035172
1126.000000	0.035771
1125.000000	0.036639
1124.000000	0.037702
1123.000000	0.038860
1122.000000	0.040013
1121.000000	0.041086
1120.000000	0.042009
1119.000000	0.042708
1118.000000	0.043149
1117.000000	0.043352
1116.000000	0.043339
1115.000000	0.043108
1114.000000	0.042688
1113.000000	0.042148
1112.000000	0.041546
1111.000000	0.040912
1110.000000	0.040303
1109.000000	0.039812
1108.000000	0.039497
1107.000000	0.039356
1106.000000	0.039386
1105.000000	0.039611
1104.000000	0.040012
1103.000000	0.040505
1102.000000	0.041010
1101.000000	0.041509
1100.000000	0.041986
1099.000000	0.042379
1098.000000	0.042636
1097.000000	0.042764
1096.000000	0.042782
1095.000000	0.042674
1094.000000	0.042434
1093.000000	0.042102
1092.000000	0.041719
1091.000000	0.041300
1090.000000	0.040868
1089.000000	0.040469
1088.000000	0.040111
1087.000000	0.039750
1086.000000	0.039362
1085.000000	0.038968
1084.000000	0.038560
1083.000000	0.038072
1082.000000	0.037450
1081.000000	0.036715
1080.000000	0.035907
1079.000000	0.035031
1078.000000	0.034093
1077.000000	0.033135
1076.000000	0.032192
1075.000000	0.031273
1074.000000	0.030410
1073.000000	0.029672
1072.000000	0.029101
1071.000000	0.028664
1070.000000	0.028314
1069.000000	0.028049
1068.000000	0.027880
1067.000000	0.027781
1066.000000	0.027716
1065.000000	0.027675
1064.000000	0.027644
1063.000000	0.027580
1062.000000	0.027446
1061.000000	0.027249
1060.000000	0.027004
1059.000000	0.026708
1058.000000	0.026368
1057.000000	0.026015
1056.000000	0.025655
1055.000000	0.025259
1054.000000	0.024820
1053.000000	0.024386
1052.000000	0.024005
1051.000000	0.023676
1050.000000	0.023388
1049.000000	0.023152
1048.000000	0.022958
1047.000000	0.022758
1046.000000	0.022531
1045.000000	0.022311
1044.000000	0.022140
1043.000000	0.022027
1042.000000	0.021983
1041.000000	0.022038
1040.000000	0.022190
1039.000000	0.022400
1038.000000	0.022644
1037.000000	0.022953
1036.000000	0.023328
1035.000000	0.023701
1034.000000	0.023993
1033.000000	0.024191
1032.000000	0.024308
1031.000000	0.024327
1030.000000	0.024234
1029.000000	0.024048
1028.000000	0.023791
1027.000000	0.023465
1026.000000	0.023098
1025.000000	0.022750
1024.000000	0.022452
1023.000000	0.022172
1022.000000	0.021880
1021.000000	0.021602
1020.000000	0.021369
1019.000000	0.021169
1018.000000	0.020979
1017.000000	0.020790
1016.000000	0.020564
1015.000000	0.020237
1014.000000	0.019783
1013.000000	0.019266
1012.000000	0.018751
1011.000000	0.018237
1010.000000	0.017706
1009.000000	0.017178
1008.000000	0.016685
1007.000000	0.016219
1006.000000	0.015764
1005.000000	0.015324
1004.000000	0.014906
1003.000000	0.014495
1002.000000	0.014082
1001.000000	0.013693
1000.000000	0.013342
999.000000	0.013009
998.000000	0.012680
997.000000	0.012369
996.000000	0.012078
995.000000	0.011777
994.000000	0.011465
993.000000	0.011189
992.000000	0.010980
991.000000	0.010815
990.000000	0.010669
989.000000	0.010551
988.000000	0.010467
987.000000	0.010386
986.000000	0.010299
985.000000	0.010238
984.000000	0.010227
983.000000	0.010240
982.000000	0.010260
981.000000	0.010319
980.000000	0.010434
979.000000	0.010573
978.000000	0.010715
977.000000	0.010895
976.000000	0.011147
975.000000	0.011436
974.000000	0.011709
973.000000	0.011962
972.000000	0.012205
971.000000	0.012420
970.000000	0.012588
969.000000	0.012715
968.000000	0.012782
967.000000	0.012721
966.000000	0.012492
965.000000	0.012135
964.000000	0.011702
963.000000	0.011184
962.000000	0.010572
961.000000	0.009914
960.000000	0.009275
959.000000	0.008668
958.000000	0.008080
957.000000	0.007529
956.000000	0.007034
955.000000	0.006576
954.000000	0.006131
953.000000	0.005717
952.000000	0.005359
951.000000	0.005048
950.000000	0.004772
949.000000	0.004544
948.000000	0.004365
947.000000	0.004193
946.000000	0.004000
945.000000	0.003807
944.000000	0.003636
943.000000	0.003461
942.000000	0.003252
941.000000	0.003027
940.000000	0.002810
939.000000	0.002588
938.000000	0.002349
937.000000	0.002110
936.000000	0.001878
935.000000	0.001628
934.000000	0.001351
933.000000	0.001091
932.000000	0.000876
931.000000	0.000675
930.000000	0.000463
929.000000	0.000279
928.000000	0.000161
927.000000	0.000077
926.000000	-0.000017
925.000000	-0.000106
924.000000	-0.000155
923.000000	-0.000184
922.000000	-0.000239
921.000000	-0.000321
920.000000	-0.000415
919.000000	-0.000530
918.000000	-0.000680
917.000000	-0.000841
916.000000	-0.000985
915.000000	-0.001121
914.000000	-0.001259
913.000000	-0.001369
912.000000	-0.001425
911.000000	-0.001453
910.000000	-0.001486
909.000000	-0.001512
908.000000	-0.001518
907.000000	-0.001532
906.000000	-0.001581
905.000000	-0.001639
904.000000	-0.001670
903.000000	-0.001688
902.000000	-0.001719
901.000000	-0.001751
900.000000	-0.001771
899.000000	-0.001801
898.000000	-0.001867
897.000000	-0.001939
896.000000	-0.001980
895.000000	-0.001988
894.000000	-0.001969
893.000000	-0.001903
892.000000	-0.001790
891.000000	-0.001682
890.000000	-0.001618
889.000000	-0.001567
888.000000	-0.001484
887.000000	-0.001356
886.000000	-0.001168
885.000000	-0.000865
884.000000	-0.000401
883.000000	0.000220
882.000000	0.001013
881.000000	0.002067
880.000000	0.003460
879.000000	0.005142
878.000000	0.006927
877.000000	0.008551
876.000000	0.009709
875.000000	0.010137
874.000000	0.009764
873.000000	0.008749
872.000000	0.007356
871.000000	0.005838
870.000000	0.004423
869.000000	0.003284
868.000000	0.002451
867.000000	0.001817
866.000000	0.001295
865.000000	0.000893
864.000000	0.000626
863.000000	0.000440
862.000000	0.000289
861.000000	0.000199
860.000000	0.000180
859.000000	0.000167
858.000000	0.000113
857.000000	0.000062
856.000000	0.000072
855.000000	0.000120
854.000000	0.000163
853.000000	0.000208
852.000000	0.000259
851.000000	0.000264
850.000000	0.000189
849.000000	0.000075
848.000000	-0.000038
847.000000	-0.000177
846.000000	-0.000354
845.000000	-0.000513
844.000000	-0.000619
843.000000	-0.000726
842.000000	-0.000889
841.000000	-0.001073
840.000000	-0.001223
839.000000	-0.001344
838.000000	-0.001447
837.000000	-0.001506
836.000000	-0.001526
835.000000	-0.001584
834.000000	-0.001711
833.000000	-0.001829
832.000000	-0.001865
831.000000	-0.001862
830.000000	-0.001891
829.000000	-0.001933
828.000000	-0.001938
827.000000	-0.001921
826.000000	-0.001912
825.000000	-0.001884
824.000000	-0.001826
823.000000	-0.001811
822.000000	-0.001887
821.000000	-0.001975
820.000000	-0.001969
819.000000	-0.001867
818.000000	-0.001723
817.000000	-0.001568
816.000000	-0.001441
815.000000	-0.001410
814.000000	-0.001478
813.000000	-0.001550
812.000000	-0.001559
811.000000	-0.001555
810.000000	-0.001589
809.000000	-0.001626
808.000000	-0.001629
807.000000	-0.001658
806.000000	-0.001767
805.000000	-0.001902
804.000000	-0.001983
803.000000	-0.002018
802.000000	-0.002036
801.000000	-0.002008
800.000000	-0.001918
799.000000	-0.001837
798.000000	-0.001832
797.000000	-0.001860
796.000000	-0.001850
795.000000	-0.001804
794.000000	-0.001750
793.000000	-0.001663
792.000000	-0.001532
791.000000	-0.001427
790.000000	-0.001398
789.000000	-0.001386
788.000000	-0.001321
787.000000	-0.001222
786.000000	-0.001141
785.000000	-0.001064
784.000000	-0.000964
783.000000	-0.000875
782.000000	-0.000822
781.000000	-0.000762
780.000000	-0.000656
779.000000	-0.000550
778.000000	-0.000492
777.000000	-0.000442
776.000000	-0.000347
775.000000	-0.000221
774.000000	-0.000107
773.000000	0.000000
772.000000	0.000115
771.000000	0.000213
770.000000	0.000292
769.000000	0.000400
768.000000	0.000550
767.000000	0.000690
766.000000	0.000797
765.000000	0.000919
764.000000	0.001065
763.000000	0.001154
762.000000	0.001157
761.000000	0.001168
760.000000	0.001271
759.000000	0.001423
758.000000	0.001553
757.000000	0.001673
756.000000	0.001812
755.000000	0.001936
754.000000	0.002029
753.000000	0.002157
752.000000	0.002371
751.000000	0.002624
750.000000	0.002862
749.000000	0.003111
748.000000	0.003395
747.000000	0.003667
746.000000	0.003917
745.000000	0.004228
744.000000	0.004654
743.000000	0.005130
742.000000	0.005591
741.000000	0.006082
740.000000	0.006656
739.000000	0.007265
738.000000	0.007850
737.000000	0.008450
736.000000	0.009107
735.000000	0.009777
734.000000	0.010430
733.000000	0.011144
732.000000	0.012006
731.000000	0.012995
730.000000	0.014063
729.000000	0.015233
728.000000	0.016523
727.000000	0.017860
726.000000	0.019172
725.000000	0.020461
724.000000	0.021681
723.000000	0.022660
722.000000	0.023233
721.000000	0.023378
720.000000	0.023140
719.000000	0.022550
718.000000	0.021713
717.000000	0.020863
716.000000	0.020199
715.000000	0.019732
714.000000	0.019356
713.000000	0.018998
712.000000	0.018605
711.000000	0.018101
710.000000	0.017479
709.000000	0.016861
708.000000	0.016353
707.000000	0.015928
706.000000	0.015533
705.000000	0.015217
704.000000	0.015017
703.000000	0.014860
702.000000	0.014674
701.000000	0.014509
700.000000	0.014431
699.000000	0.014394
698.000000	0.014323
697.000000	0.014238
696.000000	0.014173
695.000000	0.014081
694.000000	0.013930
693.000000	0.013790
692.000000	0.013726
691.000000	0.013685
690.000000	0.013593
689.000000	0.013476
688.000000	0.013361
687.000000	0.013191
686.000000	0.012943
685.000000	0.012734
684.000000	0.012672
683.000000	0.012695
682.000000	0.012677
681.000000	0.012598
680.000000	0.012492
679.000000	0.012341
678.000000	0.012150
677.000000	0.012044
676.000000	0.012105
675.000000	0.012226
674.000000	0.012241
673.000000	0.012128
672.000000	0.011958
671.000000	0.011745
670.000000	0.011484
669.000000	0.011261
668.000000	0.011236
667.000000	0.011428
666.000000	0.011536
665.000000	0.011588
664.000000	0.011710
663.000000	0.011816
662.000000	0.011780
661.000000	0.011647
660.000000	0.011543
659.000000	0.011483
658.000000	0.011430
657.000000	0.011433
656.000000	0.011505
655.000000	0.011537
654.000000	0.011461
653.000000	0.011351
652.000000	0.011255
651.000000	0.011098
650.000000	0.010883
649.000000	0.010763
648.000000	0.010790
647.000000	0.010792
646.000000	0.010656
645.000000	0.010513
644.000000	0.010497
643.000000	0.010536
642.000000	0.010528
641.000000	0.010524
640.000000	0.010578
639.000000	0.010586
638.000000	0.010463
637.000000	0.010314
636.000000	0.010250
635.000000	0.010211
634.000000	0.010125
633.000000	0.010067
632.000000	0.010106
631.000000	0.010164
630.000000	0.010168
629.000000	0.010196
628.000000	0.010306
627.000000	0.010397
626.000000	0.010389
625.000000	0.010378
624.000000	0.010450
623.000000	0.010514
622.000000	0.010478
621.000000	0.010414
620.000000	0.010396
619.000000	0.010364
618.000000	0.010290
617.000000	0.010297
616.000000	0.010443
615.000000	0.010573
614.000000	0.010557
613.000000	0.010484
612.000000	0.010461
611.000000	0.010425
610.000000	0.010331
609.000000	0.010313
608.000000	0.010475
607.000000	0.010693
606.000000	0.010809
605.000000	0.010834
604.000000	0.010817
603.000000	0.010724
602.000000	0.010604
601.000000	0.010628
600.000000	0.010806
599.000000	0.010903
598.000000	0.010805
597.000000	0.010717
596.000000	0.010794
595.000000	0.010881
594.000000	0.010816
593.000000	0.010751
592.000000	0.010880
591.000000	0.011105
590.000000	0.011244
589.000000	0.011340
588.000000	0.011482
587.000000	0.011546
586.000000	0.011409
585.000000	0.011204
584.000000	0.011115
583.000000	0.011110
582.000000	0.011121
581.000000	0.011261
580.000000	0.011574
579.000000	0.011813
578.000000	0.011759
577.000000	0.011555
576.000000	0.011451
575.000000	0.011436
574.000000	0.011386
573.000000	0.011364
572.000000	0.011460
571.000000	0.011563
570.000000	0.011565
569.000000	0.011581
568.000000	0.011715
567.000000	0.011823
566.000000	0.011789
565.000000	0.011764
564.000000	0.011874
563.000000	0.011944
562.000000	0.011818
561.000000	0.011678
560.000000	0.011748
559.000000	0.011920
558.000000	0.011984
557.000000	0.011980
556.000000	0.012028
555.000000	0.012046
554.000000	0.011946
553.000000	0.011861
552.000000	0.011898
551.000000	0.011885
550.000000	0.011658
549.000000	0.011358
548.000000	0.011148
547.000000	0.010959
546.000000	0.010773
545.000000	0.010820
544.000000	0.011169
543.000000	0.011438
542.000000	0.011286
541.000000	0.010892
540.000000	0.010637
539.000000	0.010587
538.000000	0.010637
537.000000	0.010832
536.000000	0.011186
535.000000	0.011441
534.000000	0.011426
533.000000	0.011408
532.000000	0.011697
531.000000	0.012128
530.000000	0.012298
529.000000	0.012118
528.000000	0.011787
527.000000	0.011448
526.000000	0.011193
525.000000	0.011143
524.000000	0.011212
523.000000	0.011069
522.000000	0.010589
521.000000	0.010047
520.000000	0.009657
519.000000	0.009223
518.000000	0.008545
517.000000	0.007872
516.000000	0.007532
515.000000	0.007459
514.000000	0.007459
513.000000	0.007539
512.000000	0.007676
511.000000	0.007613
510.000000	0.007256
509.000000	0.006908
508.000000	0.006821
507.000000	0.006791
506.000000	0.006575
505.000000	0.006297
504.000000	0.006081
503.000000	0.005701
502.000000	0.005018
501.000000	0.004402
500.000000	0.004194
499.000000	0.004186
498.000000	0.004069
497.000000	0.003951
496.000000	0.004023
495.000000	0.004084
494.000000	0.003852
493.000000	0.003478
492.000000	0.003263
491.000000	0.003161
490.000000	0.002990
489.000000	0.002831
488.000000	0.002782
487.000000	0.002624
486.000000	0.002206
485.000000	0.001858
484.000000	0.001951
483.000000	0.002281
482.000000	0.002414
481.000000	0.002324
480.000000	0.002212
479.000000	0.002042
478.000000	0.001767
477.000000	0.001662
476.000000	0.001894
475.000000	0.002082
474.000000	0.001817
473.000000	0.001357
472.000000	0.001246
471.000000	0.001431
470.000000	0.001526
469.000000	0.001585
468.000000	0.001881
467.000000	0.002265
466.000000	0.002359
465.000000	0.002176
464.000000	0.001968
463.000000	0.001717
462.000000	0.001291
461.000000	0.000842
460.000000	0.000552
459.000000	0.000291
458.000000	-0.000069
457.000000	-0.000292
456.000000	-0.000293
455.000000	-0.000482
454.000000	-0.001055
453.000000	-0.001574
452.000000	-0.001655
451.000000	-0.001611
450.000000	-0.001827
