PE IR       SUBTECH     SPECTRUM    ASCII       PEDS        4.00        
   -1
3S-H10-C013_1.ASC
22/02/16
16:24:16.00
22/02/16
16:48:54.00
uco
Sample 013 By uco Date Wednesday, February 16 2022
450.000000
#HDR
-1
-1
#GR
cm-1
A
1.0
0.0
4000.000000
-1.000000
3551
8
0.156456
-0.003241
#DATA
4000.000000	-0.002683
3999.000000	-0.002687
3998.000000	-0.002673
3997.000000	-0.002638
3996.000000	-0.002596
3995.000000	-0.002565
3994.000000	-0.002553
3993.000000	-0.002557
3992.000000	-0.002568
3991.000000	-0.002580
3990.000000	-0.002591
3989.000000	-0.002599
3988.000000	-0.002603
3987.000000	-0.002597
3986.000000	-0.002578
3985.000000	-0.002552
3984.000000	-0.002530
3983.000000	-0.002522
3982.000000	-0.002533
3981.000000	-0.002554
3980.000000	-0.002573
3979.000000	-0.002579
3978.000000	-0.002575
3977.000000	-0.002564
3976.000000	-0.002552
3975.000000	-0.002539
3974.000000	-0.002528
3973.000000	-0.002521
3972.000000	-0.002521
3971.000000	-0.002527
3970.000000	-0.002534
3969.000000	-0.002536
3968.000000	-0.002530
3967.000000	-0.002518
3966.000000	-0.002501
3965.000000	-0.002484
3964.000000	-0.002469
3963.000000	-0.002459
3962.000000	-0.002456
3961.000000	-0.002459
3960.000000	-0.002466
3959.000000	-0.002473
3958.000000	-0.002477
3957.000000	-0.002476
3956.000000	-0.002466
3955.000000	-0.002450
3954.000000	-0.002430
3953.000000	-0.002413
3952.000000	-0.002406
3951.000000	-0.002418
3950.000000	-0.002448
3949.000000	-0.002484
3948.000000	-0.002511
3947.000000	-0.002520
3946.000000	-0.002515
3945.000000	-0.002505
3944.000000	-0.002490
3943.000000	-0.002465
3942.000000	-0.002430
3941.000000	-0.002400
3940.000000	-0.002387
3939.000000	-0.002391
3938.000000	-0.002402
3937.000000	-0.002405
3936.000000	-0.002397
3935.000000	-0.002385
3934.000000	-0.002378
3933.000000	-0.002383
3932.000000	-0.002398
3931.000000	-0.002419
3930.000000	-0.002436
3929.000000	-0.002444
3928.000000	-0.002444
3927.000000	-0.002439
3926.000000	-0.002429
3925.000000	-0.002413
3924.000000	-0.002388
3923.000000	-0.002362
3922.000000	-0.002345
3921.000000	-0.002341
3920.000000	-0.002347
3919.000000	-0.002360
3918.000000	-0.002379
3917.000000	-0.002399
3916.000000	-0.002415
3915.000000	-0.002422
3914.000000	-0.002423
3913.000000	-0.002418
3912.000000	-0.002409
3911.000000	-0.002397
3910.000000	-0.002384
3909.000000	-0.002367
3908.000000	-0.002342
3907.000000	-0.002310
3906.000000	-0.002282
3905.000000	-0.002269
3904.000000	-0.002267
3903.000000	-0.002268
3902.000000	-0.002273
3901.000000	-0.002294
3900.000000	-0.002330
3899.000000	-0.002367
3898.000000	-0.002389
3897.000000	-0.002389
3896.000000	-0.002361
3895.000000	-0.002308
3894.000000	-0.002247
3893.000000	-0.002212
3892.000000	-0.002219
3891.000000	-0.002248
3890.000000	-0.002265
3889.000000	-0.002265
3888.000000	-0.002273
3887.000000	-0.002312
3886.000000	-0.002372
3885.000000	-0.002416
3884.000000	-0.002424
3883.000000	-0.002407
3882.000000	-0.002385
3881.000000	-0.002368
3880.000000	-0.002356
3879.000000	-0.002346
3878.000000	-0.002341
3877.000000	-0.002343
3876.000000	-0.002347
3875.000000	-0.002344
3874.000000	-0.002324
3873.000000	-0.002295
3872.000000	-0.002282
3871.000000	-0.002294
3870.000000	-0.002307
3869.000000	-0.002297
3868.000000	-0.002284
3867.000000	-0.002304
3866.000000	-0.002355
3865.000000	-0.002404
3864.000000	-0.002424
3863.000000	-0.002416
3862.000000	-0.002397
3861.000000	-0.002370
3860.000000	-0.002329
3859.000000	-0.002269
3858.000000	-0.002191
3857.000000	-0.002108
3856.000000	-0.002047
3855.000000	-0.002050
3854.000000	-0.002133
3853.000000	-0.002251
3852.000000	-0.002350
3851.000000	-0.002423
3850.000000	-0.002465
3849.000000	-0.002467
3848.000000	-0.002427
3847.000000	-0.002363
3846.000000	-0.002302
3845.000000	-0.002268
3844.000000	-0.002270
3843.000000	-0.002298
3842.000000	-0.002332
3841.000000	-0.002363
3840.000000	-0.002389
3839.000000	-0.002408
3838.000000	-0.002414
3837.000000	-0.002404
3836.000000	-0.002383
3835.000000	-0.002356
3834.000000	-0.002330
3833.000000	-0.002306
3832.000000	-0.002283
3831.000000	-0.002260
3830.000000	-0.002251
3829.000000	-0.002272
3828.000000	-0.002324
3827.000000	-0.002384
3826.000000	-0.002415
3825.000000	-0.002401
3824.000000	-0.002358
3823.000000	-0.002322
3822.000000	-0.002311
3821.000000	-0.002314
3820.000000	-0.002310
3819.000000	-0.002313
3818.000000	-0.002338
3817.000000	-0.002379
3816.000000	-0.002408
3815.000000	-0.002415
3814.000000	-0.002421
3813.000000	-0.002442
3812.000000	-0.002461
3811.000000	-0.002451
3810.000000	-0.002416
3809.000000	-0.002389
3808.000000	-0.002401
3807.000000	-0.002433
3806.000000	-0.002447
3805.000000	-0.002435
3804.000000	-0.002418
3803.000000	-0.002412
3802.000000	-0.002409
3801.000000	-0.002398
3800.000000	-0.002391
3799.000000	-0.002410
3798.000000	-0.002454
3797.000000	-0.002500
3796.000000	-0.002526
3795.000000	-0.002538
3794.000000	-0.002552
3793.000000	-0.002574
3792.000000	-0.002595
3791.000000	-0.002604
3790.000000	-0.002599
3789.000000	-0.002586
3788.000000	-0.002568
3787.000000	-0.002549
3786.000000	-0.002530
3785.000000	-0.002510
3784.000000	-0.002487
3783.000000	-0.002464
3782.000000	-0.002453
3781.000000	-0.002458
3780.000000	-0.002471
3779.000000	-0.002474
3778.000000	-0.002467
3777.000000	-0.002465
3776.000000	-0.002479
3775.000000	-0.002504
3774.000000	-0.002523
3773.000000	-0.002533
3772.000000	-0.002535
3771.000000	-0.002533
3770.000000	-0.002518
3769.000000	-0.002496
3768.000000	-0.002482
3767.000000	-0.002489
3766.000000	-0.002515
3765.000000	-0.002546
3764.000000	-0.002567
3763.000000	-0.002581
3762.000000	-0.002594
3761.000000	-0.002606
3760.000000	-0.002612
3759.000000	-0.002611
3758.000000	-0.002610
3757.000000	-0.002608
3756.000000	-0.002602
3755.000000	-0.002594
3754.000000	-0.002590
3753.000000	-0.002596
3752.000000	-0.002608
3751.000000	-0.002617
3750.000000	-0.002612
3749.000000	-0.002593
3748.000000	-0.002568
3747.000000	-0.002558
3746.000000	-0.002584
3745.000000	-0.002628
3744.000000	-0.002651
3743.000000	-0.002658
3742.000000	-0.002681
3741.000000	-0.002719
3740.000000	-0.002738
3739.000000	-0.002714
3738.000000	-0.002658
3737.000000	-0.002603
3736.000000	-0.002584
3735.000000	-0.002604
3734.000000	-0.002647
3733.000000	-0.002689
3732.000000	-0.002706
3731.000000	-0.002695
3730.000000	-0.002678
3729.000000	-0.002675
3728.000000	-0.002691
3727.000000	-0.002708
3726.000000	-0.002697
3725.000000	-0.002655
3724.000000	-0.002600
3723.000000	-0.002552
3722.000000	-0.002531
3721.000000	-0.002549
3720.000000	-0.002599
3719.000000	-0.002654
3718.000000	-0.002687
3717.000000	-0.002688
3716.000000	-0.002666
3715.000000	-0.002636
3714.000000	-0.002600
3713.000000	-0.002546
3712.000000	-0.002468
3711.000000	-0.002389
3710.000000	-0.002350
3709.000000	-0.002373
3708.000000	-0.002449
3707.000000	-0.002537
3706.000000	-0.002597
3705.000000	-0.002613
3704.000000	-0.002597
3703.000000	-0.002572
3702.000000	-0.002556
3701.000000	-0.002552
3700.000000	-0.002553
3699.000000	-0.002555
3698.000000	-0.002556
3697.000000	-0.002554
3696.000000	-0.002541
3695.000000	-0.002517
3694.000000	-0.002487
3693.000000	-0.002458
3692.000000	-0.002433
3691.000000	-0.002413
3690.000000	-0.002389
3689.000000	-0.002354
3688.000000	-0.002317
3687.000000	-0.002295
3686.000000	-0.002291
3685.000000	-0.002293
3684.000000	-0.002277
3683.000000	-0.002228
3682.000000	-0.002155
3681.000000	-0.002073
3680.000000	-0.001980
3679.000000	-0.001867
3678.000000	-0.001757
3677.000000	-0.001702
3676.000000	-0.001719
3675.000000	-0.001761
3674.000000	-0.001798
3673.000000	-0.001849
3672.000000	-0.001924
3671.000000	-0.001988
3670.000000	-0.001995
3669.000000	-0.001939
3668.000000	-0.001871
3667.000000	-0.001828
3666.000000	-0.001802
3665.000000	-0.001776
3664.000000	-0.001741
3663.000000	-0.001698
3662.000000	-0.001652
3661.000000	-0.001603
3660.000000	-0.001549
3659.000000	-0.001495
3658.000000	-0.001453
3657.000000	-0.001428
3656.000000	-0.001410
3655.000000	-0.001387
3654.000000	-0.001359
3653.000000	-0.001336
3652.000000	-0.001322
3651.000000	-0.001307
3650.000000	-0.001269
3649.000000	-0.001192
3648.000000	-0.001087
3647.000000	-0.000982
3646.000000	-0.000906
3645.000000	-0.000871
3644.000000	-0.000867
3643.000000	-0.000872
3642.000000	-0.000865
3641.000000	-0.000842
3640.000000	-0.000814
3639.000000	-0.000788
3638.000000	-0.000759
3637.000000	-0.000716
3636.000000	-0.000658
3635.000000	-0.000587
3634.000000	-0.000506
3633.000000	-0.000424
3632.000000	-0.000358
3631.000000	-0.000314
3630.000000	-0.000279
3629.000000	-0.000226
3628.000000	-0.000155
3627.000000	-0.000102
3626.000000	-0.000077
3625.000000	-0.000059
3624.000000	-0.000029
3623.000000	0.000013
3622.000000	0.000055
3621.000000	0.000088
3620.000000	0.000123
3619.000000	0.000173
3618.000000	0.000238
3617.000000	0.000305
3616.000000	0.000370
3615.000000	0.000441
3614.000000	0.000526
3613.000000	0.000617
3612.000000	0.000694
3611.000000	0.000747
3610.000000	0.000793
3609.000000	0.000854
3608.000000	0.000936
3607.000000	0.001018
3606.000000	0.001075
3605.000000	0.001106
3604.000000	0.001130
3603.000000	0.001167
3602.000000	0.001222
3601.000000	0.001284
3600.000000	0.001343
3599.000000	0.001395
3598.000000	0.001444
3597.000000	0.001496
3596.000000	0.001553
3595.000000	0.001616
3594.000000	0.001686
3593.000000	0.001754
3592.000000	0.001808
3591.000000	0.001843
3590.000000	0.001865
3589.000000	0.001900
3588.000000	0.001980
3587.000000	0.002108
3586.000000	0.002247
3585.000000	0.002359
3584.000000	0.002444
3583.000000	0.002521
3582.000000	0.002602
3581.000000	0.002681
3580.000000	0.002755
3579.000000	0.002831
3578.000000	0.002918
3577.000000	0.003016
3576.000000	0.003115
3575.000000	0.003211
3574.000000	0.003308
3573.000000	0.003406
3572.000000	0.003497
3571.000000	0.003570
3570.000000	0.003627
3569.000000	0.003677
3568.000000	0.003744
3567.000000	0.003840
3566.000000	0.003946
3565.000000	0.004030
3564.000000	0.004081
3563.000000	0.004119
3562.000000	0.004166
3561.000000	0.004232
3560.000000	0.004315
3559.000000	0.004408
3558.000000	0.004507
3557.000000	0.004606
3556.000000	0.004701
3555.000000	0.004794
3554.000000	0.004887
3553.000000	0.004980
3552.000000	0.005064
3551.000000	0.005133
3550.000000	0.005185
3549.000000	0.005232
3548.000000	0.005291
3547.000000	0.005374
3546.000000	0.005479
3545.000000	0.005587
3544.000000	0.005680
3543.000000	0.005755
3542.000000	0.005819
3541.000000	0.005882
3540.000000	0.005948
3539.000000	0.006021
3538.000000	0.006099
3537.000000	0.006186
3536.000000	0.006278
3535.000000	0.006367
3534.000000	0.006441
3533.000000	0.006492
3532.000000	0.006527
3531.000000	0.006561
3530.000000	0.006606
3529.000000	0.006665
3528.000000	0.006737
3527.000000	0.006814
3526.000000	0.006887
3525.000000	0.006950
3524.000000	0.007008
3523.000000	0.007076
3522.000000	0.007162
3521.000000	0.007262
3520.000000	0.007360
3519.000000	0.007442
3518.000000	0.007509
3517.000000	0.007567
3516.000000	0.007624
3515.000000	0.007684
3514.000000	0.007750
3513.000000	0.007820
3512.000000	0.007895
3511.000000	0.007971
3510.000000	0.008039
3509.000000	0.008093
3508.000000	0.008133
3507.000000	0.008173
3506.000000	0.008221
3505.000000	0.008283
3504.000000	0.008358
3503.000000	0.008445
3502.000000	0.008538
3501.000000	0.008627
3500.000000	0.008708
3499.000000	0.008787
3498.000000	0.008870
3497.000000	0.008951
3496.000000	0.009021
3495.000000	0.009076
3494.000000	0.009120
3493.000000	0.009163
3492.000000	0.009212
3491.000000	0.009266
3490.000000	0.009322
3489.000000	0.009374
3488.000000	0.009429
3487.000000	0.009496
3486.000000	0.009577
3485.000000	0.009658
3484.000000	0.009722
3483.000000	0.009764
3482.000000	0.009793
3481.000000	0.009830
3480.000000	0.009886
3479.000000	0.009961
3478.000000	0.010045
3477.000000	0.010122
3476.000000	0.010184
3475.000000	0.010229
3474.000000	0.010256
3473.000000	0.010272
3472.000000	0.010289
3471.000000	0.010322
3470.000000	0.010371
3469.000000	0.010428
3468.000000	0.010478
3467.000000	0.010520
3466.000000	0.010557
3465.000000	0.010592
3464.000000	0.010621
3463.000000	0.010643
3462.000000	0.010660
3461.000000	0.010676
3460.000000	0.010697
3459.000000	0.010733
3458.000000	0.010785
3457.000000	0.010846
3456.000000	0.010901
3455.000000	0.010940
3454.000000	0.010967
3453.000000	0.010992
3452.000000	0.011019
3451.000000	0.011050
3450.000000	0.011080
3449.000000	0.011107
3448.000000	0.011136
3447.000000	0.011170
3446.000000	0.011206
3445.000000	0.011231
3444.000000	0.011239
3443.000000	0.011243
3442.000000	0.011257
3441.000000	0.011286
3440.000000	0.011322
3439.000000	0.011357
3438.000000	0.011394
3437.000000	0.011439
3436.000000	0.011496
3435.000000	0.011560
3434.000000	0.011617
3433.000000	0.011658
3432.000000	0.011683
3431.000000	0.011699
3430.000000	0.011714
3429.000000	0.011731
3428.000000	0.011754
3427.000000	0.011787
3426.000000	0.011830
3425.000000	0.011876
3424.000000	0.011913
3423.000000	0.011939
3422.000000	0.011963
3421.000000	0.011993
3420.000000	0.012032
3419.000000	0.012069
3418.000000	0.012093
3417.000000	0.012102
3416.000000	0.012102
3415.000000	0.012111
3414.000000	0.012140
3413.000000	0.012188
3412.000000	0.012243
3411.000000	0.012289
3410.000000	0.012319
3409.000000	0.012338
3408.000000	0.012362
3407.000000	0.012397
3406.000000	0.012432
3405.000000	0.012452
3404.000000	0.012452
3403.000000	0.012445
3402.000000	0.012444
3401.000000	0.012452
3400.000000	0.012465
3399.000000	0.012483
3398.000000	0.012507
3397.000000	0.012534
3396.000000	0.012561
3395.000000	0.012585
3394.000000	0.012608
3393.000000	0.012637
3392.000000	0.012676
3391.000000	0.012720
3390.000000	0.012756
3389.000000	0.012777
3388.000000	0.012790
3387.000000	0.012816
3386.000000	0.012867
3385.000000	0.012939
3384.000000	0.013016
3383.000000	0.013083
3382.000000	0.013133
3381.000000	0.013171
3380.000000	0.013205
3379.000000	0.013245
3378.000000	0.013301
3377.000000	0.013369
3376.000000	0.013440
3375.000000	0.013504
3374.000000	0.013560
3373.000000	0.013613
3372.000000	0.013675
3371.000000	0.013748
3370.000000	0.013826
3369.000000	0.013899
3368.000000	0.013964
3367.000000	0.014031
3366.000000	0.014103
3365.000000	0.014174
3364.000000	0.014237
3363.000000	0.014296
3362.000000	0.014357
3361.000000	0.014421
3360.000000	0.014482
3359.000000	0.014540
3358.000000	0.014603
3357.000000	0.014681
3356.000000	0.014774
3355.000000	0.014873
3354.000000	0.014964
3353.000000	0.015037
3352.000000	0.015096
3351.000000	0.015155
3350.000000	0.015226
3349.000000	0.015307
3348.000000	0.015391
3347.000000	0.015476
3346.000000	0.015560
3345.000000	0.015642
3344.000000	0.015722
3343.000000	0.015806
3342.000000	0.015896
3341.000000	0.015983
3340.000000	0.016059
3339.000000	0.016124
3338.000000	0.016190
3337.000000	0.016268
3336.000000	0.016354
3335.000000	0.016433
3334.000000	0.016492
3333.000000	0.016536
3332.000000	0.016582
3331.000000	0.016644
3330.000000	0.016714
3329.000000	0.016771
3328.000000	0.016803
3327.000000	0.016819
3326.000000	0.016838
3325.000000	0.016875
3324.000000	0.016927
3323.000000	0.016988
3322.000000	0.017049
3321.000000	0.017101
3320.000000	0.017136
3319.000000	0.017152
3318.000000	0.017161
3317.000000	0.017173
3316.000000	0.017197
3315.000000	0.017231
3314.000000	0.017269
3313.000000	0.017301
3312.000000	0.017318
3311.000000	0.017317
3310.000000	0.017300
3309.000000	0.017274
3308.000000	0.017245
3307.000000	0.017223
3306.000000	0.017213
3305.000000	0.017218
3304.000000	0.017241
3303.000000	0.017278
3302.000000	0.017320
3301.000000	0.017356
3300.000000	0.017379
3299.000000	0.017390
3298.000000	0.017396
3297.000000	0.017397
3296.000000	0.017388
3295.000000	0.017364
3294.000000	0.017328
3293.000000	0.017283
3292.000000	0.017240
3291.000000	0.017211
3290.000000	0.017196
3289.000000	0.017192
3288.000000	0.017187
3287.000000	0.017175
3286.000000	0.017154
3285.000000	0.017121
3284.000000	0.017076
3283.000000	0.017021
3282.000000	0.016964
3281.000000	0.016916
3280.000000	0.016883
3279.000000	0.016857
3278.000000	0.016821
3277.000000	0.016762
3276.000000	0.016677
3275.000000	0.016575
3274.000000	0.016469
3273.000000	0.016368
3272.000000	0.016285
3271.000000	0.016232
3270.000000	0.016211
3269.000000	0.016209
3268.000000	0.016200
3267.000000	0.016164
3266.000000	0.016096
3265.000000	0.016008
3264.000000	0.015920
3263.000000	0.015846
3262.000000	0.015789
3261.000000	0.015739
3260.000000	0.015681
3259.000000	0.015607
3258.000000	0.015521
3257.000000	0.015435
3256.000000	0.015364
3255.000000	0.015313
3254.000000	0.015268
3253.000000	0.015211
3252.000000	0.015133
3251.000000	0.015043
3250.000000	0.014955
3249.000000	0.014874
3248.000000	0.014799
3247.000000	0.014728
3246.000000	0.014665
3245.000000	0.014610
3244.000000	0.014558
3243.000000	0.014506
3242.000000	0.014454
3241.000000	0.014405
3240.000000	0.014359
3239.000000	0.014314
3238.000000	0.014261
3237.000000	0.014192
3236.000000	0.014108
3235.000000	0.014022
3234.000000	0.013950
3233.000000	0.013899
3232.000000	0.013867
3231.000000	0.013842
3230.000000	0.013814
3229.000000	0.013774
3228.000000	0.013716
3227.000000	0.013641
3226.000000	0.013560
3225.000000	0.013488
3224.000000	0.013441
3223.000000	0.013422
3222.000000	0.013418
3221.000000	0.013410
3220.000000	0.013382
3219.000000	0.013329
3218.000000	0.013252
3217.000000	0.013162
3216.000000	0.013070
3215.000000	0.012994
3214.000000	0.012942
3213.000000	0.012911
3212.000000	0.012883
3211.000000	0.012845
3210.000000	0.012790
3209.000000	0.012717
3208.000000	0.012632
3207.000000	0.012548
3206.000000	0.012475
3205.000000	0.012417
3204.000000	0.012367
3203.000000	0.012319
3202.000000	0.012267
3201.000000	0.012211
3200.000000	0.012148
3199.000000	0.012079
3198.000000	0.012011
3197.000000	0.011943
3196.000000	0.011875
3195.000000	0.011803
3194.000000	0.011731
3193.000000	0.011662
3192.000000	0.011596
3191.000000	0.011531
3190.000000	0.011467
3189.000000	0.011403
3188.000000	0.011336
3187.000000	0.011263
3186.000000	0.011185
3185.000000	0.011108
3184.000000	0.011041
3183.000000	0.010985
3182.000000	0.010932
3181.000000	0.010870
3180.000000	0.010800
3179.000000	0.010727
3178.000000	0.010656
3177.000000	0.010583
3176.000000	0.010503
3175.000000	0.010421
3174.000000	0.010350
3173.000000	0.010294
3172.000000	0.010240
3171.000000	0.010174
3170.000000	0.010092
3169.000000	0.010006
3168.000000	0.009928
3167.000000	0.009864
3166.000000	0.009807
3165.000000	0.009748
3164.000000	0.009685
3163.000000	0.009625
3162.000000	0.009580
3161.000000	0.009548
3160.000000	0.009509
3159.000000	0.009442
3158.000000	0.009347
3157.000000	0.009242
3156.000000	0.009150
3155.000000	0.009078
3154.000000	0.009020
3153.000000	0.008970
3152.000000	0.008925
3151.000000	0.008886
3150.000000	0.008852
3149.000000	0.008820
3148.000000	0.008788
3147.000000	0.008755
3146.000000	0.008722
3145.000000	0.008690
3144.000000	0.008657
3143.000000	0.008618
3142.000000	0.008570
3141.000000	0.008514
3140.000000	0.008452
3139.000000	0.008386
3138.000000	0.008324
3137.000000	0.008275
3136.000000	0.008249
3135.000000	0.008246
3134.000000	0.008258
3133.000000	0.008263
3132.000000	0.008238
3131.000000	0.008182
3130.000000	0.008115
3129.000000	0.008074
3128.000000	0.008081
3127.000000	0.008133
3126.000000	0.008197
3125.000000	0.008235
3124.000000	0.008221
3123.000000	0.008158
3122.000000	0.008079
3121.000000	0.008021
3120.000000	0.008003
3119.000000	0.008018
3118.000000	0.008048
3117.000000	0.008079
3116.000000	0.008108
3115.000000	0.008133
3114.000000	0.008155
3113.000000	0.008176
3112.000000	0.008197
3111.000000	0.008216
3110.000000	0.008231
3109.000000	0.008244
3108.000000	0.008260
3107.000000	0.008289
3106.000000	0.008333
3105.000000	0.008391
3104.000000	0.008451
3103.000000	0.008500
3102.000000	0.008535
3101.000000	0.008562
3100.000000	0.008595
3099.000000	0.008641
3098.000000	0.008702
3097.000000	0.008767
3096.000000	0.008823
3095.000000	0.008863
3094.000000	0.008894
3093.000000	0.008927
3092.000000	0.008965
3091.000000	0.009005
3090.000000	0.009043
3089.000000	0.009081
3088.000000	0.009122
3087.000000	0.009161
3086.000000	0.009193
3085.000000	0.009217
3084.000000	0.009239
3083.000000	0.009259
3082.000000	0.009274
3081.000000	0.009283
3080.000000	0.009292
3079.000000	0.009310
3078.000000	0.009347
3077.000000	0.009403
3076.000000	0.009465
3075.000000	0.009523
3074.000000	0.009570
3073.000000	0.009609
3072.000000	0.009641
3071.000000	0.009655
3070.000000	0.009641
3069.000000	0.009604
3068.000000	0.009557
3067.000000	0.009519
3066.000000	0.009496
3065.000000	0.009480
3064.000000	0.009459
3063.000000	0.009423
3062.000000	0.009370
3061.000000	0.009307
3060.000000	0.009246
3059.000000	0.009191
3058.000000	0.009142
3057.000000	0.009098
3056.000000	0.009060
3055.000000	0.009027
3054.000000	0.008998
3053.000000	0.008970
3052.000000	0.008939
3051.000000	0.008903
3050.000000	0.008861
3049.000000	0.008815
3048.000000	0.008770
3047.000000	0.008727
3046.000000	0.008685
3045.000000	0.008640
3044.000000	0.008596
3043.000000	0.008560
3042.000000	0.008538
3041.000000	0.008533
3040.000000	0.008539
3039.000000	0.008546
3038.000000	0.008545
3037.000000	0.008536
3036.000000	0.008521
3035.000000	0.008511
3034.000000	0.008517
3033.000000	0.008549
3032.000000	0.008605
3031.000000	0.008670
3030.000000	0.008731
3029.000000	0.008785
3028.000000	0.008839
3027.000000	0.008908
3026.000000	0.009006
3025.000000	0.009145
3024.000000	0.009324
3023.000000	0.009528
3022.000000	0.009742
3021.000000	0.009966
3020.000000	0.010208
3019.000000	0.010479
3018.000000	0.010789
3017.000000	0.011141
3016.000000	0.011537
3015.000000	0.011977
3014.000000	0.012455
3013.000000	0.012962
3012.000000	0.013479
3011.000000	0.013986
3010.000000	0.014469
3009.000000	0.014912
3008.000000	0.015295
3007.000000	0.015593
3006.000000	0.015789
3005.000000	0.015889
3004.000000	0.015908
3003.000000	0.015858
3002.000000	0.015741
3001.000000	0.015562
3000.000000	0.015335
2999.000000	0.015081
2998.000000	0.014815
2997.000000	0.014558
2996.000000	0.014334
2995.000000	0.014169
2994.000000	0.014080
2993.000000	0.014072
2992.000000	0.014137
2991.000000	0.014264
2990.000000	0.014445
2989.000000	0.014683
2988.000000	0.014978
2987.000000	0.015327
2986.000000	0.015720
2985.000000	0.016154
2984.000000	0.016631
2983.000000	0.017150
2982.000000	0.017717
2981.000000	0.018343
2980.000000	0.019042
2979.000000	0.019816
2978.000000	0.020656
2977.000000	0.021556
2976.000000	0.022524
2975.000000	0.023576
2974.000000	0.024725
2973.000000	0.025981
2972.000000	0.027350
2971.000000	0.028837
2970.000000	0.030447
2969.000000	0.032182
2968.000000	0.034042
2967.000000	0.036016
2966.000000	0.038076
2965.000000	0.040182
2964.000000	0.042290
2963.000000	0.044357
2962.000000	0.046342
2961.000000	0.048213
2960.000000	0.049947
2959.000000	0.051520
2958.000000	0.052896
2957.000000	0.054039
2956.000000	0.054929
2955.000000	0.055579
2954.000000	0.056024
2953.000000	0.056314
2952.000000	0.056517
2951.000000	0.056723
2950.000000	0.057029
2949.000000	0.057530
2948.000000	0.058312
2947.000000	0.059457
2946.000000	0.061015
2945.000000	0.062998
2944.000000	0.065379
2943.000000	0.068133
2942.000000	0.071255
2941.000000	0.074760
2940.000000	0.078654
2939.000000	0.082920
2938.000000	0.087523
2937.000000	0.092418
2936.000000	0.097565
2935.000000	0.102930
2934.000000	0.108470
2933.000000	0.114128
2932.000000	0.119832
2931.000000	0.125506
2930.000000	0.131072
2929.000000	0.136445
2928.000000	0.141521
2927.000000	0.146161
2926.000000	0.150188
2925.000000	0.153382
2924.000000	0.155527
2923.000000	0.156456
2922.000000	0.156081
2921.000000	0.154394
2920.000000	0.151465
2919.000000	0.147447
2918.000000	0.142546
2917.000000	0.137006
2916.000000	0.131079
2915.000000	0.125001
2914.000000	0.118979
2913.000000	0.113172
2912.000000	0.107695
2911.000000	0.102616
2910.000000	0.097959
2909.000000	0.093714
2908.000000	0.089852
2907.000000	0.086334
2906.000000	0.083111
2905.000000	0.080128
2904.000000	0.077332
2903.000000	0.074691
2902.000000	0.072193
2901.000000	0.069829
2900.000000	0.067591
2899.000000	0.065455
2898.000000	0.063394
2897.000000	0.061384
2896.000000	0.059413
2895.000000	0.057483
2894.000000	0.055594
2893.000000	0.053746
2892.000000	0.051950
2891.000000	0.050227
2890.000000	0.048594
2889.000000	0.047058
2888.000000	0.045613
2887.000000	0.044261
2886.000000	0.043023
2885.000000	0.041930
2884.000000	0.041007
2883.000000	0.040278
2882.000000	0.039764
2881.000000	0.039489
2880.000000	0.039476
2879.000000	0.039740
2878.000000	0.040289
2877.000000	0.041106
2876.000000	0.042141
2875.000000	0.043305
2874.000000	0.044481
2873.000000	0.045553
2872.000000	0.046445
2871.000000	0.047160
2870.000000	0.047791
2869.000000	0.048498
2868.000000	0.049459
2867.000000	0.050833
2866.000000	0.052752
2865.000000	0.055306
2864.000000	0.058539
2863.000000	0.062458
2862.000000	0.067037
2861.000000	0.072219
2860.000000	0.077896
2859.000000	0.083886
2858.000000	0.089925
2857.000000	0.095682
2856.000000	0.100760
2855.000000	0.104732
2854.000000	0.107180
2853.000000	0.107775
2852.000000	0.106364
2851.000000	0.103013
2850.000000	0.097985
2849.000000	0.091676
2848.000000	0.084539
2847.000000	0.077019
2846.000000	0.069524
2845.000000	0.062383
2844.000000	0.055836
2843.000000	0.050017
2842.000000	0.044958
2841.000000	0.040627
2840.000000	0.036955
2839.000000	0.033861
2838.000000	0.031258
2837.000000	0.029059
2836.000000	0.027180
2835.000000	0.025556
2834.000000	0.024134
2833.000000	0.022872
2832.000000	0.021733
2831.000000	0.020688
2830.000000	0.019720
2829.000000	0.018824
2828.000000	0.017999
2827.000000	0.017236
2826.000000	0.016526
2825.000000	0.015869
2824.000000	0.015267
2823.000000	0.014720
2822.000000	0.014225
2821.000000	0.013777
2820.000000	0.013366
2819.000000	0.012985
2818.000000	0.012626
2817.000000	0.012290
2816.000000	0.011974
2815.000000	0.011672
2814.000000	0.011379
2813.000000	0.011098
2812.000000	0.010833
2811.000000	0.010586
2810.000000	0.010356
2809.000000	0.010142
2808.000000	0.009941
2807.000000	0.009746
2806.000000	0.009553
2805.000000	0.009364
2804.000000	0.009187
2803.000000	0.009024
2802.000000	0.008870
2801.000000	0.008719
2800.000000	0.008570
2799.000000	0.008424
2798.000000	0.008282
2797.000000	0.008145
2796.000000	0.008013
2795.000000	0.007885
2794.000000	0.007765
2793.000000	0.007655
2792.000000	0.007558
2791.000000	0.007470
2790.000000	0.007387
2789.000000	0.007308
2788.000000	0.007230
2787.000000	0.007143
2786.000000	0.007039
2785.000000	0.006921
2784.000000	0.006798
2783.000000	0.006679
2782.000000	0.006567
2781.000000	0.006464
2780.000000	0.006369
2779.000000	0.006277
2778.000000	0.006191
2777.000000	0.006119
2776.000000	0.006067
2775.000000	0.006028
2774.000000	0.005983
2773.000000	0.005923
2772.000000	0.005855
2771.000000	0.005788
2770.000000	0.005726
2769.000000	0.005672
2768.000000	0.005626
2767.000000	0.005582
2766.000000	0.005533
2765.000000	0.005478
2764.000000	0.005424
2763.000000	0.005377
2762.000000	0.005334
2761.000000	0.005290
2760.000000	0.005250
2759.000000	0.005221
2758.000000	0.005204
2757.000000	0.005191
2756.000000	0.005173
2755.000000	0.005147
2754.000000	0.005120
2753.000000	0.005097
2752.000000	0.005076
2751.000000	0.005055
2750.000000	0.005036
2749.000000	0.005019
2748.000000	0.005000
2747.000000	0.004970
2746.000000	0.004933
2745.000000	0.004898
2744.000000	0.004873
2743.000000	0.004862
2742.000000	0.004863
2741.000000	0.004879
2740.000000	0.004901
2739.000000	0.004912
2738.000000	0.004903
2737.000000	0.004878
2736.000000	0.004850
2735.000000	0.004826
2734.000000	0.004810
2733.000000	0.004802
2732.000000	0.004799
2731.000000	0.004793
2730.000000	0.004775
2729.000000	0.004743
2728.000000	0.004699
2727.000000	0.004648
2726.000000	0.004600
2725.000000	0.004563
2724.000000	0.004540
2723.000000	0.004521
2722.000000	0.004496
2721.000000	0.004461
2720.000000	0.004423
2719.000000	0.004387
2718.000000	0.004357
2717.000000	0.004331
2716.000000	0.004307
2715.000000	0.004283
2714.000000	0.004262
2713.000000	0.004245
2712.000000	0.004228
2711.000000	0.004205
2710.000000	0.004175
2709.000000	0.004149
2708.000000	0.004136
2707.000000	0.004133
2706.000000	0.004131
2705.000000	0.004127
2704.000000	0.004122
2703.000000	0.004118
2702.000000	0.004115
2701.000000	0.004115
2700.000000	0.004119
2699.000000	0.004123
2698.000000	0.004129
2697.000000	0.004138
2696.000000	0.004148
2695.000000	0.004154
2694.000000	0.004160
2693.000000	0.004178
2692.000000	0.004211
2691.000000	0.004246
2690.000000	0.004265
2689.000000	0.004267
2688.000000	0.004270
2687.000000	0.004284
2686.000000	0.004307
2685.000000	0.004332
2684.000000	0.004354
2683.000000	0.004372
2682.000000	0.004389
2681.000000	0.004406
2680.000000	0.004414
2679.000000	0.004403
2678.000000	0.004366
2677.000000	0.004315
2676.000000	0.004276
2675.000000	0.004268
2674.000000	0.004288
2673.000000	0.004318
2672.000000	0.004336
2671.000000	0.004331
2670.000000	0.004306
2669.000000	0.004272
2668.000000	0.004235
2667.000000	0.004197
2666.000000	0.004158
2665.000000	0.004118
2664.000000	0.004079
2663.000000	0.004039
2662.000000	0.003993
2661.000000	0.003939
2660.000000	0.003875
2659.000000	0.003799
2658.000000	0.003718
2657.000000	0.003640
2656.000000	0.003572
2655.000000	0.003509
2654.000000	0.003442
2653.000000	0.003367
2652.000000	0.003286
2651.000000	0.003204
2650.000000	0.003128
2649.000000	0.003061
2648.000000	0.003002
2647.000000	0.002948
2646.000000	0.002897
2645.000000	0.002853
2644.000000	0.002813
2643.000000	0.002766
2642.000000	0.002703
2641.000000	0.002626
2640.000000	0.002547
2639.000000	0.002476
2638.000000	0.002415
2637.000000	0.002365
2636.000000	0.002324
2635.000000	0.002284
2634.000000	0.002236
2633.000000	0.002177
2632.000000	0.002113
2631.000000	0.002051
2630.000000	0.001994
2629.000000	0.001942
2628.000000	0.001892
2627.000000	0.001837
2626.000000	0.001778
2625.000000	0.001719
2624.000000	0.001665
2623.000000	0.001616
2622.000000	0.001574
2621.000000	0.001539
2620.000000	0.001506
2619.000000	0.001468
2618.000000	0.001422
2617.000000	0.001369
2616.000000	0.001310
2615.000000	0.001243
2614.000000	0.001174
2613.000000	0.001117
2612.000000	0.001083
2611.000000	0.001063
2610.000000	0.001048
2609.000000	0.001031
2608.000000	0.001011
2607.000000	0.000982
2606.000000	0.000945
2605.000000	0.000912
2604.000000	0.000891
2603.000000	0.000883
2602.000000	0.000881
2601.000000	0.000880
2600.000000	0.000870
2599.000000	0.000841
2598.000000	0.000793
2597.000000	0.000742
2596.000000	0.000708
2595.000000	0.000686
2594.000000	0.000659
2593.000000	0.000619
2592.000000	0.000568
2591.000000	0.000524
2590.000000	0.000499
2589.000000	0.000498
2588.000000	0.000504
2587.000000	0.000492
2586.000000	0.000456
2585.000000	0.000417
2584.000000	0.000393
2583.000000	0.000380
2582.000000	0.000359
2581.000000	0.000321
2580.000000	0.000273
2579.000000	0.000223
2578.000000	0.000181
2577.000000	0.000155
2576.000000	0.000144
2575.000000	0.000140
2574.000000	0.000132
2573.000000	0.000123
2572.000000	0.000116
2571.000000	0.000114
2570.000000	0.000121
2569.000000	0.000136
2568.000000	0.000147
2567.000000	0.000128
2566.000000	0.000073
2565.000000	0.000006
2564.000000	-0.000043
2563.000000	-0.000063
2562.000000	-0.000067
2561.000000	-0.000062
2560.000000	-0.000049
2559.000000	-0.000027
2558.000000	-0.000004
2557.000000	0.000009
2556.000000	-0.000005
2555.000000	-0.000050
2554.000000	-0.000111
2553.000000	-0.000166
2552.000000	-0.000203
2551.000000	-0.000225
2550.000000	-0.000233
2549.000000	-0.000225
2548.000000	-0.000213
2547.000000	-0.000218
2546.000000	-0.000243
2545.000000	-0.000266
2544.000000	-0.000264
2543.000000	-0.000235
2542.000000	-0.000195
2541.000000	-0.000158
2540.000000	-0.000137
2539.000000	-0.000139
2538.000000	-0.000158
2537.000000	-0.000170
2536.000000	-0.000159
2535.000000	-0.000126
2534.000000	-0.000091
2533.000000	-0.000069
2532.000000	-0.000064
2531.000000	-0.000079
2530.000000	-0.000108
2529.000000	-0.000141
2528.000000	-0.000166
2527.000000	-0.000179
2526.000000	-0.000178
2525.000000	-0.000165
2524.000000	-0.000150
2523.000000	-0.000143
2522.000000	-0.000143
2521.000000	-0.000135
2520.000000	-0.000118
2519.000000	-0.000107
2518.000000	-0.000118
2517.000000	-0.000154
2516.000000	-0.000203
2515.000000	-0.000250
2514.000000	-0.000273
2513.000000	-0.000265
2512.000000	-0.000241
2511.000000	-0.000224
2510.000000	-0.000216
2509.000000	-0.000208
2508.000000	-0.000202
2507.000000	-0.000211
2506.000000	-0.000232
2505.000000	-0.000250
2504.000000	-0.000262
2503.000000	-0.000283
2502.000000	-0.000310
2501.000000	-0.000318
2500.000000	-0.000304
2499.000000	-0.000293
2498.000000	-0.000306
2497.000000	-0.000325
2496.000000	-0.000328
2495.000000	-0.000324
2494.000000	-0.000336
2493.000000	-0.000373
2492.000000	-0.000428
2491.000000	-0.000490
2490.000000	-0.000547
2489.000000	-0.000578
2488.000000	-0.000570
2487.000000	-0.000536
2486.000000	-0.000494
2485.000000	-0.000454
2484.000000	-0.000424
2483.000000	-0.000417
2482.000000	-0.000437
2481.000000	-0.000469
2480.000000	-0.000493
2479.000000	-0.000500
2478.000000	-0.000498
2477.000000	-0.000494
2476.000000	-0.000499
2475.000000	-0.000524
2474.000000	-0.000567
2473.000000	-0.000609
2472.000000	-0.000636
2471.000000	-0.000644
2470.000000	-0.000634
2469.000000	-0.000608
2468.000000	-0.000576
2467.000000	-0.000553
2466.000000	-0.000537
2465.000000	-0.000516
2464.000000	-0.000493
2463.000000	-0.000479
2462.000000	-0.000476
2461.000000	-0.000477
2460.000000	-0.000482
2459.000000	-0.000498
2458.000000	-0.000517
2457.000000	-0.000518
2456.000000	-0.000503
2455.000000	-0.000496
2454.000000	-0.000506
2453.000000	-0.000511
2452.000000	-0.000498
2451.000000	-0.000484
2450.000000	-0.000484
2449.000000	-0.000487
2448.000000	-0.000481
2447.000000	-0.000474
2446.000000	-0.000477
2445.000000	-0.000480
2444.000000	-0.000471
2443.000000	-0.000453
2442.000000	-0.000436
2441.000000	-0.000423
2440.000000	-0.000411
2439.000000	-0.000409
2438.000000	-0.000418
2437.000000	-0.000428
2436.000000	-0.000437
2435.000000	-0.000460
2434.000000	-0.000499
2433.000000	-0.000531
2432.000000	-0.000538
2431.000000	-0.000537
2430.000000	-0.000552
2429.000000	-0.000583
2428.000000	-0.000607
2427.000000	-0.000613
2426.000000	-0.000605
2425.000000	-0.000588
2424.000000	-0.000558
2423.000000	-0.000509
2422.000000	-0.000440
2421.000000	-0.000360
2420.000000	-0.000299
2419.000000	-0.000286
2418.000000	-0.000320
2417.000000	-0.000363
2416.000000	-0.000379
2415.000000	-0.000358
2414.000000	-0.000316
2413.000000	-0.000269
2412.000000	-0.000239
2411.000000	-0.000242
2410.000000	-0.000270
2409.000000	-0.000301
2408.000000	-0.000323
2407.000000	-0.000340
2406.000000	-0.000353
2405.000000	-0.000348
2404.000000	-0.000321
2403.000000	-0.000286
2402.000000	-0.000257
2401.000000	-0.000231
2400.000000	-0.000205
2399.000000	-0.000185
2398.000000	-0.000169
2397.000000	-0.000142
2396.000000	-0.000103
2395.000000	-0.000070
2394.000000	-0.000059
2393.000000	-0.000062
2392.000000	-0.000068
2391.000000	-0.000076
2390.000000	-0.000087
2389.000000	-0.000089
2388.000000	-0.000075
2387.000000	-0.000047
2386.000000	-0.000014
2385.000000	0.000019
2384.000000	0.000045
2383.000000	0.000055
2382.000000	0.000052
2381.000000	0.000052
2380.000000	0.000065
2379.000000	0.000081
2378.000000	0.000096
2377.000000	0.000109
2376.000000	0.000120
2375.000000	0.000124
2374.000000	0.000122
2373.000000	0.000119
2372.000000	0.000106
2371.000000	0.000072
2370.000000	0.000033
2369.000000	0.000027
2368.000000	0.000067
2367.000000	0.000136
2366.000000	0.000217
2365.000000	0.000299
2364.000000	0.000351
2363.000000	0.000353
2362.000000	0.000335
2361.000000	0.000350
2360.000000	0.000413
2359.000000	0.000469
2358.000000	0.000465
2357.000000	0.000413
2356.000000	0.000364
2355.000000	0.000380
2354.000000	0.000449
2353.000000	0.000500
2352.000000	0.000479
2351.000000	0.000418
2350.000000	0.000403
2349.000000	0.000489
2348.000000	0.000656
2347.000000	0.000805
2346.000000	0.000837
2345.000000	0.000765
2344.000000	0.000674
2343.000000	0.000631
2342.000000	0.000615
2341.000000	0.000609
2340.000000	0.000627
2339.000000	0.000679
2338.000000	0.000751
2337.000000	0.000820
2336.000000	0.000869
2335.000000	0.000869
2334.000000	0.000808
2333.000000	0.000706
2332.000000	0.000627
2331.000000	0.000601
2330.000000	0.000645
2329.000000	0.000727
2328.000000	0.000831
2327.000000	0.000915
2326.000000	0.000961
2325.000000	0.000965
2324.000000	0.000931
2323.000000	0.000860
2322.000000	0.000765
2321.000000	0.000672
2320.000000	0.000606
2319.000000	0.000554
2318.000000	0.000514
2317.000000	0.000477
2316.000000	0.000437
2315.000000	0.000357
2314.000000	0.000251
2313.000000	0.000167
2312.000000	0.000152
2311.000000	0.000175
2310.000000	0.000193
2309.000000	0.000190
2308.000000	0.000186
2307.000000	0.000177
2306.000000	0.000158
2305.000000	0.000134
2304.000000	0.000120
2303.000000	0.000106
2302.000000	0.000078
2301.000000	0.000038
2300.000000	0.000004
2299.000000	-0.000022
2298.000000	-0.000036
2297.000000	-0.000040
2296.000000	-0.000033
2295.000000	-0.000038
2294.000000	-0.000057
2293.000000	-0.000078
2292.000000	-0.000092
2291.000000	-0.000123
2290.000000	-0.000185
2289.000000	-0.000256
2288.000000	-0.000304
2287.000000	-0.000325
2286.000000	-0.000326
2285.000000	-0.000307
2284.000000	-0.000272
2283.000000	-0.000245
2282.000000	-0.000245
2281.000000	-0.000268
2280.000000	-0.000303
2279.000000	-0.000351
2278.000000	-0.000401
2277.000000	-0.000425
2276.000000	-0.000421
2275.000000	-0.000423
2274.000000	-0.000449
2273.000000	-0.000471
2272.000000	-0.000475
2271.000000	-0.000486
2270.000000	-0.000523
2269.000000	-0.000549
2268.000000	-0.000538
2267.000000	-0.000512
2266.000000	-0.000504
2265.000000	-0.000498
2264.000000	-0.000469
2263.000000	-0.000439
2262.000000	-0.000433
2261.000000	-0.000434
2260.000000	-0.000409
2259.000000	-0.000366
2258.000000	-0.000347
2257.000000	-0.000387
2256.000000	-0.000507
2255.000000	-0.000691
2254.000000	-0.000855
2253.000000	-0.000903
2252.000000	-0.000832
2251.000000	-0.000745
2250.000000	-0.000721
2249.000000	-0.000745
2248.000000	-0.000779
2247.000000	-0.000826
2246.000000	-0.000885
2245.000000	-0.000908
2244.000000	-0.000871
2243.000000	-0.000834
2242.000000	-0.000858
2241.000000	-0.000932
2240.000000	-0.001018
2239.000000	-0.001116
2238.000000	-0.001221
2237.000000	-0.001283
2236.000000	-0.001270
2235.000000	-0.001218
2234.000000	-0.001169
2233.000000	-0.001104
2232.000000	-0.001007
2231.000000	-0.000916
2230.000000	-0.000881
2229.000000	-0.000904
2228.000000	-0.000983
2227.000000	-0.001128
2226.000000	-0.001296
2225.000000	-0.001384
2224.000000	-0.001354
2223.000000	-0.001294
2222.000000	-0.001285
2221.000000	-0.001288
2220.000000	-0.001224
2219.000000	-0.001093
2218.000000	-0.000938
2217.000000	-0.000781
2216.000000	-0.000655
2215.000000	-0.000635
2214.000000	-0.000740
2213.000000	-0.000879
2212.000000	-0.000963
2211.000000	-0.001021
2210.000000	-0.001110
2209.000000	-0.001201
2208.000000	-0.001225
2207.000000	-0.001186
2206.000000	-0.001135
2205.000000	-0.001097
2204.000000	-0.001088
2203.000000	-0.001137
2202.000000	-0.001227
2201.000000	-0.001281
2200.000000	-0.001263
2199.000000	-0.001227
2198.000000	-0.001214
2197.000000	-0.001179
2196.000000	-0.001094
2195.000000	-0.001030
2194.000000	-0.001051
2193.000000	-0.001123
2192.000000	-0.001197
2191.000000	-0.001287
2190.000000	-0.001407
2189.000000	-0.001513
2188.000000	-0.001586
2187.000000	-0.001668
2186.000000	-0.001749
2185.000000	-0.001724
2184.000000	-0.001568
2183.000000	-0.001423
2182.000000	-0.001421
2181.000000	-0.001516
2180.000000	-0.001598
2179.000000	-0.001645
2178.000000	-0.001676
2177.000000	-0.001668
2176.000000	-0.001644
2175.000000	-0.001705
2174.000000	-0.001878
2173.000000	-0.002028
2172.000000	-0.002035
2171.000000	-0.001939
2170.000000	-0.001827
2169.000000	-0.001707
2168.000000	-0.001583
2167.000000	-0.001540
2166.000000	-0.001623
2165.000000	-0.001752
2164.000000	-0.001857
2163.000000	-0.001992
2162.000000	-0.002200
2161.000000	-0.002415
2160.000000	-0.002609
2159.000000	-0.002868
2158.000000	-0.003157
2157.000000	-0.003231
2156.000000	-0.002976
2155.000000	-0.002561
2154.000000	-0.002176
2153.000000	-0.001858
2152.000000	-0.001598
2151.000000	-0.001442
2150.000000	-0.001391
2149.000000	-0.001352
2148.000000	-0.001295
2147.000000	-0.001297
2146.000000	-0.001378
2145.000000	-0.001432
2144.000000	-0.001416
2143.000000	-0.001428
2142.000000	-0.001524
2141.000000	-0.001583
2140.000000	-0.001473
2139.000000	-0.001241
2138.000000	-0.001042
2137.000000	-0.000971
2136.000000	-0.001033
2135.000000	-0.001175
2134.000000	-0.001279
2133.000000	-0.001212
2132.000000	-0.000974
2131.000000	-0.000716
2130.000000	-0.000568
2129.000000	-0.000524
2128.000000	-0.000526
2127.000000	-0.000557
2126.000000	-0.000606
2125.000000	-0.000622
2124.000000	-0.000584
2123.000000	-0.000534
2122.000000	-0.000512
2121.000000	-0.000487
2120.000000	-0.000417
2119.000000	-0.000320
2118.000000	-0.000237
2117.000000	-0.000176
2116.000000	-0.000136
2115.000000	-0.000129
2114.000000	-0.000137
2113.000000	-0.000115
2112.000000	-0.000064
2111.000000	-0.000038
2110.000000	-0.000049
2109.000000	-0.000026
2108.000000	0.000067
2107.000000	0.000153
2106.000000	0.000150
2105.000000	0.000087
2104.000000	0.000049
2103.000000	0.000070
2102.000000	0.000127
2101.000000	0.000198
2100.000000	0.000242
2099.000000	0.000203
2098.000000	0.000071
2097.000000	-0.000082
2096.000000	-0.000193
2095.000000	-0.000269
2094.000000	-0.000316
2093.000000	-0.000297
2092.000000	-0.000208
2091.000000	-0.000133
2090.000000	-0.000136
2089.000000	-0.000176
2088.000000	-0.000182
2087.000000	-0.000151
2086.000000	-0.000122
2085.000000	-0.000103
2084.000000	-0.000084
2083.000000	-0.000080
2082.000000	-0.000100
2081.000000	-0.000119
2080.000000	-0.000127
2079.000000	-0.000151
2078.000000	-0.000199
2077.000000	-0.000240
2076.000000	-0.000281
2075.000000	-0.000386
2074.000000	-0.000570
2073.000000	-0.000747
2072.000000	-0.000828
2071.000000	-0.000817
2070.000000	-0.000763
2069.000000	-0.000697
2068.000000	-0.000669
2067.000000	-0.000730
2066.000000	-0.000846
2065.000000	-0.000902
2064.000000	-0.000856
2063.000000	-0.000800
2062.000000	-0.000808
2061.000000	-0.000847
2060.000000	-0.000868
2059.000000	-0.000890
2058.000000	-0.000927
2057.000000	-0.000950
2056.000000	-0.000969
2055.000000	-0.001035
2054.000000	-0.001110
2053.000000	-0.001084
2052.000000	-0.000964
2051.000000	-0.000911
2050.000000	-0.000997
2049.000000	-0.001084
2048.000000	-0.001056
2047.000000	-0.001015
2046.000000	-0.001074
2045.000000	-0.001154
2044.000000	-0.001156
2043.000000	-0.001163
2042.000000	-0.001277
2041.000000	-0.001434
2040.000000	-0.001540
2039.000000	-0.001658
2038.000000	-0.001872
2037.000000	-0.002105
2036.000000	-0.002248
2035.000000	-0.002312
2034.000000	-0.002317
2033.000000	-0.002210
2032.000000	-0.002049
2031.000000	-0.002040
2030.000000	-0.002220
2029.000000	-0.002346
2028.000000	-0.002256
2027.000000	-0.002115
2026.000000	-0.002124
2025.000000	-0.002210
2024.000000	-0.002215
2023.000000	-0.002168
2022.000000	-0.002173
2021.000000	-0.002210
2020.000000	-0.002223
2019.000000	-0.002251
2018.000000	-0.002311
2017.000000	-0.002334
2016.000000	-0.002338
2015.000000	-0.002467
2014.000000	-0.002724
2013.000000	-0.002894
2012.000000	-0.002858
2011.000000	-0.002764
2010.000000	-0.002751
2009.000000	-0.002732
2008.000000	-0.002603
2007.000000	-0.002443
2006.000000	-0.002336
2005.000000	-0.002224
2004.000000	-0.002085
2003.000000	-0.002034
2002.000000	-0.002109
2001.000000	-0.002175
2000.000000	-0.002164
1999.000000	-0.002193
1998.000000	-0.002339
1997.000000	-0.002477
1996.000000	-0.002488
1995.000000	-0.002431
1994.000000	-0.002390
1993.000000	-0.002317
1992.000000	-0.002189
1991.000000	-0.002139
1990.000000	-0.002251
1989.000000	-0.002399
1988.000000	-0.002438
1987.000000	-0.002407
1986.000000	-0.002405
1985.000000	-0.002412
1984.000000	-0.002372
1983.000000	-0.002308
1982.000000	-0.002250
1981.000000	-0.002175
1980.000000	-0.002147
1979.000000	-0.002320
1978.000000	-0.002675
1977.000000	-0.002930
1976.000000	-0.002917
1975.000000	-0.002797
1974.000000	-0.002732
1973.000000	-0.002663
1972.000000	-0.002533
1971.000000	-0.002458
1970.000000	-0.002515
1969.000000	-0.002596
1968.000000	-0.002611
1967.000000	-0.002632
1966.000000	-0.002692
1965.000000	-0.002678
1964.000000	-0.002532
1963.000000	-0.002351
1962.000000	-0.002202
1961.000000	-0.002052
1960.000000	-0.001951
1959.000000	-0.002049
1958.000000	-0.002323
1957.000000	-0.002531
1956.000000	-0.002529
1955.000000	-0.002439
1954.000000	-0.002410
1953.000000	-0.002416
1952.000000	-0.002385
1951.000000	-0.002349
1950.000000	-0.002331
1949.000000	-0.002278
1948.000000	-0.002201
1947.000000	-0.002231
1946.000000	-0.002423
1945.000000	-0.002664
1944.000000	-0.002825
1943.000000	-0.002887
1942.000000	-0.002828
1941.000000	-0.002603
1940.000000	-0.002286
1939.000000	-0.002083
1938.000000	-0.002099
1937.000000	-0.002231
1936.000000	-0.002339
1935.000000	-0.002407
1934.000000	-0.002456
1933.000000	-0.002451
1932.000000	-0.002390
1931.000000	-0.002359
1930.000000	-0.002399
1929.000000	-0.002427
1928.000000	-0.002392
1927.000000	-0.002351
1926.000000	-0.002359
1925.000000	-0.002368
1924.000000	-0.002350
1923.000000	-0.002369
1922.000000	-0.002456
1921.000000	-0.002529
1920.000000	-0.002525
1919.000000	-0.002490
1918.000000	-0.002471
1917.000000	-0.002418
1916.000000	-0.002297
1915.000000	-0.002179
1914.000000	-0.002136
1913.000000	-0.002155
1912.000000	-0.002191
1911.000000	-0.002249
1910.000000	-0.002316
1909.000000	-0.002328
1908.000000	-0.002273
1907.000000	-0.002224
1906.000000	-0.002226
1905.000000	-0.002223
1904.000000	-0.002176
1903.000000	-0.002135
1902.000000	-0.002128
1901.000000	-0.002109
1900.000000	-0.002071
1899.000000	-0.002077
1898.000000	-0.002156
1897.000000	-0.002221
1896.000000	-0.002203
1895.000000	-0.002155
1894.000000	-0.002157
1893.000000	-0.002211
1892.000000	-0.002290
1891.000000	-0.002397
1890.000000	-0.002500
1889.000000	-0.002514
1888.000000	-0.002435
1887.000000	-0.002357
1886.000000	-0.002332
1885.000000	-0.002307
1884.000000	-0.002250
1883.000000	-0.002212
1882.000000	-0.002225
1881.000000	-0.002243
1880.000000	-0.002238
1879.000000	-0.002246
1878.000000	-0.002280
1877.000000	-0.002281
1876.000000	-0.002222
1875.000000	-0.002182
1874.000000	-0.002248
1873.000000	-0.002397
1872.000000	-0.002565
1871.000000	-0.002722
1870.000000	-0.002827
1869.000000	-0.002808
1868.000000	-0.002666
1867.000000	-0.002520
1866.000000	-0.002443
1865.000000	-0.002396
1864.000000	-0.002349
1863.000000	-0.002332
1862.000000	-0.002349
1861.000000	-0.002336
1860.000000	-0.002269
1859.000000	-0.002211
1858.000000	-0.002203
1857.000000	-0.002200
1856.000000	-0.002169
1855.000000	-0.002151
1854.000000	-0.002169
1853.000000	-0.002181
1852.000000	-0.002187
1851.000000	-0.002237
1850.000000	-0.002354
1849.000000	-0.002495
1848.000000	-0.002623
1847.000000	-0.002751
1846.000000	-0.002853
1845.000000	-0.002864
1844.000000	-0.002810
1843.000000	-0.002781
1842.000000	-0.002724
1841.000000	-0.002539
1840.000000	-0.002279
1839.000000	-0.002103
1838.000000	-0.002094
1837.000000	-0.002157
1836.000000	-0.002186
1835.000000	-0.002212
1834.000000	-0.002284
1833.000000	-0.002356
1832.000000	-0.002370
1831.000000	-0.002356
1830.000000	-0.002390
1829.000000	-0.002452
1828.000000	-0.002470
1827.000000	-0.002451
1826.000000	-0.002441
1825.000000	-0.002440
1824.000000	-0.002410
1823.000000	-0.002353
1822.000000	-0.002284
1821.000000	-0.002206
1820.000000	-0.002144
1819.000000	-0.002143
1818.000000	-0.002189
1817.000000	-0.002180
1816.000000	-0.002079
1815.000000	-0.001979
1814.000000	-0.001949
1813.000000	-0.001943
1812.000000	-0.001898
1811.000000	-0.001856
1810.000000	-0.001870
1809.000000	-0.001875
1808.000000	-0.001802
1807.000000	-0.001691
1806.000000	-0.001615
1805.000000	-0.001585
1804.000000	-0.001596
1803.000000	-0.001663
1802.000000	-0.001726
1801.000000	-0.001675
1800.000000	-0.001479
1799.000000	-0.001286
1798.000000	-0.001210
1797.000000	-0.001198
1796.000000	-0.001167
1795.000000	-0.001137
1794.000000	-0.001145
1793.000000	-0.001168
1792.000000	-0.001166
1791.000000	-0.001142
1790.000000	-0.001068
1789.000000	-0.000910
1788.000000	-0.000720
1787.000000	-0.000613
1786.000000	-0.000612
1785.000000	-0.000600
1784.000000	-0.000480
1783.000000	-0.000303
1782.000000	-0.000127
1781.000000	0.000049
1780.000000	0.000261
1779.000000	0.000476
1778.000000	0.000658
1777.000000	0.000832
1776.000000	0.000989
1775.000000	0.001115
1774.000000	0.001306
1773.000000	0.001716
1772.000000	0.002303
1771.000000	0.002853
1770.000000	0.003349
1769.000000	0.004046
1768.000000	0.005126
1767.000000	0.006460
1766.000000	0.007855
1765.000000	0.009373
1764.000000	0.011266
1763.000000	0.013733
1762.000000	0.016795
1761.000000	0.020305
1760.000000	0.024177
1759.000000	0.028547
1758.000000	0.033822
1757.000000	0.040259
1756.000000	0.047322
1755.000000	0.054131
1754.000000	0.060598
1753.000000	0.067472
1752.000000	0.075363
1751.000000	0.083864
1750.000000	0.091956
1749.000000	0.099118
1748.000000	0.105105
1747.000000	0.109544
1746.000000	0.112337
1745.000000	0.113633
1744.000000	0.113456
1743.000000	0.111795
1742.000000	0.108794
1741.000000	0.104450
1740.000000	0.098597
1739.000000	0.091790
1738.000000	0.085309
1737.000000	0.079579
1736.000000	0.073735
1735.000000	0.066610
1734.000000	0.058553
1733.000000	0.051843
1732.000000	0.047425
1731.000000	0.044270
1730.000000	0.041384
1729.000000	0.038538
1728.000000	0.035845
1727.000000	0.033390
1726.000000	0.031160
1725.000000	0.029078
1724.000000	0.027097
1723.000000	0.025245
1722.000000	0.023630
1721.000000	0.022252
1720.000000	0.020913
1719.000000	0.019399
1718.000000	0.017761
1717.000000	0.016425
1716.000000	0.015710
1715.000000	0.015469
1714.000000	0.015420
1713.000000	0.015413
1712.000000	0.015389
1711.000000	0.015329
1710.000000	0.015278
1709.000000	0.015304
1708.000000	0.015422
1707.000000	0.015614
1706.000000	0.015839
1705.000000	0.016020
1704.000000	0.016059
1703.000000	0.016005
1702.000000	0.016183
1701.000000	0.016847
1700.000000	0.017436
1699.000000	0.017456
1698.000000	0.017453
1697.000000	0.017936
1696.000000	0.018887
1695.000000	0.019881
1694.000000	0.020777
1693.000000	0.021734
1692.000000	0.022651
1691.000000	0.023375
1690.000000	0.023937
1689.000000	0.024393
1688.000000	0.024662
1687.000000	0.024736
1686.000000	0.024952
1685.000000	0.025802
1684.000000	0.027108
1683.000000	0.028259
1682.000000	0.029290
1681.000000	0.030438
1680.000000	0.031620
1679.000000	0.032669
1678.000000	0.033596
1677.000000	0.034627
1676.000000	0.035919
1675.000000	0.037235
1674.000000	0.038298
1673.000000	0.039239
1672.000000	0.040295
1671.000000	0.041513
1670.000000	0.042870
1669.000000	0.044257
1668.000000	0.045514
1667.000000	0.046602
1666.000000	0.047621
1665.000000	0.048722
1664.000000	0.049987
1663.000000	0.051265
1662.000000	0.052371
1661.000000	0.053344
1660.000000	0.054301
1659.000000	0.055217
1658.000000	0.055950
1657.000000	0.056355
1656.000000	0.056387
1655.000000	0.056337
1654.000000	0.056748
1653.000000	0.057582
1652.000000	0.058158
1651.000000	0.058760
1650.000000	0.059634
1649.000000	0.060391
1648.000000	0.060872
1647.000000	0.061155
1646.000000	0.061325
1645.000000	0.061554
1644.000000	0.061981
1643.000000	0.062482
1642.000000	0.062891
1641.000000	0.063171
1640.000000	0.063331
1639.000000	0.063347
1638.000000	0.063275
1637.000000	0.063342
1636.000000	0.063619
1635.000000	0.063829
1634.000000	0.063814
1633.000000	0.063799
1632.000000	0.063817
1631.000000	0.063725
1630.000000	0.063473
1629.000000	0.063066
1628.000000	0.062461
1627.000000	0.061640
1626.000000	0.060693
1625.000000	0.059688
1624.000000	0.058551
1623.000000	0.057172
1622.000000	0.055664
1621.000000	0.054231
1620.000000	0.052863
1619.000000	0.051391
1618.000000	0.049707
1617.000000	0.047834
1616.000000	0.045978
1615.000000	0.044464
1614.000000	0.043327
1613.000000	0.042277
1612.000000	0.041068
1611.000000	0.039695
1610.000000	0.038297
1609.000000	0.036957
1608.000000	0.035678
1607.000000	0.034477
1606.000000	0.033401
1605.000000	0.032421
1604.000000	0.031482
1603.000000	0.030600
1602.000000	0.029827
1601.000000	0.029153
1600.000000	0.028525
1599.000000	0.027945
1598.000000	0.027454
1597.000000	0.027054
1596.000000	0.026713
1595.000000	0.026436
1594.000000	0.026252
1593.000000	0.026139
1592.000000	0.026053
1591.000000	0.026007
1590.000000	0.026056
1589.000000	0.026204
1588.000000	0.026403
1587.000000	0.026641
1586.000000	0.026941
1585.000000	0.027303
1584.000000	0.027690
1583.000000	0.028133
1582.000000	0.028665
1581.000000	0.029206
1580.000000	0.029600
1579.000000	0.029805
1578.000000	0.029982
1577.000000	0.030378
1576.000000	0.031012
1575.000000	0.031720
1574.000000	0.032494
1573.000000	0.033286
1572.000000	0.034013
1571.000000	0.034758
1570.000000	0.035589
1569.000000	0.036383
1568.000000	0.037041
1567.000000	0.037726
1566.000000	0.038572
1565.000000	0.039479
1564.000000	0.040142
1563.000000	0.040357
1562.000000	0.040226
1561.000000	0.040241
1560.000000	0.040978
1559.000000	0.042292
1558.000000	0.043389
1557.000000	0.044088
1556.000000	0.044793
1555.000000	0.045552
1554.000000	0.046282
1553.000000	0.046914
1552.000000	0.047445
1551.000000	0.047917
1550.000000	0.048366
1549.000000	0.048794
1548.000000	0.049106
1547.000000	0.049248
1546.000000	0.049255
1545.000000	0.049210
1544.000000	0.049168
1543.000000	0.049144
1542.000000	0.049120
1541.000000	0.049109
1540.000000	0.049027
1539.000000	0.048768
1538.000000	0.048541
1537.000000	0.048572
1536.000000	0.048626
1535.000000	0.048425
1534.000000	0.047919
1533.000000	0.047222
1532.000000	0.046553
1531.000000	0.046001
1530.000000	0.045500
1529.000000	0.044955
1528.000000	0.044289
1527.000000	0.043528
1526.000000	0.042808
1525.000000	0.042211
1524.000000	0.041631
1523.000000	0.040879
1522.000000	0.039924
1521.000000	0.039014
1520.000000	0.038455
1519.000000	0.038237
1518.000000	0.038048
1517.000000	0.037636
1516.000000	0.037023
1515.000000	0.036367
1514.000000	0.035754
1513.000000	0.035114
1512.000000	0.034326
1511.000000	0.033307
1510.000000	0.032096
1509.000000	0.030809
1508.000000	0.029599
1507.000000	0.028603
1506.000000	0.027951
1505.000000	0.027618
1504.000000	0.027572
1503.000000	0.027554
1502.000000	0.027302
1501.000000	0.026844
1500.000000	0.026271
1499.000000	0.025550
1498.000000	0.024683
1497.000000	0.023864
1496.000000	0.023285
1495.000000	0.022938
1494.000000	0.022751
1493.000000	0.022612
1492.000000	0.022362
1491.000000	0.021894
1490.000000	0.021360
1489.000000	0.021139
1488.000000	0.021330
1487.000000	0.021658
1486.000000	0.021975
1485.000000	0.022364
1484.000000	0.022843
1483.000000	0.023372
1482.000000	0.023959
1481.000000	0.024670
1480.000000	0.025476
1479.000000	0.026311
1478.000000	0.027243
1477.000000	0.028394
1476.000000	0.029753
1475.000000	0.031364
1474.000000	0.033804
1473.000000	0.037847
1472.000000	0.043333
1471.000000	0.049155
1470.000000	0.054664
1469.000000	0.059723
1468.000000	0.064088
1467.000000	0.067461
1466.000000	0.069824
1465.000000	0.071368
1464.000000	0.072260
1463.000000	0.072716
1462.000000	0.073017
1461.000000	0.073289
1460.000000	0.073445
1459.000000	0.073477
1458.000000	0.073631
1457.000000	0.074015
1456.000000	0.074250
1455.000000	0.074211
1454.000000	0.073999
1453.000000	0.073475
1452.000000	0.072588
1451.000000	0.071520
1450.000000	0.070513
1449.000000	0.069670
1448.000000	0.068968
1447.000000	0.068374
1446.000000	0.067918
1445.000000	0.067557
1444.000000	0.067189
1443.000000	0.066734
1442.000000	0.066182
1441.000000	0.065534
1440.000000	0.064727
1439.000000	0.063700
1438.000000	0.062462
1437.000000	0.061117
1436.000000	0.059860
1435.000000	0.058905
1434.000000	0.058200
1433.000000	0.057489
1432.000000	0.056588
1431.000000	0.055506
1430.000000	0.054364
1429.000000	0.053312
1428.000000	0.052448
1427.000000	0.051771
1426.000000	0.051250
1425.000000	0.050858
1424.000000	0.050614
1423.000000	0.050500
1422.000000	0.050428
1421.000000	0.050372
1420.000000	0.050385
1419.000000	0.050451
1418.000000	0.050518
1417.000000	0.050577
1416.000000	0.050520
1415.000000	0.050174
1414.000000	0.049478
1413.000000	0.048511
1412.000000	0.047437
1411.000000	0.046426
1410.000000	0.045582
1409.000000	0.044928
1408.000000	0.044445
1407.000000	0.044096
1406.000000	0.043869
1405.000000	0.043743
1404.000000	0.043668
1403.000000	0.043567
1402.000000	0.043362
1401.000000	0.043007
1400.000000	0.042491
1399.000000	0.041875
1398.000000	0.041273
1397.000000	0.040771
1396.000000	0.040384
1395.000000	0.040110
1394.000000	0.039958
1393.000000	0.039920
1392.000000	0.039957
1391.000000	0.039981
1390.000000	0.039921
1389.000000	0.039825
1388.000000	0.039861
1387.000000	0.040185
1386.000000	0.040810
1385.000000	0.041626
1384.000000	0.042516
1383.000000	0.043432
1382.000000	0.044372
1381.000000	0.045335
1380.000000	0.046243
1379.000000	0.046901
1378.000000	0.047096
1377.000000	0.046740
1376.000000	0.045880
1375.000000	0.044674
1374.000000	0.043401
1373.000000	0.042331
1372.000000	0.041537
1371.000000	0.040894
1370.000000	0.040272
1369.000000	0.039627
1368.000000	0.038982
1367.000000	0.038336
1366.000000	0.037625
1365.000000	0.036782
1364.000000	0.035812
1363.000000	0.034852
1362.000000	0.034107
1361.000000	0.033669
1360.000000	0.033452
1359.000000	0.033313
1358.000000	0.033180
1357.000000	0.033058
1356.000000	0.032972
1355.000000	0.032935
1354.000000	0.032947
1353.000000	0.033017
1352.000000	0.033144
1351.000000	0.033296
1350.000000	0.033444
1349.000000	0.033576
1348.000000	0.033702
1347.000000	0.033837
1346.000000	0.033993
1345.000000	0.034177
1344.000000	0.034353
1343.000000	0.034441
1342.000000	0.034368
1341.000000	0.034143
1340.000000	0.033867
1339.000000	0.033667
1338.000000	0.033590
1337.000000	0.033581
1336.000000	0.033542
1335.000000	0.033398
1334.000000	0.033130
1333.000000	0.032773
1332.000000	0.032383
1331.000000	0.032006
1330.000000	0.031679
1329.000000	0.031429
1328.000000	0.031271
1327.000000	0.031197
1326.000000	0.031187
1325.000000	0.031227
1324.000000	0.031302
1323.000000	0.031384
1322.000000	0.031452
1321.000000	0.031502
1320.000000	0.031547
1319.000000	0.031583
1318.000000	0.031602
1317.000000	0.031595
1316.000000	0.031552
1315.000000	0.031460
1314.000000	0.031321
1313.000000	0.031165
1312.000000	0.031022
1311.000000	0.030893
1310.000000	0.030765
1309.000000	0.030642
1308.000000	0.030536
1307.000000	0.030448
1306.000000	0.030371
1305.000000	0.030310
1304.000000	0.030261
1303.000000	0.030201
1302.000000	0.030102
1301.000000	0.029969
1300.000000	0.029825
1299.000000	0.029686
1298.000000	0.029561
1297.000000	0.029469
1296.000000	0.029429
1295.000000	0.029450
1294.000000	0.029535
1293.000000	0.029690
1292.000000	0.029913
1291.000000	0.030186
1290.000000	0.030504
1289.000000	0.030893
1288.000000	0.031379
1287.000000	0.031951
1286.000000	0.032572
1285.000000	0.033215
1284.000000	0.033854
1283.000000	0.034447
1282.000000	0.034953
1281.000000	0.035364
1280.000000	0.035687
1279.000000	0.035921
1278.000000	0.036072
1277.000000	0.036167
1276.000000	0.036229
1275.000000	0.036256
1274.000000	0.036251
1273.000000	0.036256
1272.000000	0.036329
1271.000000	0.036501
1270.000000	0.036770
1269.000000	0.037115
1268.000000	0.037509
1267.000000	0.037911
1266.000000	0.038296
1265.000000	0.038669
1264.000000	0.039051
1263.000000	0.039461
1262.000000	0.039917
1261.000000	0.040434
1260.000000	0.040992
1259.000000	0.041550
1258.000000	0.042087
1257.000000	0.042619
1256.000000	0.043153
1255.000000	0.043683
1254.000000	0.044228
1253.000000	0.044848
1252.000000	0.045588
1251.000000	0.046437
1250.000000	0.047356
1249.000000	0.048324
1248.000000	0.049325
1247.000000	0.050329
1246.000000	0.051315
1245.000000	0.052275
1244.000000	0.053173
1243.000000	0.053957
1242.000000	0.054614
1241.000000	0.055184
1240.000000	0.055678
1239.000000	0.056052
1238.000000	0.056272
1237.000000	0.056352
1236.000000	0.056308
1235.000000	0.056124
1234.000000	0.055804
1233.000000	0.055388
1232.000000	0.054898
1231.000000	0.054315
1230.000000	0.053639
1229.000000	0.052906
1228.000000	0.052139
1227.000000	0.051313
1226.000000	0.050409
1225.000000	0.049458
1224.000000	0.048504
1223.000000	0.047564
1222.000000	0.046644
1221.000000	0.045768
1220.000000	0.044953
1219.000000	0.044202
1218.000000	0.043533
1217.000000	0.042992
1216.000000	0.042604
1215.000000	0.042350
1214.000000	0.042204
1213.000000	0.042161
1212.000000	0.042211
1211.000000	0.042327
1210.000000	0.042493
1209.000000	0.042728
1208.000000	0.043036
1207.000000	0.043383
1206.000000	0.043742
1205.000000	0.044124
1204.000000	0.044539
1203.000000	0.044961
1202.000000	0.045366
1201.000000	0.045768
1200.000000	0.046179
1199.000000	0.046580
1198.000000	0.046953
1197.000000	0.047315
1196.000000	0.047688
1195.000000	0.048071
1194.000000	0.048465
1193.000000	0.048899
1192.000000	0.049388
1191.000000	0.049911
1190.000000	0.050461
1189.000000	0.051068
1188.000000	0.051767
1187.000000	0.052552
1186.000000	0.053414
1185.000000	0.054365
1184.000000	0.055419
1183.000000	0.056569
1182.000000	0.057817
1181.000000	0.059192
1180.000000	0.060694
1179.000000	0.062265
1178.000000	0.063850
1177.000000	0.065438
1176.000000	0.067027
1175.000000	0.068593
1174.000000	0.070135
1173.000000	0.071684
1172.000000	0.073240
1171.000000	0.074746
1170.000000	0.076162
1169.000000	0.077505
1168.000000	0.078779
1167.000000	0.079944
1166.000000	0.080968
1165.000000	0.081859
1164.000000	0.082611
1163.000000	0.083165
1162.000000	0.083487
1161.000000	0.083595
1160.000000	0.083496
1159.000000	0.083173
1158.000000	0.082633
1157.000000	0.081932
1156.000000	0.081100
1155.000000	0.080132
1154.000000	0.079068
1153.000000	0.077997
1152.000000	0.076963
1151.000000	0.075939
1150.000000	0.074915
1149.000000	0.073929
1148.000000	0.072988
1147.000000	0.072030
1146.000000	0.070997
1145.000000	0.069870
1144.000000	0.068603
1143.000000	0.067102
1142.000000	0.065299
1141.000000	0.063198
1140.000000	0.060810
1139.000000	0.058148
1138.000000	0.055273
1137.000000	0.052316
1136.000000	0.049403
1135.000000	0.046612
1134.000000	0.044024
1133.000000	0.041749
1132.000000	0.039874
1131.000000	0.038423
1130.000000	0.037408
1129.000000	0.036849
1128.000000	0.036756
1127.000000	0.037078
1126.000000	0.037737
1125.000000	0.038675
1124.000000	0.039821
1123.000000	0.041069
1122.000000	0.042312
1121.000000	0.043476
1120.000000	0.044493
1119.000000	0.045280
1118.000000	0.045789
1117.000000	0.046027
1116.000000	0.046011
1115.000000	0.045740
1114.000000	0.045246
1113.000000	0.044625
1112.000000	0.043966
1111.000000	0.043313
1110.000000	0.042704
1109.000000	0.042209
1108.000000	0.041878
1107.000000	0.041714
1106.000000	0.041723
1105.000000	0.041945
1104.000000	0.042389
1103.000000	0.042977
1102.000000	0.043606
1101.000000	0.044213
1100.000000	0.044756
1099.000000	0.045183
1098.000000	0.045460
1097.000000	0.045599
1096.000000	0.045617
1095.000000	0.045503
1094.000000	0.045269
1093.000000	0.044970
1092.000000	0.044645
1091.000000	0.044287
1090.000000	0.043891
1089.000000	0.043489
1088.000000	0.043106
1087.000000	0.042731
1086.000000	0.042359
1085.000000	0.042003
1084.000000	0.041637
1083.000000	0.041178
1082.000000	0.040558
1081.000000	0.039785
1080.000000	0.038895
1079.000000	0.037909
1078.000000	0.036859
1077.000000	0.035796
1076.000000	0.034755
1075.000000	0.033744
1074.000000	0.032790
1073.000000	0.031957
1072.000000	0.031284
1071.000000	0.030748
1070.000000	0.030325
1069.000000	0.030025
1068.000000	0.029847
1067.000000	0.029744
1066.000000	0.029670
1065.000000	0.029613
1064.000000	0.029563
1063.000000	0.029480
1062.000000	0.029336
1061.000000	0.029139
1060.000000	0.028895
1059.000000	0.028585
1058.000000	0.028214
1057.000000	0.027815
1056.000000	0.027405
1055.000000	0.026960
1054.000000	0.026487
1053.000000	0.026044
1052.000000	0.025668
1051.000000	0.025332
1050.000000	0.025013
1049.000000	0.024738
1048.000000	0.024526
1047.000000	0.024335
1046.000000	0.024127
1045.000000	0.023924
1044.000000	0.023766
1043.000000	0.023665
1042.000000	0.023627
1041.000000	0.023685
1040.000000	0.023849
1039.000000	0.024089
1038.000000	0.024380
1037.000000	0.024738
1036.000000	0.025159
1035.000000	0.025574
1034.000000	0.025911
1033.000000	0.026159
1032.000000	0.026326
1031.000000	0.026388
1030.000000	0.026323
1029.000000	0.026145
1028.000000	0.025881
1027.000000	0.025534
1026.000000	0.025127
1025.000000	0.024714
1024.000000	0.024325
1023.000000	0.023939
1022.000000	0.023551
1021.000000	0.023203
1020.000000	0.022923
1019.000000	0.022676
1018.000000	0.022420
1017.000000	0.022153
1016.000000	0.021871
1015.000000	0.021527
1014.000000	0.021088
1013.000000	0.020581
1012.000000	0.020039
1011.000000	0.019462
1010.000000	0.018853
1009.000000	0.018262
1008.000000	0.017729
1007.000000	0.017237
1006.000000	0.016749
1005.000000	0.016265
1004.000000	0.015798
1003.000000	0.015334
1002.000000	0.014862
1001.000000	0.014409
1000.000000	0.014000
999.000000	0.013618
998.000000	0.013250
997.000000	0.012907
996.000000	0.012589
995.000000	0.012262
994.000000	0.011914
993.000000	0.011586
992.000000	0.011317
991.000000	0.011099
990.000000	0.010911
989.000000	0.010759
988.000000	0.010638
987.000000	0.010518
986.000000	0.010389
985.000000	0.010289
984.000000	0.010237
983.000000	0.010195
982.000000	0.010137
981.000000	0.010103
980.000000	0.010146
979.000000	0.010260
978.000000	0.010415
977.000000	0.010604
976.000000	0.010825
975.000000	0.011045
974.000000	0.011250
973.000000	0.011466
972.000000	0.011710
971.000000	0.011945
970.000000	0.012129
969.000000	0.012255
968.000000	0.012300
967.000000	0.012202
966.000000	0.011926
965.000000	0.011523
964.000000	0.011056
963.000000	0.010530
962.000000	0.009934
961.000000	0.009304
960.000000	0.008679
959.000000	0.008058
958.000000	0.007436
957.000000	0.006851
956.000000	0.006340
955.000000	0.005887
954.000000	0.005468
953.000000	0.005097
952.000000	0.004786
951.000000	0.004503
950.000000	0.004215
949.000000	0.003944
948.000000	0.003720
947.000000	0.003530
946.000000	0.003347
945.000000	0.003174
944.000000	0.003019
943.000000	0.002861
942.000000	0.002683
941.000000	0.002513
940.000000	0.002368
939.000000	0.002214
938.000000	0.002009
937.000000	0.001758
936.000000	0.001481
935.000000	0.001181
934.000000	0.000869
933.000000	0.000592
932.000000	0.000374
931.000000	0.000179
930.000000	-0.000023
929.000000	-0.000210
928.000000	-0.000359
927.000000	-0.000497
926.000000	-0.000647
925.000000	-0.000772
924.000000	-0.000834
923.000000	-0.000861
922.000000	-0.000910
921.000000	-0.000988
920.000000	-0.001070
919.000000	-0.001162
918.000000	-0.001281
917.000000	-0.001420
916.000000	-0.001572
915.000000	-0.001748
914.000000	-0.001947
913.000000	-0.002117
912.000000	-0.002216
911.000000	-0.002262
910.000000	-0.002289
909.000000	-0.002309
908.000000	-0.002335
907.000000	-0.002399
906.000000	-0.002497
905.000000	-0.002560
904.000000	-0.002549
903.000000	-0.002513
902.000000	-0.002511
901.000000	-0.002541
900.000000	-0.002578
899.000000	-0.002641
898.000000	-0.002735
897.000000	-0.002802
896.000000	-0.002797
895.000000	-0.002757
894.000000	-0.002738
893.000000	-0.002734
892.000000	-0.002708
891.000000	-0.002663
890.000000	-0.002620
889.000000	-0.002557
888.000000	-0.002440
887.000000	-0.002262
886.000000	-0.002006
885.000000	-0.001610
884.000000	-0.001028
883.000000	-0.000270
882.000000	0.000689
881.000000	0.001969
880.000000	0.003675
879.000000	0.005739
878.000000	0.007911
877.000000	0.009864
876.000000	0.011255
875.000000	0.011802
874.000000	0.011400
873.000000	0.010197
872.000000	0.008486
871.000000	0.006583
870.000000	0.004783
869.000000	0.003313
868.000000	0.002243
867.000000	0.001482
866.000000	0.000918
865.000000	0.000512
864.000000	0.000234
863.000000	0.000018
862.000000	-0.000162
861.000000	-0.000253
860.000000	-0.000241
859.000000	-0.000215
858.000000	-0.000253
857.000000	-0.000315
856.000000	-0.000327
855.000000	-0.000298
854.000000	-0.000270
853.000000	-0.000241
852.000000	-0.000196
851.000000	-0.000180
850.000000	-0.000233
849.000000	-0.000344
848.000000	-0.000499
847.000000	-0.000719
846.000000	-0.000983
845.000000	-0.001200
844.000000	-0.001327
843.000000	-0.001445
842.000000	-0.001626
841.000000	-0.001826
840.000000	-0.001968
839.000000	-0.002066
838.000000	-0.002161
837.000000	-0.002236
836.000000	-0.002278
835.000000	-0.002347
834.000000	-0.002488
833.000000	-0.002637
832.000000	-0.002711
831.000000	-0.002727
830.000000	-0.002742
829.000000	-0.002749
828.000000	-0.002724
827.000000	-0.002719
826.000000	-0.002778
825.000000	-0.002836
824.000000	-0.002806
823.000000	-0.002716
822.000000	-0.002656
821.000000	-0.002638
820.000000	-0.002619
819.000000	-0.002598
818.000000	-0.002589
817.000000	-0.002560
816.000000	-0.002488
815.000000	-0.002418
814.000000	-0.002405
813.000000	-0.002428
812.000000	-0.002446
811.000000	-0.002470
810.000000	-0.002521
809.000000	-0.002576
808.000000	-0.002616
807.000000	-0.002670
806.000000	-0.002742
805.000000	-0.002779
804.000000	-0.002761
803.000000	-0.002751
802.000000	-0.002781
801.000000	-0.002786
800.000000	-0.002723
799.000000	-0.002662
798.000000	-0.002672
797.000000	-0.002713
796.000000	-0.002712
795.000000	-0.002681
794.000000	-0.002658
793.000000	-0.002612
792.000000	-0.002514
791.000000	-0.002403
790.000000	-0.002313
789.000000	-0.002206
788.000000	-0.002054
787.000000	-0.001917
786.000000	-0.001842
785.000000	-0.001780
784.000000	-0.001669
783.000000	-0.001549
782.000000	-0.001484
781.000000	-0.001459
780.000000	-0.001424
779.000000	-0.001379
778.000000	-0.001328
777.000000	-0.001226
776.000000	-0.001054
775.000000	-0.000877
774.000000	-0.000763
773.000000	-0.000689
772.000000	-0.000606
771.000000	-0.000505
770.000000	-0.000375
769.000000	-0.000173
768.000000	0.000085
767.000000	0.000299
766.000000	0.000423
765.000000	0.000530
764.000000	0.000684
763.000000	0.000833
762.000000	0.000906
761.000000	0.000937
760.000000	0.000988
759.000000	0.001054
758.000000	0.001129
757.000000	0.001256
756.000000	0.001443
755.000000	0.001605
754.000000	0.001692
753.000000	0.001785
752.000000	0.001979
751.000000	0.002250
750.000000	0.002535
749.000000	0.002839
748.000000	0.003183
747.000000	0.003529
746.000000	0.003859
745.000000	0.004240
744.000000	0.004716
743.000000	0.005222
742.000000	0.005694
741.000000	0.006169
740.000000	0.006700
739.000000	0.007269
738.000000	0.007855
737.000000	0.008509
736.000000	0.009249
735.000000	0.010009
734.000000	0.010757
733.000000	0.011585
732.000000	0.012572
731.000000	0.013657
730.000000	0.014761
729.000000	0.015933
728.000000	0.017262
727.000000	0.018737
726.000000	0.020273
725.000000	0.021796
724.000000	0.023196
723.000000	0.024288
722.000000	0.024931
721.000000	0.025102
720.000000	0.024822
719.000000	0.024122
718.000000	0.023165
717.000000	0.022259
716.000000	0.021624
715.000000	0.021224
714.000000	0.020892
713.000000	0.020527
712.000000	0.020075
711.000000	0.019472
710.000000	0.018737
709.000000	0.018036
708.000000	0.017513
707.000000	0.017131
706.000000	0.016796
705.000000	0.016514
704.000000	0.016316
703.000000	0.016137
702.000000	0.015915
701.000000	0.015702
700.000000	0.015573
699.000000	0.015490
698.000000	0.015385
697.000000	0.015283
696.000000	0.015214
695.000000	0.015118
694.000000	0.014951
693.000000	0.014785
692.000000	0.014697
691.000000	0.014619
690.000000	0.014466
689.000000	0.014275
688.000000	0.014125
687.000000	0.013991
686.000000	0.013823
685.000000	0.013671
684.000000	0.013608
683.000000	0.013592
682.000000	0.013531
681.000000	0.013424
680.000000	0.013318
679.000000	0.013203
678.000000	0.013072
677.000000	0.013006
676.000000	0.013044
675.000000	0.013090
674.000000	0.013043
673.000000	0.012926
672.000000	0.012771
671.000000	0.012510
670.000000	0.012103
669.000000	0.011718
668.000000	0.011718
667.000000	0.012113
666.000000	0.012379
665.000000	0.012519
664.000000	0.012680
663.000000	0.012776
662.000000	0.012686
661.000000	0.012480
660.000000	0.012300
659.000000	0.012157
658.000000	0.012022
657.000000	0.011985
656.000000	0.012067
655.000000	0.012105
654.000000	0.011990
653.000000	0.011844
652.000000	0.011779
651.000000	0.011713
650.000000	0.011574
649.000000	0.011483
648.000000	0.011525
647.000000	0.011557
646.000000	0.011440
645.000000	0.011250
644.000000	0.011100
643.000000	0.010957
642.000000	0.010795
641.000000	0.010718
640.000000	0.010765
639.000000	0.010774
638.000000	0.010639
637.000000	0.010520
636.000000	0.010583
635.000000	0.010721
634.000000	0.010750
633.000000	0.010692
632.000000	0.010670
631.000000	0.010683
630.000000	0.010672
629.000000	0.010685
628.000000	0.010754
627.000000	0.010782
626.000000	0.010713
625.000000	0.010666
624.000000	0.010731
623.000000	0.010805
622.000000	0.010782
621.000000	0.010735
620.000000	0.010747
619.000000	0.010737
618.000000	0.010640
617.000000	0.010568
616.000000	0.010619
615.000000	0.010696
614.000000	0.010704
613.000000	0.010720
612.000000	0.010796
611.000000	0.010808
610.000000	0.010696
609.000000	0.010630
608.000000	0.010742
607.000000	0.010884
606.000000	0.010880
605.000000	0.010801
604.000000	0.010784
603.000000	0.010794
602.000000	0.010781
601.000000	0.010851
600.000000	0.011044
599.000000	0.011175
598.000000	0.011126
597.000000	0.011079
596.000000	0.011204
595.000000	0.011352
594.000000	0.011321
593.000000	0.011205
592.000000	0.011221
591.000000	0.011354
590.000000	0.011466
589.000000	0.011566
588.000000	0.011702
587.000000	0.011761
586.000000	0.011651
585.000000	0.011490
584.000000	0.011407
583.000000	0.011338
582.000000	0.011263
581.000000	0.011376
580.000000	0.011758
579.000000	0.012111
578.000000	0.012140
577.000000	0.011957
576.000000	0.011833
575.000000	0.011772
574.000000	0.011637
573.000000	0.011479
572.000000	0.011407
571.000000	0.011357
570.000000	0.011293
569.000000	0.011401
568.000000	0.011786
567.000000	0.012186
566.000000	0.012321
565.000000	0.012287
564.000000	0.012312
563.000000	0.012353
562.000000	0.012293
561.000000	0.012247
560.000000	0.012352
559.000000	0.012440
558.000000	0.012306
557.000000	0.012069
556.000000	0.011955
555.000000	0.011912
554.000000	0.011774
553.000000	0.011598
552.000000	0.011521
551.000000	0.011476
550.000000	0.011354
549.000000	0.011241
548.000000	0.011205
547.000000	0.011095
546.000000	0.010831
545.000000	0.010653
544.000000	0.010738
543.000000	0.010865
542.000000	0.010758
541.000000	0.010521
540.000000	0.010404
539.000000	0.010407
538.000000	0.010435
537.000000	0.010577
536.000000	0.010904
535.000000	0.011221
534.000000	0.011356
533.000000	0.011450
532.000000	0.011659
531.000000	0.011828
530.000000	0.011752
529.000000	0.011524
528.000000	0.011310
527.000000	0.011092
526.000000	0.010895
525.000000	0.010929
524.000000	0.011152
523.000000	0.011121
522.000000	0.010583
521.000000	0.009846
520.000000	0.009270
519.000000	0.008754
518.000000	0.008087
517.000000	0.007483
516.000000	0.007237
515.000000	0.007219
514.000000	0.007168
513.000000	0.007108
512.000000	0.007107
511.000000	0.006962
510.000000	0.006547
509.000000	0.006151
508.000000	0.006072
507.000000	0.006124
506.000000	0.005968
505.000000	0.005644
504.000000	0.005328
503.000000	0.004922
502.000000	0.004321
501.000000	0.003791
500.000000	0.003578
499.000000	0.003489
498.000000	0.003270
497.000000	0.003048
496.000000	0.003017
495.000000	0.003001
494.000000	0.002759
493.000000	0.002444
492.000000	0.002323
491.000000	0.002303
490.000000	0.002143
489.000000	0.001886
488.000000	0.001647
487.000000	0.001325
486.000000	0.000898
485.000000	0.000689
484.000000	0.000895
483.000000	0.001148
482.000000	0.001047
481.000000	0.000760
480.000000	0.000628
479.000000	0.000586
478.000000	0.000463
477.000000	0.000433
476.000000	0.000654
475.000000	0.000816
474.000000	0.000604
473.000000	0.000301
472.000000	0.000335
471.000000	0.000480
470.000000	0.000315
469.000000	0.000014
468.000000	-0.000042
467.000000	0.000036
466.000000	-0.000073
465.000000	-0.000242
464.000000	-0.000196
463.000000	-0.000130
462.000000	-0.000415
461.000000	-0.000938
460.000000	-0.001352
459.000000	-0.001671
458.000000	-0.002047
457.000000	-0.002281
456.000000	-0.002266
455.000000	-0.002412
454.000000	-0.002914
453.000000	-0.003241
452.000000	-0.002895
451.000000	-0.002313
450.000000	-0.002245
