PE IR       SUBTECH     SPECTRUM    ASCII       PEDS        4.00        
   -1
3S-H10-F022_1.ASC
22/02/18
11:06:17.00
22/02/18
11:29:39.00
uco
Sample 022 By uco Date Friday, February 18 2022
450.000000
#HDR
-1
-1
#GR
cm-1
A
1.0
0.0
4000.000000
-1.000000
3551
8
0.048535
0.001093
#DATA
4000.000000	0.002844
3999.000000	0.002851
3998.000000	0.002847
3997.000000	0.002836
3996.000000	0.002826
3995.000000	0.002824
3994.000000	0.002829
3993.000000	0.002838
3992.000000	0.002843
3991.000000	0.002841
3990.000000	0.002830
3989.000000	0.002819
3988.000000	0.002816
3987.000000	0.002827
3986.000000	0.002849
3985.000000	0.002876
3984.000000	0.002901
3983.000000	0.002916
3982.000000	0.002918
3981.000000	0.002908
3980.000000	0.002894
3979.000000	0.002886
3978.000000	0.002891
3977.000000	0.002911
3976.000000	0.002938
3975.000000	0.002962
3974.000000	0.002973
3973.000000	0.002967
3972.000000	0.002947
3971.000000	0.002921
3970.000000	0.002901
3969.000000	0.002896
3968.000000	0.002904
3967.000000	0.002914
3966.000000	0.002918
3965.000000	0.002914
3964.000000	0.002908
3963.000000	0.002907
3962.000000	0.002911
3961.000000	0.002917
3960.000000	0.002919
3959.000000	0.002917
3958.000000	0.002917
3957.000000	0.002926
3956.000000	0.002946
3955.000000	0.002976
3954.000000	0.003010
3953.000000	0.003041
3952.000000	0.003060
3951.000000	0.003061
3950.000000	0.003042
3949.000000	0.003013
3948.000000	0.002986
3947.000000	0.002973
3946.000000	0.002973
3945.000000	0.002979
3944.000000	0.002982
3943.000000	0.002977
3942.000000	0.002965
3941.000000	0.002956
3940.000000	0.002955
3939.000000	0.002960
3938.000000	0.002968
3937.000000	0.002975
3936.000000	0.002980
3935.000000	0.002982
3934.000000	0.002979
3933.000000	0.002971
3932.000000	0.002965
3931.000000	0.002965
3930.000000	0.002972
3929.000000	0.002981
3928.000000	0.002987
3927.000000	0.002986
3926.000000	0.002976
3925.000000	0.002957
3924.000000	0.002937
3923.000000	0.002927
3922.000000	0.002929
3921.000000	0.002935
3920.000000	0.002938
3919.000000	0.002941
3918.000000	0.002950
3917.000000	0.002965
3916.000000	0.002980
3915.000000	0.002992
3914.000000	0.002997
3913.000000	0.002997
3912.000000	0.002993
3911.000000	0.002983
3910.000000	0.002963
3909.000000	0.002930
3908.000000	0.002886
3907.000000	0.002838
3906.000000	0.002802
3905.000000	0.002790
3904.000000	0.002805
3903.000000	0.002839
3902.000000	0.002878
3901.000000	0.002915
3900.000000	0.002947
3899.000000	0.002975
3898.000000	0.002999
3897.000000	0.003016
3896.000000	0.003025
3895.000000	0.003024
3894.000000	0.003015
3893.000000	0.003002
3892.000000	0.002984
3891.000000	0.002967
3890.000000	0.002958
3889.000000	0.002961
3888.000000	0.002972
3887.000000	0.002977
3886.000000	0.002957
3885.000000	0.002922
3884.000000	0.002898
3883.000000	0.002897
3882.000000	0.002912
3881.000000	0.002924
3880.000000	0.002924
3879.000000	0.002925
3878.000000	0.002941
3877.000000	0.002977
3876.000000	0.003021
3875.000000	0.003049
3874.000000	0.003046
3873.000000	0.003019
3872.000000	0.002985
3871.000000	0.002948
3870.000000	0.002908
3869.000000	0.002876
3868.000000	0.002863
3867.000000	0.002871
3866.000000	0.002885
3865.000000	0.002888
3864.000000	0.002884
3863.000000	0.002887
3862.000000	0.002905
3861.000000	0.002930
3860.000000	0.002956
3859.000000	0.002974
3858.000000	0.002982
3857.000000	0.002985
3856.000000	0.002987
3855.000000	0.002987
3854.000000	0.002983
3853.000000	0.002982
3852.000000	0.002992
3851.000000	0.003006
3850.000000	0.003017
3849.000000	0.003019
3848.000000	0.003014
3847.000000	0.003004
3846.000000	0.002994
3845.000000	0.002984
3844.000000	0.002968
3843.000000	0.002940
3842.000000	0.002904
3841.000000	0.002871
3840.000000	0.002852
3839.000000	0.002850
3838.000000	0.002860
3837.000000	0.002870
3836.000000	0.002874
3835.000000	0.002873
3834.000000	0.002875
3833.000000	0.002886
3832.000000	0.002903
3831.000000	0.002921
3830.000000	0.002935
3829.000000	0.002943
3828.000000	0.002948
3827.000000	0.002947
3826.000000	0.002936
3825.000000	0.002918
3824.000000	0.002901
3823.000000	0.002887
3822.000000	0.002875
3821.000000	0.002871
3820.000000	0.002888
3819.000000	0.002926
3818.000000	0.002967
3817.000000	0.002990
3816.000000	0.002983
3815.000000	0.002965
3814.000000	0.002957
3813.000000	0.002965
3812.000000	0.002977
3811.000000	0.002984
3810.000000	0.002986
3809.000000	0.002985
3808.000000	0.002972
3807.000000	0.002939
3806.000000	0.002901
3805.000000	0.002881
3804.000000	0.002896
3803.000000	0.002933
3802.000000	0.002963
3801.000000	0.002969
3800.000000	0.002964
3799.000000	0.002963
3798.000000	0.002967
3797.000000	0.002965
3796.000000	0.002949
3795.000000	0.002925
3794.000000	0.002905
3793.000000	0.002899
3792.000000	0.002905
3791.000000	0.002915
3790.000000	0.002918
3789.000000	0.002914
3788.000000	0.002907
3787.000000	0.002906
3786.000000	0.002916
3785.000000	0.002936
3784.000000	0.002958
3783.000000	0.002970
3782.000000	0.002963
3781.000000	0.002939
3780.000000	0.002913
3779.000000	0.002904
3778.000000	0.002912
3777.000000	0.002921
3776.000000	0.002914
3775.000000	0.002891
3774.000000	0.002866
3773.000000	0.002859
3772.000000	0.002874
3771.000000	0.002895
3770.000000	0.002905
3769.000000	0.002903
3768.000000	0.002905
3767.000000	0.002917
3766.000000	0.002930
3765.000000	0.002931
3764.000000	0.002915
3763.000000	0.002891
3762.000000	0.002867
3761.000000	0.002846
3760.000000	0.002832
3759.000000	0.002826
3758.000000	0.002827
3757.000000	0.002825
3756.000000	0.002819
3755.000000	0.002818
3754.000000	0.002831
3753.000000	0.002859
3752.000000	0.002898
3751.000000	0.002941
3750.000000	0.002971
3749.000000	0.002971
3748.000000	0.002948
3747.000000	0.002934
3746.000000	0.002942
3745.000000	0.002953
3744.000000	0.002943
3743.000000	0.002914
3742.000000	0.002886
3741.000000	0.002868
3740.000000	0.002855
3739.000000	0.002843
3738.000000	0.002835
3737.000000	0.002828
3736.000000	0.002820
3735.000000	0.002813
3734.000000	0.002818
3733.000000	0.002835
3732.000000	0.002853
3731.000000	0.002862
3730.000000	0.002866
3729.000000	0.002875
3728.000000	0.002895
3727.000000	0.002919
3726.000000	0.002935
3725.000000	0.002936
3724.000000	0.002923
3723.000000	0.002899
3722.000000	0.002879
3721.000000	0.002868
3720.000000	0.002865
3719.000000	0.002863
3718.000000	0.002862
3717.000000	0.002867
3716.000000	0.002884
3715.000000	0.002909
3714.000000	0.002930
3713.000000	0.002931
3712.000000	0.002913
3711.000000	0.002890
3710.000000	0.002876
3709.000000	0.002871
3708.000000	0.002866
3707.000000	0.002859
3706.000000	0.002850
3705.000000	0.002844
3704.000000	0.002847
3703.000000	0.002860
3702.000000	0.002879
3701.000000	0.002894
3700.000000	0.002897
3699.000000	0.002890
3698.000000	0.002882
3697.000000	0.002879
3696.000000	0.002879
3695.000000	0.002879
3694.000000	0.002879
3693.000000	0.002879
3692.000000	0.002881
3691.000000	0.002887
3690.000000	0.002898
3689.000000	0.002917
3688.000000	0.002939
3687.000000	0.002955
3686.000000	0.002960
3685.000000	0.002958
3684.000000	0.002952
3683.000000	0.002947
3682.000000	0.002945
3681.000000	0.002946
3680.000000	0.002948
3679.000000	0.002958
3678.000000	0.002988
3677.000000	0.003031
3676.000000	0.003054
3675.000000	0.003043
3674.000000	0.003021
3673.000000	0.003023
3672.000000	0.003064
3671.000000	0.003124
3670.000000	0.003172
3669.000000	0.003199
3668.000000	0.003218
3667.000000	0.003244
3666.000000	0.003280
3665.000000	0.003317
3664.000000	0.003345
3663.000000	0.003361
3662.000000	0.003375
3661.000000	0.003392
3660.000000	0.003413
3659.000000	0.003434
3658.000000	0.003453
3657.000000	0.003471
3656.000000	0.003497
3655.000000	0.003538
3654.000000	0.003594
3653.000000	0.003661
3652.000000	0.003726
3651.000000	0.003775
3650.000000	0.003795
3649.000000	0.003796
3648.000000	0.003791
3647.000000	0.003788
3646.000000	0.003794
3645.000000	0.003816
3644.000000	0.003854
3643.000000	0.003904
3642.000000	0.003960
3641.000000	0.004015
3640.000000	0.004062
3639.000000	0.004100
3638.000000	0.004132
3637.000000	0.004168
3636.000000	0.004206
3635.000000	0.004236
3634.000000	0.004252
3633.000000	0.004262
3632.000000	0.004287
3631.000000	0.004338
3630.000000	0.004401
3629.000000	0.004451
3628.000000	0.004483
3627.000000	0.004510
3626.000000	0.004544
3625.000000	0.004590
3624.000000	0.004644
3623.000000	0.004698
3622.000000	0.004740
3621.000000	0.004765
3620.000000	0.004774
3619.000000	0.004783
3618.000000	0.004805
3617.000000	0.004839
3616.000000	0.004872
3615.000000	0.004895
3614.000000	0.004915
3613.000000	0.004946
3612.000000	0.004998
3611.000000	0.005064
3610.000000	0.005131
3609.000000	0.005188
3608.000000	0.005235
3607.000000	0.005282
3606.000000	0.005339
3605.000000	0.005411
3604.000000	0.005496
3603.000000	0.005580
3602.000000	0.005649
3601.000000	0.005694
3600.000000	0.005722
3599.000000	0.005747
3598.000000	0.005781
3597.000000	0.005822
3596.000000	0.005861
3595.000000	0.005898
3594.000000	0.005938
3593.000000	0.005992
3592.000000	0.006058
3591.000000	0.006126
3590.000000	0.006181
3589.000000	0.006218
3588.000000	0.006247
3587.000000	0.006291
3586.000000	0.006357
3585.000000	0.006428
3584.000000	0.006485
3583.000000	0.006523
3582.000000	0.006557
3581.000000	0.006602
3580.000000	0.006667
3579.000000	0.006743
3578.000000	0.006816
3577.000000	0.006882
3576.000000	0.006948
3575.000000	0.007021
3574.000000	0.007100
3573.000000	0.007175
3572.000000	0.007242
3571.000000	0.007305
3570.000000	0.007369
3569.000000	0.007433
3568.000000	0.007483
3567.000000	0.007516
3566.000000	0.007546
3565.000000	0.007593
3564.000000	0.007658
3563.000000	0.007734
3562.000000	0.007809
3561.000000	0.007880
3560.000000	0.007944
3559.000000	0.008004
3558.000000	0.008068
3557.000000	0.008145
3556.000000	0.008232
3555.000000	0.008320
3554.000000	0.008397
3553.000000	0.008459
3552.000000	0.008511
3551.000000	0.008559
3550.000000	0.008605
3549.000000	0.008652
3548.000000	0.008702
3547.000000	0.008758
3546.000000	0.008821
3545.000000	0.008886
3544.000000	0.008949
3543.000000	0.009007
3542.000000	0.009061
3541.000000	0.009117
3540.000000	0.009178
3539.000000	0.009245
3538.000000	0.009309
3537.000000	0.009367
3536.000000	0.009418
3535.000000	0.009470
3534.000000	0.009531
3533.000000	0.009602
3532.000000	0.009677
3531.000000	0.009746
3530.000000	0.009804
3529.000000	0.009860
3528.000000	0.009922
3527.000000	0.009991
3526.000000	0.010060
3525.000000	0.010119
3524.000000	0.010170
3523.000000	0.010221
3522.000000	0.010280
3521.000000	0.010346
3520.000000	0.010415
3519.000000	0.010481
3518.000000	0.010543
3517.000000	0.010598
3516.000000	0.010645
3515.000000	0.010686
3514.000000	0.010727
3513.000000	0.010774
3512.000000	0.010832
3511.000000	0.010905
3510.000000	0.010989
3509.000000	0.011075
3508.000000	0.011151
3507.000000	0.011213
3506.000000	0.011262
3505.000000	0.011303
3504.000000	0.011339
3503.000000	0.011369
3502.000000	0.011394
3501.000000	0.011421
3500.000000	0.011462
3499.000000	0.011517
3498.000000	0.011578
3497.000000	0.011631
3496.000000	0.011673
3495.000000	0.011711
3494.000000	0.011760
3493.000000	0.011823
3492.000000	0.011894
3491.000000	0.011960
3490.000000	0.012010
3489.000000	0.012043
3488.000000	0.012067
3487.000000	0.012098
3486.000000	0.012146
3485.000000	0.012204
3484.000000	0.012256
3483.000000	0.012291
3482.000000	0.012315
3481.000000	0.012347
3480.000000	0.012395
3479.000000	0.012455
3478.000000	0.012517
3477.000000	0.012577
3476.000000	0.012638
3475.000000	0.012699
3474.000000	0.012758
3473.000000	0.012811
3472.000000	0.012861
3471.000000	0.012910
3470.000000	0.012959
3469.000000	0.013011
3468.000000	0.013061
3467.000000	0.013105
3466.000000	0.013141
3465.000000	0.013174
3464.000000	0.013214
3463.000000	0.013268
3462.000000	0.013328
3461.000000	0.013382
3460.000000	0.013422
3459.000000	0.013453
3458.000000	0.013483
3457.000000	0.013512
3456.000000	0.013536
3455.000000	0.013559
3454.000000	0.013591
3453.000000	0.013642
3452.000000	0.013709
3451.000000	0.013781
3450.000000	0.013848
3449.000000	0.013907
3448.000000	0.013957
3447.000000	0.014003
3446.000000	0.014046
3445.000000	0.014086
3444.000000	0.014121
3443.000000	0.014154
3442.000000	0.014200
3441.000000	0.014265
3440.000000	0.014340
3439.000000	0.014409
3438.000000	0.014464
3437.000000	0.014511
3436.000000	0.014560
3435.000000	0.014611
3434.000000	0.014656
3433.000000	0.014688
3432.000000	0.014711
3431.000000	0.014728
3430.000000	0.014747
3429.000000	0.014776
3428.000000	0.014816
3427.000000	0.014867
3426.000000	0.014922
3425.000000	0.014981
3424.000000	0.015043
3423.000000	0.015108
3422.000000	0.015175
3421.000000	0.015238
3420.000000	0.015296
3419.000000	0.015350
3418.000000	0.015406
3417.000000	0.015469
3416.000000	0.015534
3415.000000	0.015588
3414.000000	0.015624
3413.000000	0.015644
3412.000000	0.015659
3411.000000	0.015683
3410.000000	0.015720
3409.000000	0.015772
3408.000000	0.015831
3407.000000	0.015888
3406.000000	0.015930
3405.000000	0.015951
3404.000000	0.015952
3403.000000	0.015954
3402.000000	0.015979
3401.000000	0.016044
3400.000000	0.016141
3399.000000	0.016243
3398.000000	0.016322
3397.000000	0.016366
3396.000000	0.016387
3395.000000	0.016404
3394.000000	0.016429
3393.000000	0.016464
3392.000000	0.016506
3391.000000	0.016552
3390.000000	0.016598
3389.000000	0.016647
3388.000000	0.016701
3387.000000	0.016765
3386.000000	0.016836
3385.000000	0.016908
3384.000000	0.016973
3383.000000	0.017027
3382.000000	0.017070
3381.000000	0.017104
3380.000000	0.017139
3379.000000	0.017183
3378.000000	0.017238
3377.000000	0.017294
3376.000000	0.017340
3375.000000	0.017378
3374.000000	0.017425
3373.000000	0.017489
3372.000000	0.017565
3371.000000	0.017637
3370.000000	0.017697
3369.000000	0.017746
3368.000000	0.017794
3367.000000	0.017848
3366.000000	0.017916
3365.000000	0.017998
3364.000000	0.018092
3363.000000	0.018188
3362.000000	0.018278
3361.000000	0.018356
3360.000000	0.018421
3359.000000	0.018477
3358.000000	0.018534
3357.000000	0.018600
3356.000000	0.018677
3355.000000	0.018759
3354.000000	0.018838
3353.000000	0.018913
3352.000000	0.018994
3351.000000	0.019091
3350.000000	0.019206
3349.000000	0.019324
3348.000000	0.019426
3347.000000	0.019501
3346.000000	0.019557
3345.000000	0.019609
3344.000000	0.019667
3343.000000	0.019732
3342.000000	0.019798
3341.000000	0.019865
3340.000000	0.019932
3339.000000	0.020001
3338.000000	0.020075
3337.000000	0.020150
3336.000000	0.020220
3335.000000	0.020279
3334.000000	0.020331
3333.000000	0.020382
3332.000000	0.020438
3331.000000	0.020504
3330.000000	0.020581
3329.000000	0.020662
3328.000000	0.020741
3327.000000	0.020811
3326.000000	0.020874
3325.000000	0.020932
3324.000000	0.020987
3323.000000	0.021036
3322.000000	0.021083
3321.000000	0.021129
3320.000000	0.021175
3319.000000	0.021222
3318.000000	0.021273
3317.000000	0.021330
3316.000000	0.021393
3315.000000	0.021460
3314.000000	0.021532
3313.000000	0.021603
3312.000000	0.021661
3311.000000	0.021695
3310.000000	0.021702
3309.000000	0.021700
3308.000000	0.021709
3307.000000	0.021741
3306.000000	0.021796
3305.000000	0.021859
3304.000000	0.021916
3303.000000	0.021957
3302.000000	0.021986
3301.000000	0.022012
3300.000000	0.022035
3299.000000	0.022052
3298.000000	0.022059
3297.000000	0.022068
3296.000000	0.022090
3295.000000	0.022130
3294.000000	0.022172
3293.000000	0.022201
3292.000000	0.022207
3291.000000	0.022196
3290.000000	0.022184
3289.000000	0.022182
3288.000000	0.022195
3287.000000	0.022212
3286.000000	0.022222
3285.000000	0.022217
3284.000000	0.022204
3283.000000	0.022194
3282.000000	0.022197
3281.000000	0.022207
3280.000000	0.022214
3279.000000	0.022206
3278.000000	0.022185
3277.000000	0.022157
3276.000000	0.022132
3275.000000	0.022113
3274.000000	0.022095
3273.000000	0.022067
3272.000000	0.022023
3271.000000	0.021972
3270.000000	0.021925
3269.000000	0.021889
3268.000000	0.021859
3267.000000	0.021823
3266.000000	0.021776
3265.000000	0.021723
3264.000000	0.021668
3263.000000	0.021616
3262.000000	0.021570
3261.000000	0.021528
3260.000000	0.021485
3259.000000	0.021438
3258.000000	0.021383
3257.000000	0.021318
3256.000000	0.021242
3255.000000	0.021159
3254.000000	0.021076
3253.000000	0.021003
3252.000000	0.020938
3251.000000	0.020880
3250.000000	0.020827
3249.000000	0.020784
3248.000000	0.020747
3247.000000	0.020709
3246.000000	0.020665
3245.000000	0.020617
3244.000000	0.020568
3243.000000	0.020515
3242.000000	0.020453
3241.000000	0.020383
3240.000000	0.020307
3239.000000	0.020236
3238.000000	0.020183
3237.000000	0.020156
3236.000000	0.020150
3235.000000	0.020148
3234.000000	0.020130
3233.000000	0.020089
3232.000000	0.020033
3231.000000	0.019972
3230.000000	0.019914
3229.000000	0.019866
3228.000000	0.019832
3227.000000	0.019818
3226.000000	0.019819
3225.000000	0.019825
3224.000000	0.019820
3223.000000	0.019796
3222.000000	0.019756
3221.000000	0.019709
3220.000000	0.019660
3219.000000	0.019612
3218.000000	0.019571
3217.000000	0.019542
3216.000000	0.019518
3215.000000	0.019487
3214.000000	0.019437
3213.000000	0.019368
3212.000000	0.019289
3211.000000	0.019214
3210.000000	0.019148
3209.000000	0.019096
3208.000000	0.019056
3207.000000	0.019024
3206.000000	0.018997
3205.000000	0.018974
3204.000000	0.018953
3203.000000	0.018933
3202.000000	0.018906
3201.000000	0.018861
3200.000000	0.018790
3199.000000	0.018699
3198.000000	0.018610
3197.000000	0.018545
3196.000000	0.018507
3195.000000	0.018476
3194.000000	0.018435
3193.000000	0.018378
3192.000000	0.018319
3191.000000	0.018272
3190.000000	0.018242
3189.000000	0.018217
3188.000000	0.018180
3187.000000	0.018115
3186.000000	0.018026
3185.000000	0.017930
3184.000000	0.017846
3183.000000	0.017780
3182.000000	0.017720
3181.000000	0.017656
3180.000000	0.017588
3179.000000	0.017519
3178.000000	0.017451
3177.000000	0.017382
3176.000000	0.017311
3175.000000	0.017239
3174.000000	0.017172
3173.000000	0.017113
3172.000000	0.017059
3171.000000	0.017007
3170.000000	0.016948
3169.000000	0.016881
3168.000000	0.016807
3167.000000	0.016733
3166.000000	0.016661
3165.000000	0.016598
3164.000000	0.016547
3163.000000	0.016510
3162.000000	0.016480
3161.000000	0.016445
3160.000000	0.016394
3159.000000	0.016330
3158.000000	0.016258
3157.000000	0.016189
3156.000000	0.016124
3155.000000	0.016055
3154.000000	0.015976
3153.000000	0.015886
3152.000000	0.015795
3151.000000	0.015714
3150.000000	0.015652
3149.000000	0.015609
3148.000000	0.015580
3147.000000	0.015553
3146.000000	0.015518
3145.000000	0.015471
3144.000000	0.015421
3143.000000	0.015383
3142.000000	0.015355
3141.000000	0.015326
3140.000000	0.015285
3139.000000	0.015235
3138.000000	0.015184
3137.000000	0.015130
3136.000000	0.015068
3135.000000	0.014999
3134.000000	0.014935
3133.000000	0.014893
3132.000000	0.014875
3131.000000	0.014873
3130.000000	0.014872
3129.000000	0.014857
3128.000000	0.014823
3127.000000	0.014773
3126.000000	0.014720
3125.000000	0.014675
3124.000000	0.014640
3123.000000	0.014608
3122.000000	0.014574
3121.000000	0.014541
3120.000000	0.014520
3119.000000	0.014517
3118.000000	0.014528
3117.000000	0.014541
3116.000000	0.014548
3115.000000	0.014547
3114.000000	0.014541
3113.000000	0.014530
3112.000000	0.014513
3111.000000	0.014493
3110.000000	0.014479
3109.000000	0.014476
3108.000000	0.014486
3107.000000	0.014506
3106.000000	0.014531
3105.000000	0.014549
3104.000000	0.014550
3103.000000	0.014533
3102.000000	0.014513
3101.000000	0.014512
3100.000000	0.014533
3099.000000	0.014567
3098.000000	0.014595
3097.000000	0.014613
3096.000000	0.014623
3095.000000	0.014634
3094.000000	0.014649
3093.000000	0.014665
3092.000000	0.014675
3091.000000	0.014680
3090.000000	0.014687
3089.000000	0.014702
3088.000000	0.014724
3087.000000	0.014745
3086.000000	0.014758
3085.000000	0.014766
3084.000000	0.014777
3083.000000	0.014793
3082.000000	0.014811
3081.000000	0.014824
3080.000000	0.014828
3079.000000	0.014821
3078.000000	0.014812
3077.000000	0.014812
3076.000000	0.014829
3075.000000	0.014858
3074.000000	0.014886
3073.000000	0.014901
3072.000000	0.014903
3071.000000	0.014899
3070.000000	0.014892
3069.000000	0.014878
3068.000000	0.014854
3067.000000	0.014818
3066.000000	0.014777
3065.000000	0.014740
3064.000000	0.014714
3063.000000	0.014695
3062.000000	0.014672
3061.000000	0.014634
3060.000000	0.014583
3059.000000	0.014532
3058.000000	0.014488
3057.000000	0.014446
3056.000000	0.014392
3055.000000	0.014321
3054.000000	0.014242
3053.000000	0.014169
3052.000000	0.014104
3051.000000	0.014047
3050.000000	0.013990
3049.000000	0.013933
3048.000000	0.013876
3047.000000	0.013827
3046.000000	0.013783
3045.000000	0.013737
3044.000000	0.013678
3043.000000	0.013612
3042.000000	0.013556
3041.000000	0.013524
3040.000000	0.013512
3039.000000	0.013502
3038.000000	0.013475
3037.000000	0.013422
3036.000000	0.013351
3035.000000	0.013274
3034.000000	0.013205
3033.000000	0.013149
3032.000000	0.013106
3031.000000	0.013073
3030.000000	0.013047
3029.000000	0.013025
3028.000000	0.013000
3027.000000	0.012962
3026.000000	0.012910
3025.000000	0.012851
3024.000000	0.012797
3023.000000	0.012759
3022.000000	0.012740
3021.000000	0.012734
3020.000000	0.012727
3019.000000	0.012714
3018.000000	0.012701
3017.000000	0.012702
3016.000000	0.012724
3015.000000	0.012761
3014.000000	0.012806
3013.000000	0.012853
3012.000000	0.012896
3011.000000	0.012927
3010.000000	0.012941
3009.000000	0.012942
3008.000000	0.012937
3007.000000	0.012935
3006.000000	0.012934
3005.000000	0.012931
3004.000000	0.012925
3003.000000	0.012913
3002.000000	0.012890
3001.000000	0.012854
3000.000000	0.012809
2999.000000	0.012761
2998.000000	0.012714
2997.000000	0.012669
2996.000000	0.012630
2995.000000	0.012610
2994.000000	0.012618
2993.000000	0.012649
2992.000000	0.012688
2991.000000	0.012727
2990.000000	0.012773
2989.000000	0.012838
2988.000000	0.012929
2987.000000	0.013041
2986.000000	0.013163
2985.000000	0.013284
2984.000000	0.013394
2983.000000	0.013495
2982.000000	0.013599
2981.000000	0.013719
2980.000000	0.013858
2979.000000	0.014008
2978.000000	0.014159
2977.000000	0.014310
2976.000000	0.014463
2975.000000	0.014620
2974.000000	0.014780
2973.000000	0.014945
2972.000000	0.015120
2971.000000	0.015307
2970.000000	0.015510
2969.000000	0.015730
2968.000000	0.015963
2967.000000	0.016203
2966.000000	0.016442
2965.000000	0.016672
2964.000000	0.016891
2963.000000	0.017099
2962.000000	0.017299
2961.000000	0.017489
2960.000000	0.017665
2959.000000	0.017818
2958.000000	0.017947
2957.000000	0.018053
2956.000000	0.018140
2955.000000	0.018206
2954.000000	0.018248
2953.000000	0.018267
2952.000000	0.018269
2951.000000	0.018262
2950.000000	0.018252
2949.000000	0.018249
2948.000000	0.018266
2947.000000	0.018311
2946.000000	0.018382
2945.000000	0.018468
2944.000000	0.018566
2943.000000	0.018694
2942.000000	0.018879
2941.000000	0.019136
2940.000000	0.019450
2939.000000	0.019796
2938.000000	0.020158
2937.000000	0.020531
2936.000000	0.020918
2935.000000	0.021318
2934.000000	0.021733
2933.000000	0.022161
2932.000000	0.022603
2931.000000	0.023055
2930.000000	0.023516
2929.000000	0.023987
2928.000000	0.024465
2927.000000	0.024935
2926.000000	0.025379
2925.000000	0.025792
2924.000000	0.026178
2923.000000	0.026541
2922.000000	0.026864
2921.000000	0.027110
2920.000000	0.027249
2919.000000	0.027269
2918.000000	0.027180
2917.000000	0.026994
2916.000000	0.026710
2915.000000	0.026320
2914.000000	0.025832
2913.000000	0.025283
2912.000000	0.024720
2911.000000	0.024179
2910.000000	0.023674
2909.000000	0.023212
2908.000000	0.022803
2907.000000	0.022446
2906.000000	0.022125
2905.000000	0.021823
2904.000000	0.021531
2903.000000	0.021249
2902.000000	0.020975
2901.000000	0.020704
2900.000000	0.020433
2899.000000	0.020169
2898.000000	0.019919
2897.000000	0.019684
2896.000000	0.019458
2895.000000	0.019233
2894.000000	0.019008
2893.000000	0.018789
2892.000000	0.018586
2891.000000	0.018402
2890.000000	0.018228
2889.000000	0.018055
2888.000000	0.017879
2887.000000	0.017704
2886.000000	0.017531
2885.000000	0.017363
2884.000000	0.017206
2883.000000	0.017070
2882.000000	0.016962
2881.000000	0.016885
2880.000000	0.016841
2879.000000	0.016830
2878.000000	0.016844
2877.000000	0.016875
2876.000000	0.016918
2875.000000	0.016978
2874.000000	0.017057
2873.000000	0.017148
2872.000000	0.017236
2871.000000	0.017303
2870.000000	0.017343
2869.000000	0.017355
2868.000000	0.017349
2867.000000	0.017340
2866.000000	0.017343
2865.000000	0.017373
2864.000000	0.017449
2863.000000	0.017587
2862.000000	0.017799
2861.000000	0.018089
2860.000000	0.018457
2859.000000	0.018897
2858.000000	0.019394
2857.000000	0.019918
2856.000000	0.020442
2855.000000	0.020954
2854.000000	0.021443
2853.000000	0.021873
2852.000000	0.022178
2851.000000	0.022286
2850.000000	0.022154
2849.000000	0.021791
2848.000000	0.021245
2847.000000	0.020583
2846.000000	0.019862
2845.000000	0.019116
2844.000000	0.018369
2843.000000	0.017653
2842.000000	0.016996
2841.000000	0.016417
2840.000000	0.015911
2839.000000	0.015466
2838.000000	0.015075
2837.000000	0.014735
2836.000000	0.014439
2835.000000	0.014183
2834.000000	0.013957
2833.000000	0.013755
2832.000000	0.013568
2831.000000	0.013386
2830.000000	0.013205
2829.000000	0.013030
2828.000000	0.012870
2827.000000	0.012728
2826.000000	0.012598
2825.000000	0.012469
2824.000000	0.012334
2823.000000	0.012203
2822.000000	0.012086
2821.000000	0.011984
2820.000000	0.011886
2819.000000	0.011785
2818.000000	0.011683
2817.000000	0.011588
2816.000000	0.011503
2815.000000	0.011427
2814.000000	0.011351
2813.000000	0.011271
2812.000000	0.011185
2811.000000	0.011105
2810.000000	0.011043
2809.000000	0.011000
2808.000000	0.010958
2807.000000	0.010901
2806.000000	0.010832
2805.000000	0.010771
2804.000000	0.010725
2803.000000	0.010689
2802.000000	0.010649
2801.000000	0.010599
2800.000000	0.010545
2799.000000	0.010497
2798.000000	0.010459
2797.000000	0.010432
2796.000000	0.010406
2795.000000	0.010370
2794.000000	0.010320
2793.000000	0.010261
2792.000000	0.010204
2791.000000	0.010156
2790.000000	0.010122
2789.000000	0.010098
2788.000000	0.010074
2787.000000	0.010040
2786.000000	0.009994
2785.000000	0.009945
2784.000000	0.009904
2783.000000	0.009874
2782.000000	0.009844
2781.000000	0.009804
2780.000000	0.009750
2779.000000	0.009697
2778.000000	0.009662
2777.000000	0.009646
2776.000000	0.009633
2775.000000	0.009605
2774.000000	0.009563
2773.000000	0.009523
2772.000000	0.009497
2771.000000	0.009486
2770.000000	0.009477
2769.000000	0.009462
2768.000000	0.009438
2767.000000	0.009411
2766.000000	0.009385
2765.000000	0.009365
2764.000000	0.009351
2763.000000	0.009337
2762.000000	0.009318
2761.000000	0.009293
2760.000000	0.009264
2759.000000	0.009234
2758.000000	0.009205
2757.000000	0.009180
2756.000000	0.009159
2755.000000	0.009139
2754.000000	0.009115
2753.000000	0.009086
2752.000000	0.009055
2751.000000	0.009028
2750.000000	0.009009
2749.000000	0.008998
2748.000000	0.008992
2747.000000	0.008987
2746.000000	0.008981
2745.000000	0.008967
2744.000000	0.008942
2743.000000	0.008906
2742.000000	0.008867
2741.000000	0.008835
2740.000000	0.008813
2739.000000	0.008799
2738.000000	0.008789
2737.000000	0.008779
2736.000000	0.008769
2735.000000	0.008756
2734.000000	0.008744
2733.000000	0.008736
2732.000000	0.008733
2731.000000	0.008731
2730.000000	0.008716
2729.000000	0.008689
2728.000000	0.008659
2727.000000	0.008637
2726.000000	0.008621
2725.000000	0.008600
2724.000000	0.008565
2723.000000	0.008521
2722.000000	0.008483
2721.000000	0.008462
2720.000000	0.008457
2719.000000	0.008457
2718.000000	0.008449
2717.000000	0.008427
2716.000000	0.008395
2715.000000	0.008361
2714.000000	0.008339
2713.000000	0.008332
2712.000000	0.008334
2711.000000	0.008334
2710.000000	0.008320
2709.000000	0.008288
2708.000000	0.008244
2707.000000	0.008205
2706.000000	0.008181
2705.000000	0.008171
2704.000000	0.008170
2703.000000	0.008172
2702.000000	0.008178
2701.000000	0.008185
2700.000000	0.008186
2699.000000	0.008176
2698.000000	0.008156
2697.000000	0.008132
2696.000000	0.008105
2695.000000	0.008081
2694.000000	0.008065
2693.000000	0.008060
2692.000000	0.008059
2691.000000	0.008055
2690.000000	0.008051
2689.000000	0.008053
2688.000000	0.008064
2687.000000	0.008070
2686.000000	0.008060
2685.000000	0.008032
2684.000000	0.007995
2683.000000	0.007966
2682.000000	0.007953
2681.000000	0.007954
2680.000000	0.007960
2679.000000	0.007960
2678.000000	0.007955
2677.000000	0.007948
2676.000000	0.007944
2675.000000	0.007940
2674.000000	0.007931
2673.000000	0.007914
2672.000000	0.007895
2671.000000	0.007876
2670.000000	0.007858
2669.000000	0.007839
2668.000000	0.007823
2667.000000	0.007817
2666.000000	0.007826
2665.000000	0.007845
2664.000000	0.007858
2663.000000	0.007855
2662.000000	0.007837
2661.000000	0.007814
2660.000000	0.007794
2659.000000	0.007778
2658.000000	0.007766
2657.000000	0.007753
2656.000000	0.007736
2655.000000	0.007712
2654.000000	0.007684
2653.000000	0.007659
2652.000000	0.007639
2651.000000	0.007618
2650.000000	0.007590
2649.000000	0.007552
2648.000000	0.007514
2647.000000	0.007484
2646.000000	0.007466
2645.000000	0.007452
2644.000000	0.007429
2643.000000	0.007393
2642.000000	0.007356
2641.000000	0.007328
2640.000000	0.007311
2639.000000	0.007300
2638.000000	0.007291
2637.000000	0.007283
2636.000000	0.007271
2635.000000	0.007249
2634.000000	0.007212
2633.000000	0.007165
2632.000000	0.007115
2631.000000	0.007071
2630.000000	0.007039
2629.000000	0.007024
2628.000000	0.007020
2627.000000	0.007009
2626.000000	0.006975
2625.000000	0.006926
2624.000000	0.006887
2623.000000	0.006879
2622.000000	0.006894
2621.000000	0.006909
2620.000000	0.006905
2619.000000	0.006883
2618.000000	0.006857
2617.000000	0.006842
2616.000000	0.006839
2615.000000	0.006834
2614.000000	0.006810
2613.000000	0.006760
2612.000000	0.006699
2611.000000	0.006648
2610.000000	0.006620
2609.000000	0.006608
2608.000000	0.006602
2607.000000	0.006599
2606.000000	0.006603
2605.000000	0.006616
2604.000000	0.006626
2603.000000	0.006620
2602.000000	0.006599
2601.000000	0.006570
2600.000000	0.006542
2599.000000	0.006519
2598.000000	0.006499
2597.000000	0.006482
2596.000000	0.006469
2595.000000	0.006457
2594.000000	0.006445
2593.000000	0.006427
2592.000000	0.006398
2591.000000	0.006364
2590.000000	0.006339
2589.000000	0.006333
2588.000000	0.006338
2587.000000	0.006338
2586.000000	0.006327
2585.000000	0.006312
2584.000000	0.006300
2583.000000	0.006284
2582.000000	0.006260
2581.000000	0.006228
2580.000000	0.006194
2579.000000	0.006163
2578.000000	0.006134
2577.000000	0.006108
2576.000000	0.006082
2575.000000	0.006060
2574.000000	0.006048
2573.000000	0.006054
2572.000000	0.006079
2571.000000	0.006106
2570.000000	0.006117
2569.000000	0.006106
2568.000000	0.006088
2567.000000	0.006079
2566.000000	0.006078
2565.000000	0.006075
2564.000000	0.006059
2563.000000	0.006040
2562.000000	0.006030
2561.000000	0.006034
2560.000000	0.006039
2559.000000	0.006024
2558.000000	0.005978
2557.000000	0.005915
2556.000000	0.005864
2555.000000	0.005853
2554.000000	0.005887
2553.000000	0.005942
2552.000000	0.005982
2551.000000	0.005981
2550.000000	0.005940
2549.000000	0.005882
2548.000000	0.005831
2547.000000	0.005796
2546.000000	0.005777
2545.000000	0.005773
2544.000000	0.005782
2543.000000	0.005796
2542.000000	0.005799
2541.000000	0.005778
2540.000000	0.005743
2539.000000	0.005718
2538.000000	0.005721
2537.000000	0.005749
2536.000000	0.005785
2535.000000	0.005810
2534.000000	0.005814
2533.000000	0.005797
2532.000000	0.005771
2531.000000	0.005750
2530.000000	0.005741
2529.000000	0.005735
2528.000000	0.005723
2527.000000	0.005706
2526.000000	0.005692
2525.000000	0.005685
2524.000000	0.005678
2523.000000	0.005672
2522.000000	0.005667
2521.000000	0.005660
2520.000000	0.005643
2519.000000	0.005625
2518.000000	0.005627
2517.000000	0.005657
2516.000000	0.005700
2515.000000	0.005734
2514.000000	0.005755
2513.000000	0.005766
2512.000000	0.005764
2511.000000	0.005740
2510.000000	0.005695
2509.000000	0.005646
2508.000000	0.005613
2507.000000	0.005603
2506.000000	0.005610
2505.000000	0.005620
2504.000000	0.005614
2503.000000	0.005581
2502.000000	0.005528
2501.000000	0.005479
2500.000000	0.005454
2499.000000	0.005454
2498.000000	0.005471
2497.000000	0.005486
2496.000000	0.005485
2495.000000	0.005468
2494.000000	0.005448
2493.000000	0.005442
2492.000000	0.005456
2491.000000	0.005487
2490.000000	0.005528
2489.000000	0.005563
2488.000000	0.005574
2487.000000	0.005554
2486.000000	0.005517
2485.000000	0.005482
2484.000000	0.005460
2483.000000	0.005448
2482.000000	0.005441
2481.000000	0.005439
2480.000000	0.005444
2479.000000	0.005450
2478.000000	0.005454
2477.000000	0.005455
2476.000000	0.005452
2475.000000	0.005443
2474.000000	0.005432
2473.000000	0.005424
2472.000000	0.005427
2471.000000	0.005437
2470.000000	0.005441
2469.000000	0.005424
2468.000000	0.005384
2467.000000	0.005335
2466.000000	0.005296
2465.000000	0.005271
2464.000000	0.005256
2463.000000	0.005251
2462.000000	0.005266
2461.000000	0.005301
2460.000000	0.005333
2459.000000	0.005341
2458.000000	0.005326
2457.000000	0.005303
2456.000000	0.005282
2455.000000	0.005270
2454.000000	0.005273
2453.000000	0.005302
2452.000000	0.005352
2451.000000	0.005401
2450.000000	0.005428
2449.000000	0.005428
2448.000000	0.005408
2447.000000	0.005379
2446.000000	0.005345
2445.000000	0.005312
2444.000000	0.005285
2443.000000	0.005270
2442.000000	0.005268
2441.000000	0.005268
2440.000000	0.005256
2439.000000	0.005233
2438.000000	0.005214
2437.000000	0.005210
2436.000000	0.005210
2435.000000	0.005199
2434.000000	0.005177
2433.000000	0.005158
2432.000000	0.005151
2431.000000	0.005152
2430.000000	0.005154
2429.000000	0.005156
2428.000000	0.005164
2427.000000	0.005181
2426.000000	0.005203
2425.000000	0.005217
2424.000000	0.005208
2423.000000	0.005180
2422.000000	0.005154
2421.000000	0.005147
2420.000000	0.005152
2419.000000	0.005157
2418.000000	0.005162
2417.000000	0.005172
2416.000000	0.005179
2415.000000	0.005166
2414.000000	0.005137
2413.000000	0.005114
2412.000000	0.005112
2411.000000	0.005121
2410.000000	0.005125
2409.000000	0.005120
2408.000000	0.005114
2407.000000	0.005115
2406.000000	0.005128
2405.000000	0.005149
2404.000000	0.005166
2403.000000	0.005165
2402.000000	0.005141
2401.000000	0.005101
2400.000000	0.005062
2399.000000	0.005044
2398.000000	0.005056
2397.000000	0.005093
2396.000000	0.005136
2395.000000	0.005171
2394.000000	0.005205
2393.000000	0.005243
2392.000000	0.005272
2391.000000	0.005273
2390.000000	0.005245
2389.000000	0.005217
2388.000000	0.005215
2387.000000	0.005239
2386.000000	0.005272
2385.000000	0.005296
2384.000000	0.005308
2383.000000	0.005310
2382.000000	0.005306
2381.000000	0.005291
2380.000000	0.005258
2379.000000	0.005213
2378.000000	0.005179
2377.000000	0.005171
2376.000000	0.005179
2375.000000	0.005187
2374.000000	0.005198
2373.000000	0.005229
2372.000000	0.005274
2371.000000	0.005315
2370.000000	0.005352
2369.000000	0.005407
2368.000000	0.005476
2367.000000	0.005523
2366.000000	0.005524
2365.000000	0.005496
2364.000000	0.005467
2363.000000	0.005436
2362.000000	0.005398
2361.000000	0.005372
2360.000000	0.005378
2359.000000	0.005403
2358.000000	0.005423
2357.000000	0.005439
2356.000000	0.005470
2355.000000	0.005521
2354.000000	0.005557
2353.000000	0.005548
2352.000000	0.005506
2351.000000	0.005480
2350.000000	0.005500
2349.000000	0.005551
2348.000000	0.005596
2347.000000	0.005605
2346.000000	0.005575
2345.000000	0.005536
2344.000000	0.005522
2343.000000	0.005531
2342.000000	0.005535
2341.000000	0.005518
2340.000000	0.005495
2339.000000	0.005485
2338.000000	0.005489
2337.000000	0.005496
2336.000000	0.005505
2335.000000	0.005523
2334.000000	0.005541
2333.000000	0.005544
2332.000000	0.005528
2331.000000	0.005511
2330.000000	0.005506
2329.000000	0.005512
2328.000000	0.005520
2327.000000	0.005538
2326.000000	0.005575
2325.000000	0.005619
2324.000000	0.005638
2323.000000	0.005611
2322.000000	0.005551
2321.000000	0.005490
2320.000000	0.005444
2319.000000	0.005401
2318.000000	0.005352
2317.000000	0.005306
2316.000000	0.005279
2315.000000	0.005284
2314.000000	0.005316
2313.000000	0.005356
2312.000000	0.005386
2311.000000	0.005403
2310.000000	0.005409
2309.000000	0.005402
2308.000000	0.005364
2307.000000	0.005287
2306.000000	0.005193
2305.000000	0.005120
2304.000000	0.005093
2303.000000	0.005108
2302.000000	0.005144
2301.000000	0.005184
2300.000000	0.005219
2299.000000	0.005246
2298.000000	0.005269
2297.000000	0.005286
2296.000000	0.005289
2295.000000	0.005273
2294.000000	0.005243
2293.000000	0.005212
2292.000000	0.005191
2291.000000	0.005183
2290.000000	0.005194
2289.000000	0.005232
2288.000000	0.005287
2287.000000	0.005333
2286.000000	0.005346
2285.000000	0.005314
2284.000000	0.005248
2283.000000	0.005180
2282.000000	0.005155
2281.000000	0.005193
2280.000000	0.005262
2279.000000	0.005304
2278.000000	0.005288
2277.000000	0.005230
2276.000000	0.005160
2275.000000	0.005098
2274.000000	0.005059
2273.000000	0.005050
2272.000000	0.005053
2271.000000	0.005022
2270.000000	0.004932
2269.000000	0.004816
2268.000000	0.004740
2267.000000	0.004751
2266.000000	0.004841
2265.000000	0.004957
2264.000000	0.005039
2263.000000	0.005048
2262.000000	0.004992
2261.000000	0.004908
2260.000000	0.004839
2259.000000	0.004812
2258.000000	0.004824
2257.000000	0.004855
2256.000000	0.004870
2255.000000	0.004854
2254.000000	0.004827
2253.000000	0.004824
2252.000000	0.004853
2251.000000	0.004888
2250.000000	0.004896
2249.000000	0.004861
2248.000000	0.004784
2247.000000	0.004690
2246.000000	0.004615
2245.000000	0.004587
2244.000000	0.004590
2243.000000	0.004586
2242.000000	0.004561
2241.000000	0.004535
2240.000000	0.004538
2239.000000	0.004581
2238.000000	0.004660
2237.000000	0.004753
2236.000000	0.004821
2235.000000	0.004838
2234.000000	0.004827
2233.000000	0.004833
2232.000000	0.004877
2231.000000	0.004936
2230.000000	0.004974
2229.000000	0.004960
2228.000000	0.004875
2227.000000	0.004719
2226.000000	0.004542
2225.000000	0.004412
2224.000000	0.004360
2223.000000	0.004365
2222.000000	0.004397
2221.000000	0.004433
2220.000000	0.004443
2219.000000	0.004416
2218.000000	0.004405
2217.000000	0.004480
2216.000000	0.004629
2215.000000	0.004749
2214.000000	0.004759
2213.000000	0.004679
2212.000000	0.004576
2211.000000	0.004475
2210.000000	0.004374
2209.000000	0.004303
2208.000000	0.004306
2207.000000	0.004381
2206.000000	0.004474
2205.000000	0.004538
2204.000000	0.004571
2203.000000	0.004594
2202.000000	0.004608
2201.000000	0.004569
2200.000000	0.004424
2199.000000	0.004187
2198.000000	0.003972
2197.000000	0.003910
2196.000000	0.004015
2195.000000	0.004183
2194.000000	0.004306
2193.000000	0.004353
2192.000000	0.004335
2191.000000	0.004255
2190.000000	0.004140
2189.000000	0.004067
2188.000000	0.004092
2187.000000	0.004189
2186.000000	0.004273
2185.000000	0.004293
2184.000000	0.004251
2183.000000	0.004171
2182.000000	0.004077
2181.000000	0.004004
2180.000000	0.003977
2179.000000	0.004009
2178.000000	0.004102
2177.000000	0.004241
2176.000000	0.004364
2175.000000	0.004377
2174.000000	0.004250
2173.000000	0.004065
2172.000000	0.003945
2171.000000	0.003941
2170.000000	0.004003
2169.000000	0.004043
2168.000000	0.003999
2167.000000	0.003882
2166.000000	0.003768
2165.000000	0.003755
2164.000000	0.003890
2163.000000	0.004123
2162.000000	0.004328
2161.000000	0.004348
2160.000000	0.004079
2159.000000	0.003585
2158.000000	0.003101
2157.000000	0.002836
2156.000000	0.002795
2155.000000	0.002869
2154.000000	0.003005
2153.000000	0.003212
2152.000000	0.003443
2151.000000	0.003590
2150.000000	0.003606
2149.000000	0.003562
2148.000000	0.003578
2147.000000	0.003710
2146.000000	0.003926
2145.000000	0.004145
2144.000000	0.004274
2143.000000	0.004264
2142.000000	0.004159
2141.000000	0.004068
2140.000000	0.004070
2139.000000	0.004146
2138.000000	0.004237
2137.000000	0.004303
2136.000000	0.004337
2135.000000	0.004330
2134.000000	0.004276
2133.000000	0.004208
2132.000000	0.004180
2131.000000	0.004211
2130.000000	0.004260
2129.000000	0.004275
2128.000000	0.004256
2127.000000	0.004251
2126.000000	0.004296
2125.000000	0.004374
2124.000000	0.004439
2123.000000	0.004478
2122.000000	0.004512
2121.000000	0.004552
2120.000000	0.004580
2119.000000	0.004593
2118.000000	0.004626
2117.000000	0.004700
2116.000000	0.004765
2115.000000	0.004743
2114.000000	0.004621
2113.000000	0.004475
2112.000000	0.004399
2111.000000	0.004427
2110.000000	0.004522
2109.000000	0.004621
2108.000000	0.004679
2107.000000	0.004695
2106.000000	0.004707
2105.000000	0.004745
2104.000000	0.004794
2103.000000	0.004806
2102.000000	0.004755
2101.000000	0.004660
2100.000000	0.004565
2099.000000	0.004507
2098.000000	0.004508
2097.000000	0.004563
2096.000000	0.004622
2095.000000	0.004620
2094.000000	0.004536
2093.000000	0.004419
2092.000000	0.004350
2091.000000	0.004377
2090.000000	0.004485
2089.000000	0.004606
2088.000000	0.004673
2087.000000	0.004667
2086.000000	0.004643
2085.000000	0.004666
2084.000000	0.004737
2083.000000	0.004786
2082.000000	0.004744
2081.000000	0.004620
2080.000000	0.004497
2079.000000	0.004463
2078.000000	0.004525
2077.000000	0.004602
2076.000000	0.004602
2075.000000	0.004508
2074.000000	0.004379
2073.000000	0.004273
2072.000000	0.004205
2071.000000	0.004185
2070.000000	0.004234
2069.000000	0.004328
2068.000000	0.004375
2067.000000	0.004305
2066.000000	0.004170
2065.000000	0.004082
2064.000000	0.004084
2063.000000	0.004115
2062.000000	0.004111
2061.000000	0.004069
2060.000000	0.004023
2059.000000	0.004008
2058.000000	0.004046
2057.000000	0.004129
2056.000000	0.004202
2055.000000	0.004209
2054.000000	0.004158
2053.000000	0.004110
2052.000000	0.004114
2051.000000	0.004177
2050.000000	0.004289
2049.000000	0.004401
2048.000000	0.004417
2047.000000	0.004288
2046.000000	0.004089
2045.000000	0.003945
2044.000000	0.003878
2043.000000	0.003825
2042.000000	0.003771
2041.000000	0.003762
2040.000000	0.003789
2039.000000	0.003781
2038.000000	0.003721
2037.000000	0.003674
2036.000000	0.003652
2035.000000	0.003555
2034.000000	0.003321
2033.000000	0.003045
2032.000000	0.002889
2031.000000	0.002942
2030.000000	0.003182
2029.000000	0.003504
2028.000000	0.003752
2027.000000	0.003818
2026.000000	0.003747
2025.000000	0.003676
2024.000000	0.003654
2023.000000	0.003611
2022.000000	0.003493
2021.000000	0.003340
2020.000000	0.003213
2019.000000	0.003125
2018.000000	0.003077
2017.000000	0.003080
2016.000000	0.003115
2015.000000	0.003137
2014.000000	0.003131
2013.000000	0.003112
2012.000000	0.003055
2011.000000	0.002917
2010.000000	0.002746
2009.000000	0.002662
2008.000000	0.002717
2007.000000	0.002827
2006.000000	0.002887
2005.000000	0.002873
2004.000000	0.002821
2003.000000	0.002785
2002.000000	0.002828
2001.000000	0.002992
2000.000000	0.003223
1999.000000	0.003417
1998.000000	0.003524
1997.000000	0.003576
1996.000000	0.003605
1995.000000	0.003602
1994.000000	0.003564
1993.000000	0.003511
1992.000000	0.003465
1991.000000	0.003431
1990.000000	0.003423
1989.000000	0.003437
1988.000000	0.003426
1987.000000	0.003342
1986.000000	0.003214
1985.000000	0.003132
1984.000000	0.003133
1983.000000	0.003183
1982.000000	0.003247
1981.000000	0.003305
1980.000000	0.003296
1979.000000	0.003159
1978.000000	0.002949
1977.000000	0.002823
1976.000000	0.002857
1975.000000	0.002972
1974.000000	0.003079
1973.000000	0.003164
1972.000000	0.003240
1971.000000	0.003303
1970.000000	0.003369
1969.000000	0.003450
1968.000000	0.003511
1967.000000	0.003520
1966.000000	0.003530
1965.000000	0.003617
1964.000000	0.003751
1963.000000	0.003807
1962.000000	0.003716
1961.000000	0.003533
1960.000000	0.003360
1959.000000	0.003259
1958.000000	0.003245
1957.000000	0.003294
1956.000000	0.003354
1955.000000	0.003394
1954.000000	0.003439
1953.000000	0.003515
1952.000000	0.003580
1951.000000	0.003567
1950.000000	0.003493
1949.000000	0.003438
1948.000000	0.003417
1947.000000	0.003359
1946.000000	0.003228
1945.000000	0.003093
1944.000000	0.003034
1943.000000	0.003039
1942.000000	0.003045
1941.000000	0.003031
1940.000000	0.003035
1939.000000	0.003104
1938.000000	0.003241
1937.000000	0.003384
1936.000000	0.003447
1935.000000	0.003418
1934.000000	0.003388
1933.000000	0.003451
1932.000000	0.003582
1931.000000	0.003654
1930.000000	0.003596
1929.000000	0.003477
1928.000000	0.003394
1927.000000	0.003379
1926.000000	0.003383
1925.000000	0.003375
1924.000000	0.003351
1923.000000	0.003310
1922.000000	0.003258
1921.000000	0.003220
1920.000000	0.003221
1919.000000	0.003255
1918.000000	0.003284
1917.000000	0.003293
1916.000000	0.003298
1915.000000	0.003331
1914.000000	0.003393
1913.000000	0.003444
1912.000000	0.003438
1911.000000	0.003375
1910.000000	0.003321
1909.000000	0.003340
1908.000000	0.003421
1907.000000	0.003503
1906.000000	0.003536
1905.000000	0.003527
1904.000000	0.003503
1903.000000	0.003480
1902.000000	0.003467
1901.000000	0.003478
1900.000000	0.003499
1899.000000	0.003512
1898.000000	0.003506
1897.000000	0.003492
1896.000000	0.003477
1895.000000	0.003451
1894.000000	0.003407
1893.000000	0.003352
1892.000000	0.003289
1891.000000	0.003224
1890.000000	0.003176
1889.000000	0.003176
1888.000000	0.003228
1887.000000	0.003309
1886.000000	0.003396
1885.000000	0.003468
1884.000000	0.003502
1883.000000	0.003487
1882.000000	0.003450
1881.000000	0.003425
1880.000000	0.003406
1879.000000	0.003372
1878.000000	0.003329
1877.000000	0.003295
1876.000000	0.003281
1875.000000	0.003264
1874.000000	0.003225
1873.000000	0.003161
1872.000000	0.003088
1871.000000	0.003017
1870.000000	0.002967
1869.000000	0.002958
1868.000000	0.003000
1867.000000	0.003083
1866.000000	0.003186
1865.000000	0.003283
1864.000000	0.003333
1863.000000	0.003316
1862.000000	0.003272
1861.000000	0.003256
1860.000000	0.003266
1859.000000	0.003250
1858.000000	0.003190
1857.000000	0.003135
1856.000000	0.003133
1855.000000	0.003188
1854.000000	0.003270
1853.000000	0.003343
1852.000000	0.003351
1851.000000	0.003278
1850.000000	0.003156
1849.000000	0.003013
1848.000000	0.002856
1847.000000	0.002719
1846.000000	0.002694
1845.000000	0.002838
1844.000000	0.003073
1843.000000	0.003224
1842.000000	0.003221
1841.000000	0.003155
1840.000000	0.003120
1839.000000	0.003122
1838.000000	0.003123
1837.000000	0.003130
1836.000000	0.003150
1835.000000	0.003143
1834.000000	0.003067
1833.000000	0.002947
1832.000000	0.002838
1831.000000	0.002791
1830.000000	0.002796
1829.000000	0.002793
1828.000000	0.002753
1827.000000	0.002724
1826.000000	0.002780
1825.000000	0.002912
1824.000000	0.003037
1823.000000	0.003098
1822.000000	0.003120
1821.000000	0.003146
1820.000000	0.003171
1819.000000	0.003172
1818.000000	0.003145
1817.000000	0.003115
1816.000000	0.003091
1815.000000	0.003047
1814.000000	0.002980
1813.000000	0.002912
1812.000000	0.002877
1811.000000	0.002883
1810.000000	0.002919
1809.000000	0.002978
1808.000000	0.003050
1807.000000	0.003109
1806.000000	0.003124
1805.000000	0.003080
1804.000000	0.002986
1803.000000	0.002876
1802.000000	0.002813
1801.000000	0.002821
1800.000000	0.002876
1799.000000	0.002926
1798.000000	0.002932
1797.000000	0.002882
1796.000000	0.002788
1795.000000	0.002701
1794.000000	0.002693
1793.000000	0.002780
1792.000000	0.002891
1791.000000	0.002947
1790.000000	0.002946
1789.000000	0.002947
1788.000000	0.002981
1787.000000	0.003028
1786.000000	0.003060
1785.000000	0.003069
1784.000000	0.003039
1783.000000	0.002965
1782.000000	0.002919
1781.000000	0.002935
1780.000000	0.002987
1779.000000	0.003023
1778.000000	0.003022
1777.000000	0.002987
1776.000000	0.002909
1775.000000	0.002837
1774.000000	0.002873
1773.000000	0.003037
1772.000000	0.003198
1771.000000	0.003245
1770.000000	0.003245
1769.000000	0.003360
1768.000000	0.003598
1767.000000	0.003783
1766.000000	0.003810
1765.000000	0.003766
1764.000000	0.003806
1763.000000	0.003977
1762.000000	0.004237
1761.000000	0.004512
1760.000000	0.004780
1759.000000	0.005089
1758.000000	0.005556
1757.000000	0.006222
1756.000000	0.006946
1755.000000	0.007588
1754.000000	0.008202
1753.000000	0.008935
1752.000000	0.009784
1751.000000	0.010591
1750.000000	0.011269
1749.000000	0.011939
1748.000000	0.012669
1747.000000	0.013367
1746.000000	0.013949
1745.000000	0.014391
1744.000000	0.014684
1743.000000	0.014810
1742.000000	0.014819
1741.000000	0.014799
1740.000000	0.014711
1739.000000	0.014405
1738.000000	0.013900
1737.000000	0.013421
1736.000000	0.013111
1735.000000	0.012786
1734.000000	0.012206
1733.000000	0.011476
1732.000000	0.010779
1731.000000	0.010210
1730.000000	0.009823
1729.000000	0.009571
1728.000000	0.009347
1727.000000	0.009093
1726.000000	0.008843
1725.000000	0.008633
1724.000000	0.008470
1723.000000	0.008274
1722.000000	0.007984
1721.000000	0.007679
1720.000000	0.007508
1719.000000	0.007530
1718.000000	0.007653
1717.000000	0.007763
1716.000000	0.007814
1715.000000	0.007818
1714.000000	0.007835
1713.000000	0.007910
1712.000000	0.008025
1711.000000	0.008131
1710.000000	0.008211
1709.000000	0.008273
1708.000000	0.008335
1707.000000	0.008471
1706.000000	0.008715
1705.000000	0.008987
1704.000000	0.009181
1703.000000	0.009410
1702.000000	0.009945
1701.000000	0.010853
1700.000000	0.011739
1699.000000	0.012203
1698.000000	0.012496
1697.000000	0.013157
1696.000000	0.014223
1695.000000	0.015155
1694.000000	0.015617
1693.000000	0.015861
1692.000000	0.016249
1691.000000	0.016812
1690.000000	0.017390
1689.000000	0.017901
1688.000000	0.018381
1687.000000	0.018962
1686.000000	0.019735
1685.000000	0.020682
1684.000000	0.021587
1683.000000	0.022238
1682.000000	0.022753
1681.000000	0.023403
1680.000000	0.024212
1679.000000	0.024996
1678.000000	0.025734
1677.000000	0.026606
1676.000000	0.027679
1675.000000	0.028713
1674.000000	0.029491
1673.000000	0.030097
1672.000000	0.030777
1671.000000	0.031621
1670.000000	0.032567
1669.000000	0.033552
1668.000000	0.034492
1667.000000	0.035296
1666.000000	0.036011
1665.000000	0.036763
1664.000000	0.037594
1663.000000	0.038389
1662.000000	0.039100
1661.000000	0.039802
1660.000000	0.040527
1659.000000	0.041210
1658.000000	0.041758
1657.000000	0.042208
1656.000000	0.042755
1655.000000	0.043533
1654.000000	0.044297
1653.000000	0.044796
1652.000000	0.045165
1651.000000	0.045258
1650.000000	0.045240
1649.000000	0.045452
1648.000000	0.045837
1647.000000	0.046145
1646.000000	0.046379
1645.000000	0.046687
1644.000000	0.047036
1643.000000	0.047360
1642.000000	0.047660
1641.000000	0.047907
1640.000000	0.048067
1639.000000	0.048195
1638.000000	0.048358
1637.000000	0.048507
1636.000000	0.048466
1635.000000	0.048308
1634.000000	0.048225
1633.000000	0.048265
1632.000000	0.048404
1631.000000	0.048535
1630.000000	0.048512
1629.000000	0.048275
1628.000000	0.047883
1627.000000	0.047452
1626.000000	0.047072
1625.000000	0.046704
1624.000000	0.046209
1623.000000	0.045505
1622.000000	0.044742
1621.000000	0.044108
1620.000000	0.043652
1619.000000	0.043300
1618.000000	0.042827
1617.000000	0.042001
1616.000000	0.040903
1615.000000	0.039822
1614.000000	0.038912
1613.000000	0.038169
1612.000000	0.037461
1611.000000	0.036649
1610.000000	0.035757
1609.000000	0.034888
1608.000000	0.034091
1607.000000	0.033351
1606.000000	0.032683
1605.000000	0.032075
1604.000000	0.031487
1603.000000	0.030917
1602.000000	0.030400
1601.000000	0.029951
1600.000000	0.029550
1599.000000	0.029182
1598.000000	0.028861
1597.000000	0.028587
1596.000000	0.028349
1595.000000	0.028146
1594.000000	0.027989
1593.000000	0.027870
1592.000000	0.027758
1591.000000	0.027636
1590.000000	0.027513
1589.000000	0.027398
1588.000000	0.027293
1587.000000	0.027212
1586.000000	0.027175
1585.000000	0.027183
1584.000000	0.027202
1583.000000	0.027251
1582.000000	0.027361
1581.000000	0.027493
1580.000000	0.027606
1579.000000	0.027796
1578.000000	0.028187
1577.000000	0.028723
1576.000000	0.029177
1575.000000	0.029392
1574.000000	0.029445
1573.000000	0.029540
1572.000000	0.029801
1571.000000	0.030174
1570.000000	0.030563
1569.000000	0.030969
1568.000000	0.031397
1567.000000	0.031863
1566.000000	0.032392
1565.000000	0.032950
1564.000000	0.033429
1563.000000	0.033858
1562.000000	0.034381
1561.000000	0.035021
1560.000000	0.035467
1559.000000	0.035500
1558.000000	0.035647
1557.000000	0.036122
1556.000000	0.036697
1555.000000	0.037324
1554.000000	0.037916
1553.000000	0.038364
1552.000000	0.038686
1551.000000	0.038982
1550.000000	0.039273
1549.000000	0.039567
1548.000000	0.039866
1547.000000	0.040155
1546.000000	0.040374
1545.000000	0.040468
1544.000000	0.040497
1543.000000	0.040619
1542.000000	0.040871
1541.000000	0.041107
1540.000000	0.041190
1539.000000	0.041221
1538.000000	0.041224
1537.000000	0.041178
1536.000000	0.041194
1535.000000	0.041247
1534.000000	0.041148
1533.000000	0.040883
1532.000000	0.040704
1531.000000	0.040691
1530.000000	0.040704
1529.000000	0.040617
1528.000000	0.040405
1527.000000	0.040112
1526.000000	0.039794
1525.000000	0.039497
1524.000000	0.039272
1523.000000	0.039106
1522.000000	0.038853
1521.000000	0.038460
1520.000000	0.038075
1519.000000	0.037791
1518.000000	0.037599
1517.000000	0.037418
1516.000000	0.037218
1515.000000	0.037043
1514.000000	0.036884
1513.000000	0.036630
1512.000000	0.036172
1511.000000	0.035523
1510.000000	0.034849
1509.000000	0.034291
1508.000000	0.033834
1507.000000	0.033397
1506.000000	0.033113
1505.000000	0.032914
1504.000000	0.032528
1503.000000	0.032001
1502.000000	0.031434
1501.000000	0.030785
1500.000000	0.030003
1499.000000	0.029145
1498.000000	0.028283
1497.000000	0.027438
1496.000000	0.026621
1495.000000	0.025818
1494.000000	0.025037
1493.000000	0.024326
1492.000000	0.023680
1491.000000	0.023004
1490.000000	0.022286
1489.000000	0.021706
1488.000000	0.021403
1487.000000	0.021281
1486.000000	0.021187
1485.000000	0.021086
1484.000000	0.020981
1483.000000	0.020904
1482.000000	0.020878
1481.000000	0.020931
1480.000000	0.021063
1479.000000	0.021236
1478.000000	0.021403
1477.000000	0.021548
1476.000000	0.021705
1475.000000	0.021929
1474.000000	0.022297
1473.000000	0.022846
1472.000000	0.023555
1471.000000	0.024324
1470.000000	0.025077
1469.000000	0.025820
1468.000000	0.026546
1467.000000	0.027183
1466.000000	0.027687
1465.000000	0.028069
1464.000000	0.028373
1463.000000	0.028632
1462.000000	0.028839
1461.000000	0.029015
1460.000000	0.029202
1459.000000	0.029459
1458.000000	0.029815
1457.000000	0.030269
1456.000000	0.030726
1455.000000	0.031016
1454.000000	0.031187
1453.000000	0.031358
1452.000000	0.031504
1451.000000	0.031548
1450.000000	0.031499
1449.000000	0.031407
1448.000000	0.031299
1447.000000	0.031201
1446.000000	0.031181
1445.000000	0.031207
1444.000000	0.031201
1443.000000	0.031126
1442.000000	0.030979
1441.000000	0.030780
1440.000000	0.030565
1439.000000	0.030374
1438.000000	0.030157
1437.000000	0.029811
1436.000000	0.029356
1435.000000	0.028933
1434.000000	0.028593
1433.000000	0.028297
1432.000000	0.027962
1431.000000	0.027551
1430.000000	0.027128
1429.000000	0.026791
1428.000000	0.026562
1427.000000	0.026392
1426.000000	0.026257
1425.000000	0.026125
1424.000000	0.025978
1423.000000	0.025866
1422.000000	0.025856
1421.000000	0.025938
1420.000000	0.025998
1419.000000	0.025965
1418.000000	0.025923
1417.000000	0.025964
1416.000000	0.026087
1415.000000	0.026245
1414.000000	0.026375
1413.000000	0.026453
1412.000000	0.026502
1411.000000	0.026564
1410.000000	0.026658
1409.000000	0.026777
1408.000000	0.026906
1407.000000	0.027024
1406.000000	0.027141
1405.000000	0.027274
1404.000000	0.027407
1403.000000	0.027505
1402.000000	0.027547
1401.000000	0.027530
1400.000000	0.027435
1399.000000	0.027273
1398.000000	0.027111
1397.000000	0.027012
1396.000000	0.026963
1395.000000	0.026915
1394.000000	0.026874
1393.000000	0.026858
1392.000000	0.026844
1391.000000	0.026807
1390.000000	0.026748
1389.000000	0.026671
1388.000000	0.026586
1387.000000	0.026512
1386.000000	0.026474
1385.000000	0.026474
1384.000000	0.026481
1383.000000	0.026459
1382.000000	0.026393
1381.000000	0.026308
1380.000000	0.026224
1379.000000	0.026122
1378.000000	0.025974
1377.000000	0.025763
1376.000000	0.025486
1375.000000	0.025151
1374.000000	0.024824
1373.000000	0.024588
1372.000000	0.024453
1371.000000	0.024357
1370.000000	0.024251
1369.000000	0.024126
1368.000000	0.023990
1367.000000	0.023834
1366.000000	0.023624
1365.000000	0.023332
1364.000000	0.022959
1363.000000	0.022561
1362.000000	0.022232
1361.000000	0.022018
1360.000000	0.021876
1359.000000	0.021742
1358.000000	0.021590
1357.000000	0.021431
1356.000000	0.021285
1355.000000	0.021161
1354.000000	0.021071
1353.000000	0.021022
1352.000000	0.021016
1351.000000	0.021035
1350.000000	0.021071
1349.000000	0.021127
1348.000000	0.021211
1347.000000	0.021319
1346.000000	0.021439
1345.000000	0.021564
1344.000000	0.021688
1343.000000	0.021797
1342.000000	0.021876
1341.000000	0.021924
1340.000000	0.021969
1339.000000	0.022043
1338.000000	0.022150
1337.000000	0.022258
1336.000000	0.022328
1335.000000	0.022339
1334.000000	0.022290
1333.000000	0.022182
1332.000000	0.022015
1331.000000	0.021800
1330.000000	0.021570
1329.000000	0.021358
1328.000000	0.021179
1327.000000	0.021033
1326.000000	0.020925
1325.000000	0.020861
1324.000000	0.020841
1323.000000	0.020850
1322.000000	0.020875
1321.000000	0.020905
1320.000000	0.020941
1319.000000	0.020985
1318.000000	0.021047
1317.000000	0.021127
1316.000000	0.021209
1315.000000	0.021266
1314.000000	0.021286
1313.000000	0.021274
1312.000000	0.021236
1311.000000	0.021172
1310.000000	0.021082
1309.000000	0.020974
1308.000000	0.020856
1307.000000	0.020725
1306.000000	0.020574
1305.000000	0.020404
1304.000000	0.020227
1303.000000	0.020054
1302.000000	0.019893
1301.000000	0.019746
1300.000000	0.019613
1299.000000	0.019493
1298.000000	0.019388
1297.000000	0.019309
1296.000000	0.019272
1295.000000	0.019289
1294.000000	0.019362
1293.000000	0.019479
1292.000000	0.019627
1291.000000	0.019797
1290.000000	0.019988
1289.000000	0.020191
1288.000000	0.020393
1287.000000	0.020592
1286.000000	0.020808
1285.000000	0.021067
1284.000000	0.021375
1283.000000	0.021704
1282.000000	0.022021
1281.000000	0.022304
1280.000000	0.022543
1279.000000	0.022730
1278.000000	0.022859
1277.000000	0.022940
1276.000000	0.022993
1275.000000	0.023031
1274.000000	0.023061
1273.000000	0.023087
1272.000000	0.023115
1271.000000	0.023156
1270.000000	0.023209
1269.000000	0.023263
1268.000000	0.023303
1267.000000	0.023326
1266.000000	0.023344
1265.000000	0.023373
1264.000000	0.023421
1263.000000	0.023493
1262.000000	0.023593
1261.000000	0.023728
1260.000000	0.023910
1259.000000	0.024155
1258.000000	0.024471
1257.000000	0.024836
1256.000000	0.025215
1255.000000	0.025576
1254.000000	0.025915
1253.000000	0.026239
1252.000000	0.026553
1251.000000	0.026871
1250.000000	0.027219
1249.000000	0.027610
1248.000000	0.028026
1247.000000	0.028436
1246.000000	0.028835
1245.000000	0.029244
1244.000000	0.029678
1243.000000	0.030129
1242.000000	0.030582
1241.000000	0.031023
1240.000000	0.031441
1239.000000	0.031823
1238.000000	0.032170
1237.000000	0.032484
1236.000000	0.032749
1235.000000	0.032938
1234.000000	0.033039
1233.000000	0.033061
1232.000000	0.033009
1231.000000	0.032878
1230.000000	0.032664
1229.000000	0.032372
1228.000000	0.031998
1227.000000	0.031537
1226.000000	0.030997
1225.000000	0.030401
1224.000000	0.029761
1223.000000	0.029085
1222.000000	0.028387
1221.000000	0.027691
1220.000000	0.027020
1219.000000	0.026390
1218.000000	0.025820
1217.000000	0.025320
1216.000000	0.024887
1215.000000	0.024517
1214.000000	0.024218
1213.000000	0.023994
1212.000000	0.023829
1211.000000	0.023701
1210.000000	0.023603
1209.000000	0.023530
1208.000000	0.023467
1207.000000	0.023389
1206.000000	0.023294
1205.000000	0.023204
1204.000000	0.023131
1203.000000	0.023057
1202.000000	0.022951
1201.000000	0.022797
1200.000000	0.022602
1199.000000	0.022376
1198.000000	0.022121
1197.000000	0.021829
1196.000000	0.021501
1195.000000	0.021157
1194.000000	0.020825
1193.000000	0.020524
1192.000000	0.020254
1191.000000	0.020008
1190.000000	0.019790
1189.000000	0.019611
1188.000000	0.019476
1187.000000	0.019394
1186.000000	0.019381
1185.000000	0.019460
1184.000000	0.019630
1183.000000	0.019862
1182.000000	0.020123
1181.000000	0.020390
1180.000000	0.020658
1179.000000	0.020927
1178.000000	0.021197
1177.000000	0.021469
1176.000000	0.021742
1175.000000	0.022015
1174.000000	0.022292
1173.000000	0.022568
1172.000000	0.022831
1171.000000	0.023070
1170.000000	0.023297
1169.000000	0.023529
1168.000000	0.023763
1167.000000	0.023975
1166.000000	0.024149
1165.000000	0.024297
1164.000000	0.024435
1163.000000	0.024558
1162.000000	0.024650
1161.000000	0.024692
1160.000000	0.024674
1159.000000	0.024595
1158.000000	0.024465
1157.000000	0.024304
1156.000000	0.024130
1155.000000	0.023943
1154.000000	0.023733
1153.000000	0.023496
1152.000000	0.023235
1151.000000	0.022963
1150.000000	0.022692
1149.000000	0.022422
1148.000000	0.022148
1147.000000	0.021876
1146.000000	0.021619
1145.000000	0.021379
1144.000000	0.021136
1143.000000	0.020865
1142.000000	0.020561
1141.000000	0.020227
1140.000000	0.019855
1139.000000	0.019434
1138.000000	0.018974
1137.000000	0.018505
1136.000000	0.018055
1135.000000	0.017636
1134.000000	0.017257
1133.000000	0.016927
1132.000000	0.016650
1131.000000	0.016422
1130.000000	0.016244
1129.000000	0.016130
1128.000000	0.016093
1127.000000	0.016127
1126.000000	0.016213
1125.000000	0.016333
1124.000000	0.016475
1123.000000	0.016633
1122.000000	0.016804
1121.000000	0.016985
1120.000000	0.017171
1119.000000	0.017346
1118.000000	0.017490
1117.000000	0.017593
1116.000000	0.017665
1115.000000	0.017723
1114.000000	0.017778
1113.000000	0.017823
1112.000000	0.017843
1111.000000	0.017838
1110.000000	0.017822
1109.000000	0.017820
1108.000000	0.017850
1107.000000	0.017924
1106.000000	0.018046
1105.000000	0.018215
1104.000000	0.018414
1103.000000	0.018618
1102.000000	0.018808
1101.000000	0.018983
1100.000000	0.019150
1099.000000	0.019319
1098.000000	0.019488
1097.000000	0.019646
1096.000000	0.019779
1095.000000	0.019883
1094.000000	0.019978
1093.000000	0.020089
1092.000000	0.020229
1091.000000	0.020394
1090.000000	0.020579
1089.000000	0.020785
1088.000000	0.021029
1087.000000	0.021327
1086.000000	0.021679
1085.000000	0.022056
1084.000000	0.022397
1083.000000	0.022641
1082.000000	0.022745
1081.000000	0.022691
1080.000000	0.022479
1079.000000	0.022132
1078.000000	0.021708
1077.000000	0.021269
1076.000000	0.020849
1075.000000	0.020449
1074.000000	0.020066
1073.000000	0.019710
1072.000000	0.019399
1071.000000	0.019151
1070.000000	0.018980
1069.000000	0.018893
1068.000000	0.018883
1067.000000	0.018931
1066.000000	0.019016
1065.000000	0.019128
1064.000000	0.019252
1063.000000	0.019371
1062.000000	0.019469
1061.000000	0.019554
1060.000000	0.019642
1059.000000	0.019737
1058.000000	0.019825
1057.000000	0.019884
1056.000000	0.019908
1055.000000	0.019914
1054.000000	0.019918
1053.000000	0.019911
1052.000000	0.019868
1051.000000	0.019780
1050.000000	0.019674
1049.000000	0.019584
1048.000000	0.019522
1047.000000	0.019471
1046.000000	0.019416
1045.000000	0.019358
1044.000000	0.019310
1043.000000	0.019283
1042.000000	0.019282
1041.000000	0.019305
1040.000000	0.019351
1039.000000	0.019429
1038.000000	0.019549
1037.000000	0.019724
1036.000000	0.019950
1035.000000	0.020215
1034.000000	0.020497
1033.000000	0.020766
1032.000000	0.020982
1031.000000	0.021117
1030.000000	0.021171
1029.000000	0.021171
1028.000000	0.021150
1027.000000	0.021125
1026.000000	0.021096
1025.000000	0.021050
1024.000000	0.020978
1023.000000	0.020893
1022.000000	0.020821
1021.000000	0.020778
1020.000000	0.020766
1019.000000	0.020779
1018.000000	0.020816
1017.000000	0.020859
1016.000000	0.020860
1015.000000	0.020762
1014.000000	0.020539
1013.000000	0.020202
1012.000000	0.019777
1011.000000	0.019292
1010.000000	0.018776
1009.000000	0.018253
1008.000000	0.017736
1007.000000	0.017234
1006.000000	0.016764
1005.000000	0.016335
1004.000000	0.015937
1003.000000	0.015543
1002.000000	0.015137
1001.000000	0.014725
1000.000000	0.014327
999.000000	0.013960
998.000000	0.013633
997.000000	0.013333
996.000000	0.013043
995.000000	0.012755
994.000000	0.012470
993.000000	0.012194
992.000000	0.011926
991.000000	0.011661
990.000000	0.011405
989.000000	0.011170
988.000000	0.010964
987.000000	0.010784
986.000000	0.010617
985.000000	0.010446
984.000000	0.010270
983.000000	0.010102
982.000000	0.009957
981.000000	0.009837
980.000000	0.009731
979.000000	0.009640
978.000000	0.009575
977.000000	0.009530
976.000000	0.009478
975.000000	0.009393
974.000000	0.009289
973.000000	0.009198
972.000000	0.009131
971.000000	0.009067
970.000000	0.008983
969.000000	0.008875
968.000000	0.008759
967.000000	0.008650
966.000000	0.008555
965.000000	0.008469
964.000000	0.008376
963.000000	0.008262
962.000000	0.008127
961.000000	0.007996
960.000000	0.007899
959.000000	0.007847
958.000000	0.007822
957.000000	0.007793
956.000000	0.007739
955.000000	0.007659
954.000000	0.007568
953.000000	0.007471
952.000000	0.007361
951.000000	0.007229
950.000000	0.007077
949.000000	0.006912
948.000000	0.006739
947.000000	0.006565
946.000000	0.006403
945.000000	0.006262
944.000000	0.006140
943.000000	0.006039
942.000000	0.005977
941.000000	0.005969
940.000000	0.005998
939.000000	0.006013
938.000000	0.005982
937.000000	0.005920
936.000000	0.005859
935.000000	0.005812
934.000000	0.005765
933.000000	0.005698
932.000000	0.005610
931.000000	0.005515
930.000000	0.005434
929.000000	0.005377
928.000000	0.005331
927.000000	0.005263
926.000000	0.005150
925.000000	0.004998
924.000000	0.004836
923.000000	0.004683
922.000000	0.004533
921.000000	0.004380
920.000000	0.004224
919.000000	0.004079
918.000000	0.003951
917.000000	0.003834
916.000000	0.003715
915.000000	0.003591
914.000000	0.003462
913.000000	0.003338
912.000000	0.003224
911.000000	0.003126
910.000000	0.003045
909.000000	0.002982
908.000000	0.002936
907.000000	0.002904
906.000000	0.002886
905.000000	0.002885
904.000000	0.002894
903.000000	0.002898
902.000000	0.002885
901.000000	0.002858
900.000000	0.002828
899.000000	0.002803
898.000000	0.002785
897.000000	0.002779
896.000000	0.002789
895.000000	0.002806
894.000000	0.002815
893.000000	0.002819
892.000000	0.002829
891.000000	0.002843
890.000000	0.002841
889.000000	0.002808
888.000000	0.002763
887.000000	0.002741
886.000000	0.002766
885.000000	0.002835
884.000000	0.002933
883.000000	0.003039
882.000000	0.003145
881.000000	0.003256
880.000000	0.003394
879.000000	0.003567
878.000000	0.003757
877.000000	0.003925
876.000000	0.004033
875.000000	0.004065
874.000000	0.004022
873.000000	0.003925
872.000000	0.003801
871.000000	0.003658
870.000000	0.003484
869.000000	0.003275
868.000000	0.003063
867.000000	0.002905
866.000000	0.002839
865.000000	0.002850
864.000000	0.002893
863.000000	0.002935
862.000000	0.002971
861.000000	0.003014
860.000000	0.003079
859.000000	0.003169
858.000000	0.003272
857.000000	0.003364
856.000000	0.003429
855.000000	0.003471
854.000000	0.003521
853.000000	0.003604
852.000000	0.003724
851.000000	0.003850
850.000000	0.003943
849.000000	0.003979
848.000000	0.003975
847.000000	0.003980
846.000000	0.004041
845.000000	0.004172
844.000000	0.004351
843.000000	0.004539
842.000000	0.004706
841.000000	0.004848
840.000000	0.004984
839.000000	0.005140
838.000000	0.005317
837.000000	0.005478
836.000000	0.005579
835.000000	0.005608
834.000000	0.005594
833.000000	0.005566
832.000000	0.005513
831.000000	0.005416
830.000000	0.005286
829.000000	0.005162
828.000000	0.005073
827.000000	0.005002
826.000000	0.004904
825.000000	0.004743
824.000000	0.004518
823.000000	0.004273
822.000000	0.004073
821.000000	0.003954
820.000000	0.003894
819.000000	0.003837
818.000000	0.003745
817.000000	0.003616
816.000000	0.003471
815.000000	0.003329
814.000000	0.003209
813.000000	0.003123
812.000000	0.003064
811.000000	0.003013
810.000000	0.002958
809.000000	0.002906
808.000000	0.002858
807.000000	0.002810
806.000000	0.002764
805.000000	0.002734
804.000000	0.002731
803.000000	0.002746
802.000000	0.002768
801.000000	0.002792
800.000000	0.002811
799.000000	0.002817
798.000000	0.002810
797.000000	0.002803
796.000000	0.002799
795.000000	0.002791
794.000000	0.002778
793.000000	0.002781
792.000000	0.002815
791.000000	0.002868
790.000000	0.002920
789.000000	0.002956
788.000000	0.002970
787.000000	0.002958
786.000000	0.002928
785.000000	0.002911
784.000000	0.002932
783.000000	0.002976
782.000000	0.003008
781.000000	0.003010
780.000000	0.002991
779.000000	0.002966
778.000000	0.002946
777.000000	0.002955
776.000000	0.003015
775.000000	0.003119
774.000000	0.003219
773.000000	0.003261
772.000000	0.003233
771.000000	0.003177
770.000000	0.003140
769.000000	0.003145
768.000000	0.003180
767.000000	0.003226
766.000000	0.003275
765.000000	0.003322
764.000000	0.003361
763.000000	0.003391
762.000000	0.003427
761.000000	0.003474
760.000000	0.003513
759.000000	0.003530
758.000000	0.003550
757.000000	0.003625
756.000000	0.003770
755.000000	0.003947
754.000000	0.004106
753.000000	0.004230
752.000000	0.004322
751.000000	0.004383
750.000000	0.004419
749.000000	0.004453
748.000000	0.004500
747.000000	0.004547
746.000000	0.004572
745.000000	0.004578
744.000000	0.004570
743.000000	0.004542
742.000000	0.004494
741.000000	0.004466
740.000000	0.004515
739.000000	0.004653
738.000000	0.004827
737.000000	0.004979
736.000000	0.005089
735.000000	0.005178
734.000000	0.005275
733.000000	0.005397
732.000000	0.005553
731.000000	0.005748
730.000000	0.005980
729.000000	0.006238
728.000000	0.006496
727.000000	0.006729
726.000000	0.006942
725.000000	0.007160
724.000000	0.007400
723.000000	0.007650
722.000000	0.007888
721.000000	0.008092
720.000000	0.008239
719.000000	0.008295
718.000000	0.008256
717.000000	0.008163
716.000000	0.008085
715.000000	0.008062
714.000000	0.008089
713.000000	0.008133
712.000000	0.008161
711.000000	0.008165
710.000000	0.008171
709.000000	0.008211
708.000000	0.008285
707.000000	0.008343
706.000000	0.008347
705.000000	0.008313
704.000000	0.008290
703.000000	0.008305
702.000000	0.008344
701.000000	0.008379
700.000000	0.008397
699.000000	0.008394
698.000000	0.008372
697.000000	0.008340
696.000000	0.008301
695.000000	0.008248
694.000000	0.008183
693.000000	0.008124
692.000000	0.008093
691.000000	0.008075
690.000000	0.008043
689.000000	0.007986
688.000000	0.007928
687.000000	0.007904
686.000000	0.007928
685.000000	0.007985
684.000000	0.008044
683.000000	0.008077
682.000000	0.008089
681.000000	0.008112
680.000000	0.008174
679.000000	0.008272
678.000000	0.008376
677.000000	0.008448
676.000000	0.008462
675.000000	0.008404
674.000000	0.008324
673.000000	0.008332
672.000000	0.008497
671.000000	0.008738
670.000000	0.008885
669.000000	0.008773
668.000000	0.008403
667.000000	0.008150
666.000000	0.008241
665.000000	0.008452
664.000000	0.008570
663.000000	0.008565
662.000000	0.008540
661.000000	0.008595
660.000000	0.008732
659.000000	0.008882
658.000000	0.008990
657.000000	0.009049
656.000000	0.009063
655.000000	0.009026
654.000000	0.008963
653.000000	0.008932
652.000000	0.008958
651.000000	0.009007
650.000000	0.009044
649.000000	0.009062
648.000000	0.009061
647.000000	0.009020
646.000000	0.008944
645.000000	0.008883
644.000000	0.008867
643.000000	0.008870
642.000000	0.008852
641.000000	0.008809
640.000000	0.008751
639.000000	0.008674
638.000000	0.008581
637.000000	0.008498
636.000000	0.008440
635.000000	0.008392
634.000000	0.008346
633.000000	0.008315
632.000000	0.008300
631.000000	0.008280
630.000000	0.008256
629.000000	0.008264
628.000000	0.008313
627.000000	0.008363
626.000000	0.008379
625.000000	0.008375
624.000000	0.008365
623.000000	0.008336
622.000000	0.008305
621.000000	0.008345
620.000000	0.008492
619.000000	0.008679
618.000000	0.008799
617.000000	0.008812
616.000000	0.008751
615.000000	0.008650
614.000000	0.008542
613.000000	0.008479
612.000000	0.008483
611.000000	0.008492
610.000000	0.008439
609.000000	0.008349
608.000000	0.008316
607.000000	0.008387
606.000000	0.008519
605.000000	0.008652
604.000000	0.008753
603.000000	0.008808
602.000000	0.008819
601.000000	0.008818
600.000000	0.008839
599.000000	0.008871
598.000000	0.008885
597.000000	0.008875
596.000000	0.008853
595.000000	0.008817
594.000000	0.008767
593.000000	0.008735
592.000000	0.008758
591.000000	0.008827
590.000000	0.008903
589.000000	0.008948
588.000000	0.008930
587.000000	0.008816
586.000000	0.008639
585.000000	0.008505
584.000000	0.008489
583.000000	0.008558
582.000000	0.008642
581.000000	0.008742
580.000000	0.008892
579.000000	0.009055
578.000000	0.009140
577.000000	0.009107
576.000000	0.009006
575.000000	0.008923
574.000000	0.008947
573.000000	0.009125
572.000000	0.009407
571.000000	0.009639
570.000000	0.009694
569.000000	0.009615
568.000000	0.009555
567.000000	0.009611
566.000000	0.009764
565.000000	0.009947
564.000000	0.010101
563.000000	0.010203
562.000000	0.010294
561.000000	0.010467
560.000000	0.010741
559.000000	0.011003
558.000000	0.011126
557.000000	0.011107
556.000000	0.011029
555.000000	0.010950
554.000000	0.010888
553.000000	0.010856
552.000000	0.010838
551.000000	0.010763
550.000000	0.010588
549.000000	0.010368
548.000000	0.010181
547.000000	0.010045
546.000000	0.009943
545.000000	0.009870
544.000000	0.009802
543.000000	0.009687
542.000000	0.009535
541.000000	0.009423
540.000000	0.009351
539.000000	0.009199
538.000000	0.008930
537.000000	0.008715
536.000000	0.008736
535.000000	0.008937
534.000000	0.009127
533.000000	0.009259
532.000000	0.009466
531.000000	0.009837
530.000000	0.010273
529.000000	0.010590
528.000000	0.010672
527.000000	0.010519
526.000000	0.010263
525.000000	0.010075
524.000000	0.009984
523.000000	0.009870
522.000000	0.009663
521.000000	0.009437
520.000000	0.009260
519.000000	0.009075
518.000000	0.008826
517.000000	0.008592
516.000000	0.008440
515.000000	0.008281
514.000000	0.008020
513.000000	0.007743
512.000000	0.007581
511.000000	0.007500
510.000000	0.007366
509.000000	0.007168
508.000000	0.007019
507.000000	0.006958
506.000000	0.006924
505.000000	0.006893
504.000000	0.006883
503.000000	0.006820
502.000000	0.006590
501.000000	0.006225
500.000000	0.005904
499.000000	0.005737
498.000000	0.005726
497.000000	0.005854
496.000000	0.006088
495.000000	0.006310
494.000000	0.006384
493.000000	0.006294
492.000000	0.006125
491.000000	0.005906
490.000000	0.005610
489.000000	0.005277
488.000000	0.005020
487.000000	0.004899
486.000000	0.004899
485.000000	0.004979
484.000000	0.005058
483.000000	0.004978
482.000000	0.004662
481.000000	0.004286
480.000000	0.004104
479.000000	0.004150
478.000000	0.004250
477.000000	0.004243
476.000000	0.004099
475.000000	0.003844
474.000000	0.003574
473.000000	0.003510
472.000000	0.003806
471.000000	0.004271
470.000000	0.004551
469.000000	0.004520
468.000000	0.004277
467.000000	0.003957
466.000000	0.003681
465.000000	0.003567
464.000000	0.003598
463.000000	0.003550
462.000000	0.003232
461.000000	0.002778
460.000000	0.002463
459.000000	0.002341
458.000000	0.002306
457.000000	0.003094
456.000000	0.003132
455.000000	0.003252
454.000000	0.003280
453.000000	0.003068
452.000000	0.002591
451.000000	0.001883
450.000000	0.001093
