PE IR       SUBTECH     SPECTRUM    ASCII       PEDS        4.00        
   -1
3S-H10-F036_1.ASC
22/02/18
11:23:50.00
22/02/18
11:29:39.00
uco
Sample 036 By uco Date Friday, February 18 2022
450.000000
#HDR
-1
-1
#GR
cm-1
A
1.0
0.0
4000.000000
-1.000000
3551
8
0.056036
0.002050
#DATA
4000.000000	0.002860
3999.000000	0.002871
3998.000000	0.002882
3997.000000	0.002893
3996.000000	0.002903
3995.000000	0.002911
3994.000000	0.002912
3993.000000	0.002903
3992.000000	0.002887
3991.000000	0.002872
3990.000000	0.002867
3989.000000	0.002872
3988.000000	0.002883
3987.000000	0.002892
3986.000000	0.002897
3985.000000	0.002901
3984.000000	0.002906
3983.000000	0.002912
3982.000000	0.002918
3981.000000	0.002923
3980.000000	0.002924
3979.000000	0.002923
3978.000000	0.002920
3977.000000	0.002921
3976.000000	0.002927
3975.000000	0.002939
3974.000000	0.002955
3973.000000	0.002966
3972.000000	0.002967
3971.000000	0.002955
3970.000000	0.002938
3969.000000	0.002926
3968.000000	0.002922
3967.000000	0.002922
3966.000000	0.002923
3965.000000	0.002926
3964.000000	0.002935
3963.000000	0.002949
3962.000000	0.002958
3961.000000	0.002955
3960.000000	0.002942
3959.000000	0.002933
3958.000000	0.002940
3957.000000	0.002964
3956.000000	0.002990
3955.000000	0.003007
3954.000000	0.003015
3953.000000	0.003023
3952.000000	0.003036
3951.000000	0.003050
3950.000000	0.003057
3949.000000	0.003055
3948.000000	0.003048
3947.000000	0.003044
3946.000000	0.003040
3945.000000	0.003032
3944.000000	0.003019
3943.000000	0.003006
3942.000000	0.003000
3941.000000	0.003001
3940.000000	0.002997
3939.000000	0.002982
3938.000000	0.002961
3937.000000	0.002949
3936.000000	0.002953
3935.000000	0.002969
3934.000000	0.002985
3933.000000	0.002990
3932.000000	0.002987
3931.000000	0.002986
3930.000000	0.002992
3929.000000	0.003004
3928.000000	0.003012
3927.000000	0.003010
3926.000000	0.002996
3925.000000	0.002977
3924.000000	0.002970
3923.000000	0.002980
3922.000000	0.003004
3921.000000	0.003025
3920.000000	0.003032
3919.000000	0.003024
3918.000000	0.003011
3917.000000	0.003007
3916.000000	0.003014
3915.000000	0.003028
3914.000000	0.003040
3913.000000	0.003044
3912.000000	0.003037
3911.000000	0.003022
3910.000000	0.003004
3909.000000	0.002989
3908.000000	0.002982
3907.000000	0.002985
3906.000000	0.002999
3905.000000	0.003023
3904.000000	0.003051
3903.000000	0.003073
3902.000000	0.003076
3901.000000	0.003061
3900.000000	0.003038
3899.000000	0.003021
3898.000000	0.003015
3897.000000	0.003017
3896.000000	0.003022
3895.000000	0.003026
3894.000000	0.003025
3893.000000	0.003015
3892.000000	0.003006
3891.000000	0.003013
3890.000000	0.003036
3889.000000	0.003062
3888.000000	0.003077
3887.000000	0.003076
3886.000000	0.003067
3885.000000	0.003065
3884.000000	0.003072
3883.000000	0.003075
3882.000000	0.003060
3881.000000	0.003029
3880.000000	0.003006
3879.000000	0.003009
3878.000000	0.003032
3877.000000	0.003062
3876.000000	0.003088
3875.000000	0.003103
3874.000000	0.003107
3873.000000	0.003104
3872.000000	0.003092
3871.000000	0.003069
3870.000000	0.003045
3869.000000	0.003036
3868.000000	0.003037
3867.000000	0.003033
3866.000000	0.003016
3865.000000	0.002992
3864.000000	0.002977
3863.000000	0.002976
3862.000000	0.002984
3861.000000	0.002990
3860.000000	0.002990
3859.000000	0.002989
3858.000000	0.002994
3857.000000	0.003010
3856.000000	0.003038
3855.000000	0.003062
3854.000000	0.003066
3853.000000	0.003066
3852.000000	0.003080
3851.000000	0.003090
3850.000000	0.003088
3849.000000	0.003078
3848.000000	0.003064
3847.000000	0.003047
3846.000000	0.003028
3845.000000	0.003008
3844.000000	0.002993
3843.000000	0.002984
3842.000000	0.002980
3841.000000	0.002977
3840.000000	0.002968
3839.000000	0.002956
3838.000000	0.002948
3837.000000	0.002955
3836.000000	0.002975
3835.000000	0.003001
3834.000000	0.003026
3833.000000	0.003046
3832.000000	0.003059
3831.000000	0.003065
3830.000000	0.003057
3829.000000	0.003032
3828.000000	0.002995
3827.000000	0.002958
3826.000000	0.002938
3825.000000	0.002934
3824.000000	0.002933
3823.000000	0.002921
3822.000000	0.002892
3821.000000	0.002870
3820.000000	0.002876
3819.000000	0.002896
3818.000000	0.002904
3817.000000	0.002893
3816.000000	0.002879
3815.000000	0.002881
3814.000000	0.002900
3813.000000	0.002926
3812.000000	0.002953
3811.000000	0.002977
3810.000000	0.002989
3809.000000	0.002981
3808.000000	0.002949
3807.000000	0.002910
3806.000000	0.002892
3805.000000	0.002908
3804.000000	0.002948
3803.000000	0.002992
3802.000000	0.003021
3801.000000	0.003031
3800.000000	0.003030
3799.000000	0.003013
3798.000000	0.002983
3797.000000	0.002950
3796.000000	0.002931
3795.000000	0.002927
3794.000000	0.002932
3793.000000	0.002935
3792.000000	0.002933
3791.000000	0.002924
3790.000000	0.002908
3789.000000	0.002886
3788.000000	0.002864
3787.000000	0.002846
3786.000000	0.002838
3785.000000	0.002842
3784.000000	0.002856
3783.000000	0.002874
3782.000000	0.002891
3781.000000	0.002906
3780.000000	0.002923
3779.000000	0.002944
3778.000000	0.002964
3777.000000	0.002967
3776.000000	0.002948
3775.000000	0.002915
3774.000000	0.002882
3773.000000	0.002862
3772.000000	0.002859
3771.000000	0.002871
3770.000000	0.002897
3769.000000	0.002932
3768.000000	0.002964
3767.000000	0.002977
3766.000000	0.002967
3765.000000	0.002945
3764.000000	0.002926
3763.000000	0.002915
3762.000000	0.002907
3761.000000	0.002893
3760.000000	0.002876
3759.000000	0.002865
3758.000000	0.002867
3757.000000	0.002876
3756.000000	0.002886
3755.000000	0.002896
3754.000000	0.002914
3753.000000	0.002943
3752.000000	0.002973
3751.000000	0.002998
3750.000000	0.003016
3749.000000	0.003022
3748.000000	0.003016
3747.000000	0.003005
3746.000000	0.002995
3745.000000	0.002985
3744.000000	0.002977
3743.000000	0.002972
3742.000000	0.002960
3741.000000	0.002949
3740.000000	0.002954
3739.000000	0.002982
3738.000000	0.003024
3737.000000	0.003050
3736.000000	0.003031
3735.000000	0.002969
3734.000000	0.002900
3733.000000	0.002856
3732.000000	0.002848
3731.000000	0.002860
3730.000000	0.002869
3729.000000	0.002865
3728.000000	0.002854
3727.000000	0.002849
3726.000000	0.002860
3725.000000	0.002883
3724.000000	0.002906
3723.000000	0.002914
3722.000000	0.002907
3721.000000	0.002890
3720.000000	0.002868
3719.000000	0.002852
3718.000000	0.002851
3717.000000	0.002870
3716.000000	0.002904
3715.000000	0.002941
3714.000000	0.002965
3713.000000	0.002963
3712.000000	0.002931
3711.000000	0.002888
3710.000000	0.002856
3709.000000	0.002848
3708.000000	0.002862
3707.000000	0.002886
3706.000000	0.002904
3705.000000	0.002903
3704.000000	0.002885
3703.000000	0.002867
3702.000000	0.002867
3701.000000	0.002888
3700.000000	0.002912
3699.000000	0.002922
3698.000000	0.002918
3697.000000	0.002910
3696.000000	0.002907
3695.000000	0.002911
3694.000000	0.002921
3693.000000	0.002927
3692.000000	0.002920
3691.000000	0.002894
3690.000000	0.002862
3689.000000	0.002854
3688.000000	0.002884
3687.000000	0.002933
3686.000000	0.002972
3685.000000	0.002995
3684.000000	0.003008
3683.000000	0.003016
3682.000000	0.003027
3681.000000	0.003045
3680.000000	0.003078
3679.000000	0.003131
3678.000000	0.003197
3677.000000	0.003255
3676.000000	0.003277
3675.000000	0.003270
3674.000000	0.003258
3673.000000	0.003242
3672.000000	0.003227
3671.000000	0.003221
3670.000000	0.003226
3669.000000	0.003241
3668.000000	0.003260
3667.000000	0.003276
3666.000000	0.003297
3665.000000	0.003325
3664.000000	0.003354
3663.000000	0.003374
3662.000000	0.003386
3661.000000	0.003393
3660.000000	0.003395
3659.000000	0.003388
3658.000000	0.003374
3657.000000	0.003376
3656.000000	0.003422
3655.000000	0.003515
3654.000000	0.003625
3653.000000	0.003720
3652.000000	0.003785
3651.000000	0.003810
3650.000000	0.003806
3649.000000	0.003805
3648.000000	0.003833
3647.000000	0.003882
3646.000000	0.003935
3645.000000	0.003981
3644.000000	0.004017
3643.000000	0.004047
3642.000000	0.004078
3641.000000	0.004118
3640.000000	0.004171
3639.000000	0.004231
3638.000000	0.004291
3637.000000	0.004345
3636.000000	0.004385
3635.000000	0.004409
3634.000000	0.004422
3633.000000	0.004439
3632.000000	0.004472
3631.000000	0.004529
3630.000000	0.004599
3629.000000	0.004667
3628.000000	0.004727
3627.000000	0.004772
3626.000000	0.004797
3625.000000	0.004818
3624.000000	0.004846
3623.000000	0.004875
3622.000000	0.004897
3621.000000	0.004913
3620.000000	0.004946
3619.000000	0.005018
3618.000000	0.005122
3617.000000	0.005217
3616.000000	0.005272
3615.000000	0.005286
3614.000000	0.005285
3613.000000	0.005303
3612.000000	0.005353
3611.000000	0.005423
3610.000000	0.005490
3609.000000	0.005543
3608.000000	0.005584
3607.000000	0.005628
3606.000000	0.005684
3605.000000	0.005751
3604.000000	0.005824
3603.000000	0.005895
3602.000000	0.005959
3601.000000	0.006012
3600.000000	0.006057
3599.000000	0.006102
3598.000000	0.006153
3597.000000	0.006214
3596.000000	0.006280
3595.000000	0.006341
3594.000000	0.006395
3593.000000	0.006447
3592.000000	0.006503
3591.000000	0.006563
3590.000000	0.006621
3589.000000	0.006671
3588.000000	0.006722
3587.000000	0.006792
3586.000000	0.006879
3585.000000	0.006960
3584.000000	0.007014
3583.000000	0.007050
3582.000000	0.007088
3581.000000	0.007137
3580.000000	0.007195
3579.000000	0.007251
3578.000000	0.007308
3577.000000	0.007374
3576.000000	0.007456
3575.000000	0.007550
3574.000000	0.007644
3573.000000	0.007730
3572.000000	0.007807
3571.000000	0.007879
3570.000000	0.007953
3569.000000	0.008029
3568.000000	0.008101
3567.000000	0.008163
3566.000000	0.008220
3565.000000	0.008281
3564.000000	0.008350
3563.000000	0.008424
3562.000000	0.008501
3561.000000	0.008579
3560.000000	0.008659
3559.000000	0.008741
3558.000000	0.008829
3557.000000	0.008918
3556.000000	0.009003
3555.000000	0.009081
3554.000000	0.009150
3553.000000	0.009216
3552.000000	0.009281
3551.000000	0.009344
3550.000000	0.009399
3549.000000	0.009450
3548.000000	0.009499
3547.000000	0.009551
3546.000000	0.009603
3545.000000	0.009654
3544.000000	0.009707
3543.000000	0.009763
3542.000000	0.009822
3541.000000	0.009887
3540.000000	0.009960
3539.000000	0.010043
3538.000000	0.010135
3537.000000	0.010227
3536.000000	0.010311
3535.000000	0.010386
3534.000000	0.010455
3533.000000	0.010524
3532.000000	0.010589
3531.000000	0.010642
3530.000000	0.010687
3529.000000	0.010738
3528.000000	0.010809
3527.000000	0.010903
3526.000000	0.011003
3525.000000	0.011091
3524.000000	0.011157
3523.000000	0.011208
3522.000000	0.011258
3521.000000	0.011318
3520.000000	0.011387
3519.000000	0.011459
3518.000000	0.011530
3517.000000	0.011595
3516.000000	0.011651
3515.000000	0.011695
3514.000000	0.011732
3513.000000	0.011776
3512.000000	0.011840
3511.000000	0.011931
3510.000000	0.012033
3509.000000	0.012127
3508.000000	0.012195
3507.000000	0.012239
3506.000000	0.012273
3505.000000	0.012313
3504.000000	0.012365
3503.000000	0.012425
3502.000000	0.012487
3501.000000	0.012551
3500.000000	0.012621
3499.000000	0.012697
3498.000000	0.012776
3497.000000	0.012851
3496.000000	0.012916
3495.000000	0.012972
3494.000000	0.013026
3493.000000	0.013082
3492.000000	0.013140
3491.000000	0.013193
3490.000000	0.013239
3489.000000	0.013278
3488.000000	0.013312
3487.000000	0.013341
3486.000000	0.013373
3485.000000	0.013413
3484.000000	0.013463
3483.000000	0.013518
3482.000000	0.013571
3481.000000	0.013620
3480.000000	0.013668
3479.000000	0.013717
3478.000000	0.013767
3477.000000	0.013817
3476.000000	0.013873
3475.000000	0.013940
3474.000000	0.014017
3473.000000	0.014098
3472.000000	0.014174
3471.000000	0.014240
3470.000000	0.014299
3469.000000	0.014350
3468.000000	0.014394
3467.000000	0.014430
3466.000000	0.014464
3465.000000	0.014501
3464.000000	0.014545
3463.000000	0.014593
3462.000000	0.014637
3461.000000	0.014679
3460.000000	0.014728
3459.000000	0.014794
3458.000000	0.014871
3457.000000	0.014941
3456.000000	0.014992
3455.000000	0.015028
3454.000000	0.015064
3453.000000	0.015106
3452.000000	0.015152
3451.000000	0.015205
3450.000000	0.015268
3449.000000	0.015341
3448.000000	0.015418
3447.000000	0.015491
3446.000000	0.015553
3445.000000	0.015602
3444.000000	0.015639
3443.000000	0.015669
3442.000000	0.015705
3441.000000	0.015755
3440.000000	0.015819
3439.000000	0.015887
3438.000000	0.015957
3437.000000	0.016033
3436.000000	0.016112
3435.000000	0.016184
3434.000000	0.016241
3433.000000	0.016287
3432.000000	0.016333
3431.000000	0.016384
3430.000000	0.016432
3429.000000	0.016470
3428.000000	0.016505
3427.000000	0.016551
3426.000000	0.016615
3425.000000	0.016686
3424.000000	0.016749
3423.000000	0.016798
3422.000000	0.016844
3421.000000	0.016901
3420.000000	0.016973
3419.000000	0.017049
3418.000000	0.017124
3417.000000	0.017197
3416.000000	0.017269
3415.000000	0.017336
3414.000000	0.017389
3413.000000	0.017424
3412.000000	0.017445
3411.000000	0.017462
3410.000000	0.017490
3409.000000	0.017540
3408.000000	0.017614
3407.000000	0.017705
3406.000000	0.017794
3405.000000	0.017864
3404.000000	0.017908
3403.000000	0.017934
3402.000000	0.017964
3401.000000	0.018015
3400.000000	0.018085
3399.000000	0.018158
3398.000000	0.018214
3397.000000	0.018248
3396.000000	0.018269
3395.000000	0.018298
3394.000000	0.018347
3393.000000	0.018418
3392.000000	0.018501
3391.000000	0.018581
3390.000000	0.018648
3389.000000	0.018700
3388.000000	0.018743
3387.000000	0.018789
3386.000000	0.018851
3385.000000	0.018933
3384.000000	0.019028
3383.000000	0.019124
3382.000000	0.019209
3381.000000	0.019279
3380.000000	0.019334
3379.000000	0.019381
3378.000000	0.019425
3377.000000	0.019471
3376.000000	0.019523
3375.000000	0.019586
3374.000000	0.019667
3373.000000	0.019764
3372.000000	0.019859
3371.000000	0.019933
3370.000000	0.019977
3369.000000	0.020005
3368.000000	0.020040
3367.000000	0.020099
3366.000000	0.020180
3365.000000	0.020272
3364.000000	0.020366
3363.000000	0.020460
3362.000000	0.020561
3361.000000	0.020674
3360.000000	0.020790
3359.000000	0.020897
3358.000000	0.020987
3357.000000	0.021065
3356.000000	0.021137
3355.000000	0.021206
3354.000000	0.021275
3353.000000	0.021349
3352.000000	0.021433
3351.000000	0.021529
3350.000000	0.021631
3349.000000	0.021731
3348.000000	0.021826
3347.000000	0.021916
3346.000000	0.022004
3345.000000	0.022089
3344.000000	0.022171
3343.000000	0.022251
3342.000000	0.022327
3341.000000	0.022400
3340.000000	0.022472
3339.000000	0.022548
3338.000000	0.022632
3337.000000	0.022721
3336.000000	0.022803
3335.000000	0.022874
3334.000000	0.022943
3333.000000	0.023024
3332.000000	0.023121
3331.000000	0.023230
3330.000000	0.023334
3329.000000	0.023418
3328.000000	0.023474
3327.000000	0.023508
3326.000000	0.023541
3325.000000	0.023590
3324.000000	0.023654
3323.000000	0.023720
3322.000000	0.023777
3321.000000	0.023826
3320.000000	0.023875
3319.000000	0.023932
3318.000000	0.023996
3317.000000	0.024066
3316.000000	0.024137
3315.000000	0.024207
3314.000000	0.024277
3313.000000	0.024351
3312.000000	0.024420
3311.000000	0.024467
3310.000000	0.024478
3309.000000	0.024467
3308.000000	0.024465
3307.000000	0.024496
3306.000000	0.024559
3305.000000	0.024629
3304.000000	0.024686
3303.000000	0.024727
3302.000000	0.024766
3301.000000	0.024817
3300.000000	0.024880
3299.000000	0.024941
3298.000000	0.024987
3297.000000	0.025014
3296.000000	0.025027
3295.000000	0.025028
3294.000000	0.025020
3293.000000	0.025008
3292.000000	0.025004
3291.000000	0.025016
3290.000000	0.025042
3289.000000	0.025073
3288.000000	0.025098
3287.000000	0.025114
3286.000000	0.025121
3285.000000	0.025124
3284.000000	0.025128
3283.000000	0.025131
3282.000000	0.025130
3281.000000	0.025117
3280.000000	0.025094
3279.000000	0.025065
3278.000000	0.025038
3277.000000	0.025015
3276.000000	0.024994
3275.000000	0.024969
3274.000000	0.024935
3273.000000	0.024889
3272.000000	0.024832
3271.000000	0.024770
3270.000000	0.024712
3269.000000	0.024661
3268.000000	0.024612
3267.000000	0.024564
3266.000000	0.024518
3265.000000	0.024479
3264.000000	0.024446
3263.000000	0.024412
3262.000000	0.024370
3261.000000	0.024318
3260.000000	0.024256
3259.000000	0.024193
3258.000000	0.024129
3257.000000	0.024063
3256.000000	0.023991
3255.000000	0.023915
3254.000000	0.023838
3253.000000	0.023767
3252.000000	0.023704
3251.000000	0.023652
3250.000000	0.023608
3249.000000	0.023559
3248.000000	0.023493
3247.000000	0.023410
3246.000000	0.023328
3245.000000	0.023265
3244.000000	0.023219
3243.000000	0.023174
3242.000000	0.023113
3241.000000	0.023038
3240.000000	0.022959
3239.000000	0.022888
3238.000000	0.022831
3237.000000	0.022783
3236.000000	0.022737
3235.000000	0.022688
3234.000000	0.022640
3233.000000	0.022599
3232.000000	0.022566
3231.000000	0.022531
3230.000000	0.022487
3229.000000	0.022430
3228.000000	0.022371
3227.000000	0.022328
3226.000000	0.022311
3225.000000	0.022312
3224.000000	0.022311
3223.000000	0.022292
3222.000000	0.022252
3221.000000	0.022197
3220.000000	0.022132
3219.000000	0.022061
3218.000000	0.021991
3217.000000	0.021927
3216.000000	0.021871
3215.000000	0.021816
3214.000000	0.021760
3213.000000	0.021704
3212.000000	0.021650
3211.000000	0.021599
3210.000000	0.021546
3209.000000	0.021492
3208.000000	0.021440
3207.000000	0.021395
3206.000000	0.021359
3205.000000	0.021327
3204.000000	0.021293
3203.000000	0.021254
3202.000000	0.021209
3201.000000	0.021149
3200.000000	0.021068
3199.000000	0.020970
3198.000000	0.020876
3197.000000	0.020807
3196.000000	0.020762
3195.000000	0.020723
3194.000000	0.020669
3193.000000	0.020598
3192.000000	0.020521
3191.000000	0.020456
3190.000000	0.020412
3189.000000	0.020382
3188.000000	0.020346
3187.000000	0.020282
3186.000000	0.020188
3185.000000	0.020082
3184.000000	0.019984
3183.000000	0.019897
3182.000000	0.019817
3181.000000	0.019737
3180.000000	0.019660
3179.000000	0.019584
3178.000000	0.019508
3177.000000	0.019428
3176.000000	0.019345
3175.000000	0.019264
3174.000000	0.019190
3173.000000	0.019124
3172.000000	0.019056
3171.000000	0.018976
3170.000000	0.018882
3169.000000	0.018786
3168.000000	0.018705
3167.000000	0.018648
3166.000000	0.018609
3165.000000	0.018578
3164.000000	0.018540
3163.000000	0.018487
3162.000000	0.018415
3161.000000	0.018334
3160.000000	0.018256
3159.000000	0.018183
3158.000000	0.018113
3157.000000	0.018043
3156.000000	0.017975
3155.000000	0.017904
3154.000000	0.017823
3153.000000	0.017729
3152.000000	0.017629
3151.000000	0.017538
3150.000000	0.017465
3149.000000	0.017407
3148.000000	0.017357
3147.000000	0.017307
3146.000000	0.017249
3145.000000	0.017185
3144.000000	0.017122
3143.000000	0.017066
3142.000000	0.017018
3141.000000	0.016971
3140.000000	0.016920
3139.000000	0.016867
3138.000000	0.016820
3137.000000	0.016777
3136.000000	0.016730
3135.000000	0.016675
3134.000000	0.016619
3133.000000	0.016573
3132.000000	0.016541
3131.000000	0.016518
3130.000000	0.016494
3129.000000	0.016463
3128.000000	0.016423
3127.000000	0.016375
3126.000000	0.016324
3125.000000	0.016280
3124.000000	0.016246
3123.000000	0.016218
3122.000000	0.016187
3121.000000	0.016155
3120.000000	0.016130
3119.000000	0.016120
3118.000000	0.016123
3117.000000	0.016130
3116.000000	0.016134
3115.000000	0.016135
3114.000000	0.016131
3113.000000	0.016126
3112.000000	0.016126
3111.000000	0.016134
3110.000000	0.016141
3109.000000	0.016139
3108.000000	0.016129
3107.000000	0.016125
3106.000000	0.016136
3105.000000	0.016159
3104.000000	0.016179
3103.000000	0.016190
3102.000000	0.016197
3101.000000	0.016206
3100.000000	0.016218
3099.000000	0.016231
3098.000000	0.016242
3097.000000	0.016256
3096.000000	0.016277
3095.000000	0.016305
3094.000000	0.016332
3093.000000	0.016350
3092.000000	0.016358
3091.000000	0.016360
3090.000000	0.016362
3089.000000	0.016365
3088.000000	0.016368
3087.000000	0.016372
3086.000000	0.016383
3085.000000	0.016405
3084.000000	0.016436
3083.000000	0.016470
3082.000000	0.016495
3081.000000	0.016507
3080.000000	0.016509
3079.000000	0.016509
3078.000000	0.016511
3077.000000	0.016519
3076.000000	0.016537
3075.000000	0.016564
3074.000000	0.016592
3073.000000	0.016610
3072.000000	0.016610
3071.000000	0.016588
3070.000000	0.016553
3069.000000	0.016513
3068.000000	0.016481
3067.000000	0.016465
3066.000000	0.016461
3065.000000	0.016462
3064.000000	0.016455
3063.000000	0.016430
3062.000000	0.016385
3061.000000	0.016323
3060.000000	0.016257
3059.000000	0.016200
3058.000000	0.016153
3057.000000	0.016105
3056.000000	0.016043
3055.000000	0.015963
3054.000000	0.015872
3053.000000	0.015778
3052.000000	0.015688
3051.000000	0.015607
3050.000000	0.015537
3049.000000	0.015475
3048.000000	0.015416
3047.000000	0.015357
3046.000000	0.015296
3045.000000	0.015233
3044.000000	0.015167
3043.000000	0.015099
3042.000000	0.015037
3041.000000	0.014989
3040.000000	0.014951
3039.000000	0.014911
3038.000000	0.014852
3037.000000	0.014768
3036.000000	0.014669
3035.000000	0.014579
3034.000000	0.014519
3033.000000	0.014489
3032.000000	0.014467
3031.000000	0.014434
3030.000000	0.014388
3029.000000	0.014340
3028.000000	0.014295
3027.000000	0.014245
3026.000000	0.014183
3025.000000	0.014112
3024.000000	0.014045
3023.000000	0.013992
3022.000000	0.013952
3021.000000	0.013920
3020.000000	0.013888
3019.000000	0.013852
3018.000000	0.013817
3017.000000	0.013795
3016.000000	0.013790
3015.000000	0.013800
3014.000000	0.013814
3013.000000	0.013829
3012.000000	0.013845
3011.000000	0.013862
3010.000000	0.013877
3009.000000	0.013891
3008.000000	0.013904
3007.000000	0.013912
3006.000000	0.013909
3005.000000	0.013889
3004.000000	0.013856
3003.000000	0.013818
3002.000000	0.013781
3001.000000	0.013750
3000.000000	0.013725
2999.000000	0.013708
2998.000000	0.013696
2997.000000	0.013687
2996.000000	0.013679
2995.000000	0.013676
2994.000000	0.013681
2993.000000	0.013702
2992.000000	0.013742
2991.000000	0.013802
2990.000000	0.013876
2989.000000	0.013962
2988.000000	0.014057
2987.000000	0.014163
2986.000000	0.014279
2985.000000	0.014400
2984.000000	0.014523
2983.000000	0.014647
2982.000000	0.014775
2981.000000	0.014909
2980.000000	0.015044
2979.000000	0.015177
2978.000000	0.015306
2977.000000	0.015440
2976.000000	0.015584
2975.000000	0.015733
2974.000000	0.015875
2973.000000	0.016006
2972.000000	0.016135
2971.000000	0.016277
2970.000000	0.016443
2969.000000	0.016632
2968.000000	0.016844
2967.000000	0.017075
2966.000000	0.017315
2965.000000	0.017544
2964.000000	0.017748
2963.000000	0.017925
2962.000000	0.018078
2961.000000	0.018211
2960.000000	0.018322
2959.000000	0.018415
2958.000000	0.018495
2957.000000	0.018567
2956.000000	0.018625
2955.000000	0.018663
2954.000000	0.018679
2953.000000	0.018676
2952.000000	0.018660
2951.000000	0.018637
2950.000000	0.018616
2949.000000	0.018604
2948.000000	0.018605
2947.000000	0.018616
2946.000000	0.018638
2945.000000	0.018678
2944.000000	0.018751
2943.000000	0.018872
2942.000000	0.019042
2941.000000	0.019246
2940.000000	0.019468
2939.000000	0.019705
2938.000000	0.019962
2937.000000	0.020244
2936.000000	0.020542
2935.000000	0.020852
2934.000000	0.021172
2933.000000	0.021502
2932.000000	0.021833
2931.000000	0.022155
2930.000000	0.022469
2929.000000	0.022790
2928.000000	0.023127
2927.000000	0.023475
2926.000000	0.023822
2925.000000	0.024157
2924.000000	0.024478
2923.000000	0.024783
2922.000000	0.025059
2921.000000	0.025285
2920.000000	0.025437
2919.000000	0.025502
2918.000000	0.025476
2917.000000	0.025352
2916.000000	0.025125
2915.000000	0.024796
2914.000000	0.024391
2913.000000	0.023954
2912.000000	0.023523
2911.000000	0.023119
2910.000000	0.022738
2909.000000	0.022376
2908.000000	0.022034
2907.000000	0.021717
2906.000000	0.021428
2905.000000	0.021165
2904.000000	0.020925
2903.000000	0.020706
2902.000000	0.020499
2901.000000	0.020293
2900.000000	0.020086
2899.000000	0.019880
2898.000000	0.019681
2897.000000	0.019494
2896.000000	0.019317
2895.000000	0.019147
2894.000000	0.018979
2893.000000	0.018809
2892.000000	0.018640
2891.000000	0.018482
2890.000000	0.018346
2889.000000	0.018230
2888.000000	0.018121
2887.000000	0.018005
2886.000000	0.017882
2885.000000	0.017758
2884.000000	0.017645
2883.000000	0.017549
2882.000000	0.017474
2881.000000	0.017419
2880.000000	0.017381
2879.000000	0.017359
2878.000000	0.017352
2877.000000	0.017361
2876.000000	0.017386
2875.000000	0.017425
2874.000000	0.017471
2873.000000	0.017517
2872.000000	0.017552
2871.000000	0.017569
2870.000000	0.017563
2869.000000	0.017532
2868.000000	0.017480
2867.000000	0.017416
2866.000000	0.017352
2865.000000	0.017305
2864.000000	0.017291
2863.000000	0.017325
2862.000000	0.017420
2861.000000	0.017580
2860.000000	0.017798
2859.000000	0.018068
2858.000000	0.018386
2857.000000	0.018751
2856.000000	0.019157
2855.000000	0.019580
2854.000000	0.019988
2853.000000	0.020345
2852.000000	0.020607
2851.000000	0.020729
2850.000000	0.020668
2849.000000	0.020413
2848.000000	0.019993
2847.000000	0.019464
2846.000000	0.018887
2845.000000	0.018305
2844.000000	0.017745
2843.000000	0.017221
2842.000000	0.016735
2841.000000	0.016290
2840.000000	0.015888
2839.000000	0.015529
2838.000000	0.015213
2837.000000	0.014940
2836.000000	0.014707
2835.000000	0.014509
2834.000000	0.014339
2833.000000	0.014183
2832.000000	0.014036
2831.000000	0.013894
2830.000000	0.013757
2829.000000	0.013624
2828.000000	0.013493
2827.000000	0.013361
2826.000000	0.013227
2825.000000	0.013089
2824.000000	0.012952
2823.000000	0.012822
2822.000000	0.012706
2821.000000	0.012607
2820.000000	0.012516
2819.000000	0.012426
2818.000000	0.012330
2817.000000	0.012229
2816.000000	0.012129
2815.000000	0.012040
2814.000000	0.011967
2813.000000	0.011907
2812.000000	0.011854
2811.000000	0.011804
2810.000000	0.011755
2809.000000	0.011709
2808.000000	0.011658
2807.000000	0.011600
2806.000000	0.011540
2805.000000	0.011486
2804.000000	0.011442
2803.000000	0.011404
2802.000000	0.011362
2801.000000	0.011314
2800.000000	0.011266
2799.000000	0.011224
2798.000000	0.011188
2797.000000	0.011152
2796.000000	0.011108
2795.000000	0.011054
2794.000000	0.010994
2793.000000	0.010936
2792.000000	0.010888
2791.000000	0.010856
2790.000000	0.010839
2789.000000	0.010830
2788.000000	0.010820
2787.000000	0.010799
2786.000000	0.010765
2785.000000	0.010718
2784.000000	0.010666
2783.000000	0.010614
2782.000000	0.010564
2781.000000	0.010512
2780.000000	0.010457
2779.000000	0.010408
2778.000000	0.010380
2777.000000	0.010375
2776.000000	0.010374
2775.000000	0.010358
2774.000000	0.010323
2773.000000	0.010281
2772.000000	0.010243
2771.000000	0.010211
2770.000000	0.010182
2769.000000	0.010154
2768.000000	0.010128
2767.000000	0.010104
2766.000000	0.010078
2765.000000	0.010046
2764.000000	0.010013
2763.000000	0.009982
2762.000000	0.009958
2761.000000	0.009941
2760.000000	0.009930
2759.000000	0.009919
2758.000000	0.009905
2757.000000	0.009886
2756.000000	0.009865
2755.000000	0.009841
2754.000000	0.009813
2753.000000	0.009777
2752.000000	0.009739
2751.000000	0.009707
2750.000000	0.009687
2749.000000	0.009677
2748.000000	0.009665
2747.000000	0.009647
2746.000000	0.009623
2745.000000	0.009597
2744.000000	0.009570
2743.000000	0.009540
2742.000000	0.009508
2741.000000	0.009480
2740.000000	0.009461
2739.000000	0.009453
2738.000000	0.009452
2737.000000	0.009452
2736.000000	0.009444
2735.000000	0.009426
2734.000000	0.009405
2733.000000	0.009387
2732.000000	0.009373
2731.000000	0.009360
2730.000000	0.009345
2729.000000	0.009329
2728.000000	0.009311
2727.000000	0.009292
2726.000000	0.009268
2725.000000	0.009236
2724.000000	0.009198
2723.000000	0.009159
2722.000000	0.009129
2721.000000	0.009112
2720.000000	0.009099
2719.000000	0.009074
2718.000000	0.009035
2717.000000	0.008994
2716.000000	0.008961
2715.000000	0.008934
2714.000000	0.008910
2713.000000	0.008888
2712.000000	0.008879
2711.000000	0.008881
2710.000000	0.008883
2709.000000	0.008873
2708.000000	0.008849
2707.000000	0.008824
2706.000000	0.008808
2705.000000	0.008799
2704.000000	0.008789
2703.000000	0.008771
2702.000000	0.008748
2701.000000	0.008724
2700.000000	0.008700
2699.000000	0.008677
2698.000000	0.008651
2697.000000	0.008627
2696.000000	0.008606
2695.000000	0.008596
2694.000000	0.008595
2693.000000	0.008600
2692.000000	0.008598
2691.000000	0.008584
2690.000000	0.008564
2689.000000	0.008551
2688.000000	0.008556
2687.000000	0.008571
2686.000000	0.008579
2685.000000	0.008566
2684.000000	0.008534
2683.000000	0.008499
2682.000000	0.008480
2681.000000	0.008483
2680.000000	0.008496
2679.000000	0.008505
2678.000000	0.008501
2677.000000	0.008487
2676.000000	0.008474
2675.000000	0.008467
2674.000000	0.008464
2673.000000	0.008458
2672.000000	0.008446
2671.000000	0.008428
2670.000000	0.008408
2669.000000	0.008388
2668.000000	0.008374
2667.000000	0.008371
2666.000000	0.008383
2665.000000	0.008402
2664.000000	0.008414
2663.000000	0.008410
2662.000000	0.008390
2661.000000	0.008364
2660.000000	0.008339
2659.000000	0.008320
2658.000000	0.008305
2657.000000	0.008290
2656.000000	0.008273
2655.000000	0.008255
2654.000000	0.008239
2653.000000	0.008224
2652.000000	0.008202
2651.000000	0.008164
2650.000000	0.008108
2649.000000	0.008048
2648.000000	0.008003
2647.000000	0.007984
2646.000000	0.007983
2645.000000	0.007978
2644.000000	0.007952
2643.000000	0.007907
2642.000000	0.007860
2641.000000	0.007825
2640.000000	0.007799
2639.000000	0.007776
2638.000000	0.007750
2637.000000	0.007728
2636.000000	0.007710
2635.000000	0.007694
2634.000000	0.007675
2633.000000	0.007647
2632.000000	0.007611
2631.000000	0.007572
2630.000000	0.007535
2629.000000	0.007502
2628.000000	0.007475
2627.000000	0.007447
2626.000000	0.007418
2625.000000	0.007389
2624.000000	0.007371
2623.000000	0.007371
2622.000000	0.007390
2621.000000	0.007414
2620.000000	0.007421
2619.000000	0.007401
2618.000000	0.007359
2617.000000	0.007311
2616.000000	0.007272
2615.000000	0.007248
2614.000000	0.007232
2613.000000	0.007211
2612.000000	0.007178
2611.000000	0.007144
2610.000000	0.007122
2609.000000	0.007113
2608.000000	0.007105
2607.000000	0.007093
2606.000000	0.007088
2605.000000	0.007094
2604.000000	0.007098
2603.000000	0.007082
2602.000000	0.007046
2601.000000	0.007008
2600.000000	0.006977
2599.000000	0.006949
2598.000000	0.006918
2597.000000	0.006886
2596.000000	0.006859
2595.000000	0.006836
2594.000000	0.006814
2593.000000	0.006797
2592.000000	0.006792
2591.000000	0.006803
2590.000000	0.006826
2589.000000	0.006849
2588.000000	0.006858
2587.000000	0.006842
2586.000000	0.006801
2585.000000	0.006743
2584.000000	0.006692
2583.000000	0.006668
2582.000000	0.006680
2581.000000	0.006715
2580.000000	0.006740
2579.000000	0.006732
2578.000000	0.006691
2577.000000	0.006634
2576.000000	0.006577
2575.000000	0.006528
2574.000000	0.006489
2573.000000	0.006466
2572.000000	0.006462
2571.000000	0.006478
2570.000000	0.006508
2569.000000	0.006542
2568.000000	0.006569
2567.000000	0.006584
2566.000000	0.006585
2565.000000	0.006566
2564.000000	0.006515
2563.000000	0.006436
2562.000000	0.006363
2561.000000	0.006331
2560.000000	0.006347
2559.000000	0.006381
2558.000000	0.006394
2557.000000	0.006369
2556.000000	0.006315
2555.000000	0.006262
2554.000000	0.006242
2553.000000	0.006265
2552.000000	0.006302
2551.000000	0.006313
2550.000000	0.006284
2549.000000	0.006237
2548.000000	0.006203
2547.000000	0.006193
2546.000000	0.006196
2545.000000	0.006199
2544.000000	0.006200
2543.000000	0.006201
2542.000000	0.006198
2541.000000	0.006186
2540.000000	0.006169
2539.000000	0.006158
2538.000000	0.006164
2537.000000	0.006185
2536.000000	0.006208
2535.000000	0.006216
2534.000000	0.006208
2533.000000	0.006189
2532.000000	0.006167
2531.000000	0.006143
2530.000000	0.006118
2529.000000	0.006099
2528.000000	0.006099
2527.000000	0.006124
2526.000000	0.006162
2525.000000	0.006192
2524.000000	0.006197
2523.000000	0.006178
2522.000000	0.006141
2521.000000	0.006097
2520.000000	0.006056
2519.000000	0.006034
2518.000000	0.006045
2517.000000	0.006079
2516.000000	0.006109
2515.000000	0.006115
2514.000000	0.006098
2513.000000	0.006069
2512.000000	0.006037
2511.000000	0.006008
2510.000000	0.005991
2509.000000	0.005991
2508.000000	0.006004
2507.000000	0.006020
2506.000000	0.006032
2505.000000	0.006038
2504.000000	0.006037
2503.000000	0.006028
2502.000000	0.006012
2501.000000	0.005988
2500.000000	0.005959
2499.000000	0.005935
2498.000000	0.005927
2497.000000	0.005929
2496.000000	0.005923
2495.000000	0.005901
2494.000000	0.005872
2493.000000	0.005850
2492.000000	0.005834
2491.000000	0.005826
2490.000000	0.005832
2489.000000	0.005848
2488.000000	0.005852
2487.000000	0.005827
2486.000000	0.005794
2485.000000	0.005789
2484.000000	0.005818
2483.000000	0.005856
2482.000000	0.005876
2481.000000	0.005876
2480.000000	0.005864
2479.000000	0.005846
2478.000000	0.005829
2477.000000	0.005820
2476.000000	0.005822
2475.000000	0.005830
2474.000000	0.005836
2473.000000	0.005836
2472.000000	0.005831
2471.000000	0.005821
2470.000000	0.005814
2469.000000	0.005817
2468.000000	0.005825
2467.000000	0.005825
2466.000000	0.005804
2465.000000	0.005763
2464.000000	0.005715
2463.000000	0.005679
2462.000000	0.005672
2461.000000	0.005693
2460.000000	0.005720
2459.000000	0.005728
2458.000000	0.005714
2457.000000	0.005699
2456.000000	0.005700
2455.000000	0.005716
2454.000000	0.005730
2453.000000	0.005725
2452.000000	0.005694
2451.000000	0.005645
2450.000000	0.005603
2449.000000	0.005591
2448.000000	0.005610
2447.000000	0.005639
2446.000000	0.005653
2445.000000	0.005643
2444.000000	0.005611
2443.000000	0.005567
2442.000000	0.005526
2441.000000	0.005505
2440.000000	0.005513
2439.000000	0.005547
2438.000000	0.005586
2437.000000	0.005609
2436.000000	0.005599
2435.000000	0.005563
2434.000000	0.005524
2433.000000	0.005509
2432.000000	0.005521
2431.000000	0.005545
2430.000000	0.005565
2429.000000	0.005573
2428.000000	0.005573
2427.000000	0.005570
2426.000000	0.005566
2425.000000	0.005557
2424.000000	0.005539
2423.000000	0.005514
2422.000000	0.005496
2421.000000	0.005492
2420.000000	0.005494
2419.000000	0.005489
2418.000000	0.005484
2417.000000	0.005491
2416.000000	0.005508
2415.000000	0.005515
2414.000000	0.005495
2413.000000	0.005451
2412.000000	0.005404
2411.000000	0.005372
2410.000000	0.005359
2409.000000	0.005359
2408.000000	0.005364
2407.000000	0.005376
2406.000000	0.005399
2405.000000	0.005430
2404.000000	0.005457
2403.000000	0.005470
2402.000000	0.005477
2401.000000	0.005492
2400.000000	0.005516
2399.000000	0.005537
2398.000000	0.005540
2397.000000	0.005519
2396.000000	0.005480
2395.000000	0.005443
2394.000000	0.005436
2393.000000	0.005471
2392.000000	0.005529
2391.000000	0.005579
2390.000000	0.005603
2389.000000	0.005604
2388.000000	0.005590
2387.000000	0.005568
2386.000000	0.005545
2385.000000	0.005534
2384.000000	0.005537
2383.000000	0.005547
2382.000000	0.005559
2381.000000	0.005574
2380.000000	0.005585
2379.000000	0.005585
2378.000000	0.005574
2377.000000	0.005558
2376.000000	0.005544
2375.000000	0.005531
2374.000000	0.005526
2373.000000	0.005534
2372.000000	0.005548
2371.000000	0.005556
2370.000000	0.005560
2369.000000	0.005576
2368.000000	0.005609
2367.000000	0.005646
2366.000000	0.005684
2365.000000	0.005734
2364.000000	0.005785
2363.000000	0.005802
2362.000000	0.005766
2361.000000	0.005696
2360.000000	0.005631
2359.000000	0.005583
2358.000000	0.005552
2357.000000	0.005549
2356.000000	0.005595
2355.000000	0.005684
2354.000000	0.005764
2353.000000	0.005787
2352.000000	0.005757
2351.000000	0.005722
2350.000000	0.005720
2349.000000	0.005749
2348.000000	0.005783
2347.000000	0.005798
2346.000000	0.005790
2345.000000	0.005780
2344.000000	0.005784
2343.000000	0.005797
2342.000000	0.005799
2341.000000	0.005787
2340.000000	0.005787
2339.000000	0.005814
2338.000000	0.005841
2337.000000	0.005838
2336.000000	0.005812
2335.000000	0.005796
2334.000000	0.005801
2333.000000	0.005804
2332.000000	0.005785
2331.000000	0.005757
2330.000000	0.005760
2329.000000	0.005806
2328.000000	0.005886
2327.000000	0.005969
2326.000000	0.006039
2325.000000	0.006078
2324.000000	0.006078
2323.000000	0.006041
2322.000000	0.005990
2321.000000	0.005945
2320.000000	0.005908
2319.000000	0.005865
2318.000000	0.005817
2317.000000	0.005782
2316.000000	0.005773
2315.000000	0.005781
2314.000000	0.005793
2313.000000	0.005798
2312.000000	0.005793
2311.000000	0.005775
2310.000000	0.005745
2309.000000	0.005711
2308.000000	0.005677
2307.000000	0.005637
2306.000000	0.005595
2305.000000	0.005565
2304.000000	0.005559
2303.000000	0.005575
2302.000000	0.005601
2301.000000	0.005625
2300.000000	0.005637
2299.000000	0.005629
2298.000000	0.005609
2297.000000	0.005590
2296.000000	0.005587
2295.000000	0.005589
2294.000000	0.005584
2293.000000	0.005567
2292.000000	0.005551
2291.000000	0.005549
2290.000000	0.005560
2289.000000	0.005576
2288.000000	0.005592
2287.000000	0.005612
2286.000000	0.005628
2285.000000	0.005622
2284.000000	0.005575
2283.000000	0.005496
2282.000000	0.005421
2281.000000	0.005379
2280.000000	0.005369
2279.000000	0.005373
2278.000000	0.005387
2277.000000	0.005410
2276.000000	0.005424
2275.000000	0.005407
2274.000000	0.005358
2273.000000	0.005302
2272.000000	0.005257
2271.000000	0.005219
2270.000000	0.005179
2269.000000	0.005142
2268.000000	0.005119
2267.000000	0.005118
2266.000000	0.005142
2265.000000	0.005179
2264.000000	0.005202
2263.000000	0.005186
2262.000000	0.005136
2261.000000	0.005076
2260.000000	0.005030
2259.000000	0.005001
2258.000000	0.004982
2257.000000	0.004974
2256.000000	0.004979
2255.000000	0.005005
2254.000000	0.005049
2253.000000	0.005094
2252.000000	0.005115
2251.000000	0.005112
2250.000000	0.005112
2249.000000	0.005133
2248.000000	0.005157
2247.000000	0.005166
2246.000000	0.005178
2245.000000	0.005211
2244.000000	0.005230
2243.000000	0.005186
2242.000000	0.005088
2241.000000	0.005013
2240.000000	0.005016
2239.000000	0.005086
2238.000000	0.005186
2237.000000	0.005290
2236.000000	0.005367
2235.000000	0.005375
2234.000000	0.005306
2233.000000	0.005215
2232.000000	0.005162
2231.000000	0.005155
2230.000000	0.005149
2229.000000	0.005100
2228.000000	0.004999
2227.000000	0.004871
2226.000000	0.004764
2225.000000	0.004708
2224.000000	0.004687
2223.000000	0.004665
2222.000000	0.004638
2221.000000	0.004643
2220.000000	0.004697
2219.000000	0.004772
2218.000000	0.004839
2217.000000	0.004897
2216.000000	0.004938
2215.000000	0.004915
2214.000000	0.004791
2213.000000	0.004598
2212.000000	0.004426
2211.000000	0.004345
2210.000000	0.004364
2209.000000	0.004440
2208.000000	0.004523
2207.000000	0.004585
2206.000000	0.004627
2205.000000	0.004660
2204.000000	0.004686
2203.000000	0.004692
2202.000000	0.004668
2201.000000	0.004610
2200.000000	0.004526
2199.000000	0.004435
2198.000000	0.004371
2197.000000	0.004347
2196.000000	0.004347
2195.000000	0.004344
2194.000000	0.004331
2193.000000	0.004306
2192.000000	0.004247
2191.000000	0.004136
2190.000000	0.004008
2189.000000	0.003945
2188.000000	0.004014
2187.000000	0.004205
2186.000000	0.004434
2185.000000	0.004593
2184.000000	0.004628
2183.000000	0.004590
2182.000000	0.004583
2181.000000	0.004644
2180.000000	0.004695
2179.000000	0.004656
2178.000000	0.004552
2177.000000	0.004468
2176.000000	0.004426
2175.000000	0.004376
2174.000000	0.004295
2173.000000	0.004230
2172.000000	0.004241
2171.000000	0.004329
2170.000000	0.004443
2169.000000	0.004502
2168.000000	0.004454
2167.000000	0.004332
2166.000000	0.004263
2165.000000	0.004344
2164.000000	0.004516
2163.000000	0.004609
2162.000000	0.004501
2161.000000	0.004189
2160.000000	0.003745
2159.000000	0.003285
2158.000000	0.002946
2157.000000	0.002802
2156.000000	0.002799
2155.000000	0.002865
2154.000000	0.003011
2153.000000	0.003271
2152.000000	0.003573
2151.000000	0.003785
2150.000000	0.003847
2149.000000	0.003817
2148.000000	0.003782
2147.000000	0.003794
2146.000000	0.003882
2145.000000	0.004049
2144.000000	0.004240
2143.000000	0.004375
2142.000000	0.004431
2141.000000	0.004455
2140.000000	0.004489
2139.000000	0.004516
2138.000000	0.004508
2137.000000	0.004474
2136.000000	0.004445
2135.000000	0.004421
2134.000000	0.004372
2133.000000	0.004288
2132.000000	0.004208
2131.000000	0.004194
2130.000000	0.004262
2129.000000	0.004363
2128.000000	0.004438
2127.000000	0.004491
2126.000000	0.004577
2125.000000	0.004716
2124.000000	0.004843
2123.000000	0.004884
2122.000000	0.004837
2121.000000	0.004765
2120.000000	0.004719
2119.000000	0.004710
2118.000000	0.004743
2117.000000	0.004814
2116.000000	0.004886
2115.000000	0.004903
2114.000000	0.004848
2113.000000	0.004773
2112.000000	0.004744
2111.000000	0.004775
2110.000000	0.004825
2109.000000	0.004850
2108.000000	0.004845
2107.000000	0.004847
2106.000000	0.004883
2105.000000	0.004930
2104.000000	0.004929
2103.000000	0.004858
2102.000000	0.004770
2101.000000	0.004742
2100.000000	0.004792
2099.000000	0.004870
2098.000000	0.004914
2097.000000	0.004905
2096.000000	0.004863
2095.000000	0.004821
2094.000000	0.004803
2093.000000	0.004811
2092.000000	0.004826
2091.000000	0.004835
2090.000000	0.004846
2089.000000	0.004865
2088.000000	0.004880
2087.000000	0.004878
2086.000000	0.004874
2085.000000	0.004890
2084.000000	0.004919
2083.000000	0.004934
2082.000000	0.004920
2081.000000	0.004878
2080.000000	0.004813
2079.000000	0.004744
2078.000000	0.004690
2077.000000	0.004647
2076.000000	0.004588
2075.000000	0.004502
2074.000000	0.004418
2073.000000	0.004366
2072.000000	0.004341
2071.000000	0.004334
2070.000000	0.004359
2069.000000	0.004416
2068.000000	0.004461
2067.000000	0.004473
2066.000000	0.004505
2065.000000	0.004623
2064.000000	0.004784
2063.000000	0.004858
2062.000000	0.004765
2061.000000	0.004549
2060.000000	0.004325
2059.000000	0.004199
2058.000000	0.004208
2057.000000	0.004302
2056.000000	0.004376
2055.000000	0.004386
2054.000000	0.004388
2053.000000	0.004440
2052.000000	0.004494
2051.000000	0.004464
2050.000000	0.004355
2049.000000	0.004265
2048.000000	0.004237
2047.000000	0.004224
2046.000000	0.004193
2045.000000	0.004168
2044.000000	0.004155
2043.000000	0.004133
2042.000000	0.004111
2041.000000	0.004096
2040.000000	0.004012
2039.000000	0.003777
2038.000000	0.003472
2037.000000	0.003294
2036.000000	0.003303
2035.000000	0.003329
2034.000000	0.003209
2033.000000	0.002994
2032.000000	0.002850
2031.000000	0.002851
2030.000000	0.002952
2029.000000	0.003086
2028.000000	0.003211
2027.000000	0.003319
2026.000000	0.003425
2025.000000	0.003535
2024.000000	0.003618
2023.000000	0.003654
2022.000000	0.003689
2021.000000	0.003771
2020.000000	0.003861
2019.000000	0.003883
2018.000000	0.003827
2017.000000	0.003741
2016.000000	0.003655
2015.000000	0.003593
2014.000000	0.003598
2013.000000	0.003655
2012.000000	0.003625
2011.000000	0.003395
2010.000000	0.003053
2009.000000	0.002808
2008.000000	0.002731
2007.000000	0.002718
2006.000000	0.002697
2005.000000	0.002711
2004.000000	0.002792
2003.000000	0.002899
2002.000000	0.003021
2001.000000	0.003195
2000.000000	0.003398
1999.000000	0.003533
1998.000000	0.003532
1997.000000	0.003438
1996.000000	0.003326
1995.000000	0.003221
1994.000000	0.003121
1993.000000	0.003050
1992.000000	0.003041
1991.000000	0.003086
1990.000000	0.003161
1989.000000	0.003253
1988.000000	0.003353
1987.000000	0.003446
1986.000000	0.003511
1985.000000	0.003524
1984.000000	0.003497
1983.000000	0.003500
1982.000000	0.003610
1981.000000	0.003784
1980.000000	0.003839
1979.000000	0.003635
1978.000000	0.003248
1977.000000	0.002910
1976.000000	0.002764
1975.000000	0.002803
1974.000000	0.002967
1973.000000	0.003183
1972.000000	0.003354
1971.000000	0.003447
1970.000000	0.003539
1969.000000	0.003681
1968.000000	0.003796
1967.000000	0.003787
1966.000000	0.003693
1965.000000	0.003613
1964.000000	0.003542
1963.000000	0.003415
1962.000000	0.003250
1961.000000	0.003139
1960.000000	0.003114
1959.000000	0.003144
1958.000000	0.003232
1957.000000	0.003386
1956.000000	0.003536
1955.000000	0.003576
1954.000000	0.003488
1953.000000	0.003338
1952.000000	0.003185
1951.000000	0.003067
1950.000000	0.003045
1949.000000	0.003156
1948.000000	0.003326
1947.000000	0.003442
1946.000000	0.003482
1945.000000	0.003507
1944.000000	0.003533
1943.000000	0.003512
1942.000000	0.003438
1941.000000	0.003373
1940.000000	0.003368
1939.000000	0.003422
1938.000000	0.003528
1937.000000	0.003661
1936.000000	0.003756
1935.000000	0.003768
1934.000000	0.003740
1933.000000	0.003746
1932.000000	0.003775
1931.000000	0.003746
1930.000000	0.003641
1929.000000	0.003526
1928.000000	0.003459
1927.000000	0.003430
1926.000000	0.003416
1925.000000	0.003414
1924.000000	0.003403
1923.000000	0.003367
1922.000000	0.003354
1921.000000	0.003426
1920.000000	0.003548
1919.000000	0.003600
1918.000000	0.003530
1917.000000	0.003432
1916.000000	0.003421
1915.000000	0.003508
1914.000000	0.003626
1913.000000	0.003718
1912.000000	0.003761
1911.000000	0.003759
1910.000000	0.003737
1909.000000	0.003724
1908.000000	0.003723
1907.000000	0.003708
1906.000000	0.003666
1905.000000	0.003620
1904.000000	0.003593
1903.000000	0.003595
1902.000000	0.003634
1901.000000	0.003700
1900.000000	0.003754
1899.000000	0.003756
1898.000000	0.003713
1897.000000	0.003668
1896.000000	0.003639
1895.000000	0.003606
1894.000000	0.003568
1893.000000	0.003547
1892.000000	0.003540
1891.000000	0.003520
1890.000000	0.003487
1889.000000	0.003479
1888.000000	0.003515
1887.000000	0.003573
1886.000000	0.003623
1885.000000	0.003655
1884.000000	0.003663
1883.000000	0.003636
1882.000000	0.003583
1881.000000	0.003527
1880.000000	0.003482
1879.000000	0.003444
1878.000000	0.003413
1877.000000	0.003395
1876.000000	0.003378
1875.000000	0.003332
1874.000000	0.003256
1873.000000	0.003178
1872.000000	0.003107
1871.000000	0.003025
1870.000000	0.002947
1869.000000	0.002933
1868.000000	0.003009
1867.000000	0.003138
1866.000000	0.003268
1865.000000	0.003362
1864.000000	0.003393
1863.000000	0.003365
1862.000000	0.003320
1861.000000	0.003308
1860.000000	0.003334
1859.000000	0.003361
1858.000000	0.003355
1857.000000	0.003319
1856.000000	0.003270
1855.000000	0.003233
1854.000000	0.003237
1853.000000	0.003287
1852.000000	0.003350
1851.000000	0.003388
1850.000000	0.003371
1849.000000	0.003308
1848.000000	0.003242
1847.000000	0.003217
1846.000000	0.003242
1845.000000	0.003289
1844.000000	0.003304
1843.000000	0.003250
1842.000000	0.003176
1841.000000	0.003154
1840.000000	0.003178
1839.000000	0.003197
1838.000000	0.003204
1837.000000	0.003231
1836.000000	0.003265
1835.000000	0.003262
1834.000000	0.003210
1833.000000	0.003123
1832.000000	0.003003
1831.000000	0.002854
1830.000000	0.002719
1829.000000	0.002661
1828.000000	0.002700
1827.000000	0.002802
1826.000000	0.002916
1825.000000	0.003018
1824.000000	0.003099
1823.000000	0.003153
1822.000000	0.003188
1821.000000	0.003212
1820.000000	0.003226
1819.000000	0.003221
1818.000000	0.003202
1817.000000	0.003185
1816.000000	0.003159
1815.000000	0.003110
1814.000000	0.003045
1813.000000	0.002993
1812.000000	0.002973
1811.000000	0.002979
1810.000000	0.003012
1809.000000	0.003072
1808.000000	0.003135
1807.000000	0.003167
1806.000000	0.003167
1805.000000	0.003161
1804.000000	0.003147
1803.000000	0.003097
1802.000000	0.002995
1801.000000	0.002880
1800.000000	0.002820
1799.000000	0.002833
1798.000000	0.002880
1797.000000	0.002910
1796.000000	0.002900
1795.000000	0.002861
1794.000000	0.002813
1793.000000	0.002794
1792.000000	0.002823
1791.000000	0.002858
1790.000000	0.002885
1789.000000	0.002937
1788.000000	0.003020
1787.000000	0.003095
1786.000000	0.003112
1785.000000	0.003052
1784.000000	0.002933
1783.000000	0.002827
1782.000000	0.002794
1781.000000	0.002833
1780.000000	0.002900
1779.000000	0.002940
1778.000000	0.002947
1777.000000	0.002940
1776.000000	0.002945
1775.000000	0.002946
1774.000000	0.002882
1773.000000	0.002763
1772.000000	0.002701
1771.000000	0.002776
1770.000000	0.003002
1769.000000	0.003299
1768.000000	0.003494
1767.000000	0.003501
1766.000000	0.003419
1765.000000	0.003397
1764.000000	0.003454
1763.000000	0.003523
1762.000000	0.003583
1761.000000	0.003677
1760.000000	0.003841
1759.000000	0.004079
1758.000000	0.004388
1757.000000	0.004742
1756.000000	0.005118
1755.000000	0.005532
1754.000000	0.006037
1753.000000	0.006610
1752.000000	0.007134
1751.000000	0.007513
1750.000000	0.007811
1749.000000	0.008185
1748.000000	0.008652
1747.000000	0.009105
1746.000000	0.009470
1745.000000	0.009761
1744.000000	0.009974
1743.000000	0.010059
1742.000000	0.010047
1741.000000	0.010027
1740.000000	0.009997
1739.000000	0.009890
1738.000000	0.009799
1737.000000	0.009868
1736.000000	0.009980
1735.000000	0.009834
1734.000000	0.009368
1733.000000	0.008814
1732.000000	0.008393
1731.000000	0.008160
1730.000000	0.008039
1729.000000	0.007939
1728.000000	0.007824
1727.000000	0.007706
1726.000000	0.007597
1725.000000	0.007531
1724.000000	0.007493
1723.000000	0.007395
1722.000000	0.007242
1721.000000	0.007154
1720.000000	0.007201
1719.000000	0.007306
1718.000000	0.007387
1717.000000	0.007422
1716.000000	0.007437
1715.000000	0.007496
1714.000000	0.007634
1713.000000	0.007840
1712.000000	0.008060
1711.000000	0.008239
1710.000000	0.008353
1709.000000	0.008414
1708.000000	0.008484
1707.000000	0.008635
1706.000000	0.008903
1705.000000	0.009265
1704.000000	0.009700
1703.000000	0.010228
1702.000000	0.010763
1701.000000	0.011314
1700.000000	0.011996
1699.000000	0.012715
1698.000000	0.013550
1697.000000	0.014606
1696.000000	0.015651
1695.000000	0.016380
1694.000000	0.016823
1693.000000	0.017299
1692.000000	0.017960
1691.000000	0.018706
1690.000000	0.019453
1689.000000	0.020216
1688.000000	0.021032
1687.000000	0.021844
1686.000000	0.022512
1685.000000	0.023171
1684.000000	0.024042
1683.000000	0.024933
1682.000000	0.025812
1681.000000	0.026807
1680.000000	0.027817
1679.000000	0.028702
1678.000000	0.029506
1677.000000	0.030385
1676.000000	0.031410
1675.000000	0.032462
1674.000000	0.033352
1673.000000	0.034125
1672.000000	0.034936
1671.000000	0.035854
1670.000000	0.036958
1669.000000	0.038239
1668.000000	0.039485
1667.000000	0.040514
1666.000000	0.041350
1665.000000	0.042134
1664.000000	0.042971
1663.000000	0.043892
1662.000000	0.044849
1661.000000	0.045788
1660.000000	0.046686
1659.000000	0.047456
1658.000000	0.048062
1657.000000	0.048641
1656.000000	0.049342
1655.000000	0.050006
1654.000000	0.050586
1653.000000	0.051329
1652.000000	0.051858
1651.000000	0.051935
1650.000000	0.051989
1649.000000	0.052278
1648.000000	0.052768
1647.000000	0.053361
1646.000000	0.053931
1645.000000	0.054397
1644.000000	0.054767
1643.000000	0.055098
1642.000000	0.055383
1641.000000	0.055556
1640.000000	0.055631
1639.000000	0.055674
1638.000000	0.055699
1637.000000	0.055665
1636.000000	0.055644
1635.000000	0.055691
1634.000000	0.055779
1633.000000	0.055910
1632.000000	0.056036
1631.000000	0.056022
1630.000000	0.055782
1629.000000	0.055370
1628.000000	0.054904
1627.000000	0.054454
1626.000000	0.054004
1625.000000	0.053488
1624.000000	0.052851
1623.000000	0.052110
1622.000000	0.051358
1621.000000	0.050705
1620.000000	0.050182
1619.000000	0.049649
1618.000000	0.048850
1617.000000	0.047709
1616.000000	0.046443
1615.000000	0.045314
1614.000000	0.044398
1613.000000	0.043588
1612.000000	0.042708
1611.000000	0.041706
1610.000000	0.040676
1609.000000	0.039709
1608.000000	0.038816
1607.000000	0.037990
1606.000000	0.037230
1605.000000	0.036509
1604.000000	0.035818
1603.000000	0.035179
1602.000000	0.034618
1601.000000	0.034121
1600.000000	0.033660
1599.000000	0.033238
1598.000000	0.032870
1597.000000	0.032557
1596.000000	0.032287
1595.000000	0.032064
1594.000000	0.031895
1593.000000	0.031757
1592.000000	0.031621
1591.000000	0.031481
1590.000000	0.031348
1589.000000	0.031214
1588.000000	0.031080
1587.000000	0.030969
1586.000000	0.030917
1585.000000	0.030912
1584.000000	0.030942
1583.000000	0.031037
1582.000000	0.031190
1581.000000	0.031361
1580.000000	0.031570
1579.000000	0.031890
1578.000000	0.032301
1577.000000	0.032721
1576.000000	0.033074
1575.000000	0.033297
1574.000000	0.033458
1573.000000	0.033682
1572.000000	0.033951
1571.000000	0.034220
1570.000000	0.034612
1569.000000	0.035183
1568.000000	0.035809
1567.000000	0.036410
1566.000000	0.037009
1565.000000	0.037613
1564.000000	0.038216
1563.000000	0.038849
1562.000000	0.039438
1561.000000	0.039694
1560.000000	0.039654
1559.000000	0.040044
1558.000000	0.040811
1557.000000	0.041595
1556.000000	0.042391
1555.000000	0.043161
1554.000000	0.043780
1553.000000	0.044239
1552.000000	0.044664
1551.000000	0.045112
1550.000000	0.045526
1549.000000	0.045866
1548.000000	0.046162
1547.000000	0.046442
1546.000000	0.046661
1545.000000	0.046766
1544.000000	0.046778
1543.000000	0.046765
1542.000000	0.046796
1541.000000	0.046975
1540.000000	0.047334
1539.000000	0.047642
1538.000000	0.047723
1537.000000	0.047696
1536.000000	0.047684
1535.000000	0.047627
1534.000000	0.047490
1533.000000	0.047366
1532.000000	0.047323
1531.000000	0.047304
1530.000000	0.047229
1529.000000	0.047085
1528.000000	0.046893
1527.000000	0.046642
1526.000000	0.046306
1525.000000	0.045936
1524.000000	0.045639
1523.000000	0.045412
1522.000000	0.045154
1521.000000	0.044790
1520.000000	0.044367
1519.000000	0.044028
1518.000000	0.043856
1517.000000	0.043790
1516.000000	0.043702
1515.000000	0.043544
1514.000000	0.043306
1513.000000	0.042916
1512.000000	0.042315
1511.000000	0.041592
1510.000000	0.040907
1509.000000	0.040284
1508.000000	0.039621
1507.000000	0.038982
1506.000000	0.038459
1505.000000	0.037967
1504.000000	0.037427
1503.000000	0.036863
1502.000000	0.036204
1501.000000	0.035354
1500.000000	0.034356
1499.000000	0.033355
1498.000000	0.032417
1497.000000	0.031506
1496.000000	0.030564
1495.000000	0.029604
1494.000000	0.028720
1493.000000	0.027967
1492.000000	0.027278
1491.000000	0.026562
1490.000000	0.025859
1489.000000	0.025289
1488.000000	0.024910
1487.000000	0.024656
1486.000000	0.024453
1485.000000	0.024273
1484.000000	0.024130
1483.000000	0.024048
1482.000000	0.024039
1481.000000	0.024120
1480.000000	0.024270
1479.000000	0.024448
1478.000000	0.024623
1477.000000	0.024816
1476.000000	0.025052
1475.000000	0.025333
1474.000000	0.025685
1473.000000	0.026181
1472.000000	0.026802
1471.000000	0.027413
1470.000000	0.027987
1469.000000	0.028569
1468.000000	0.029122
1467.000000	0.029582
1466.000000	0.029966
1465.000000	0.030360
1464.000000	0.030781
1463.000000	0.031137
1462.000000	0.031388
1461.000000	0.031606
1460.000000	0.031895
1459.000000	0.032323
1458.000000	0.032948
1457.000000	0.033717
1456.000000	0.034283
1455.000000	0.034521
1454.000000	0.034677
1453.000000	0.034889
1452.000000	0.035073
1451.000000	0.035142
1450.000000	0.035130
1449.000000	0.035109
1448.000000	0.035077
1447.000000	0.035035
1446.000000	0.035006
1445.000000	0.034985
1444.000000	0.034953
1443.000000	0.034864
1442.000000	0.034702
1441.000000	0.034512
1440.000000	0.034363
1439.000000	0.034247
1438.000000	0.034059
1437.000000	0.033732
1436.000000	0.033292
1435.000000	0.032828
1434.000000	0.032426
1433.000000	0.032070
1432.000000	0.031674
1431.000000	0.031220
1430.000000	0.030789
1429.000000	0.030455
1428.000000	0.030205
1427.000000	0.030017
1426.000000	0.029882
1425.000000	0.029780
1424.000000	0.029711
1423.000000	0.029698
1422.000000	0.029760
1421.000000	0.029839
1420.000000	0.029866
1419.000000	0.029856
1418.000000	0.029849
1417.000000	0.029878
1416.000000	0.029954
1415.000000	0.030041
1414.000000	0.030111
1413.000000	0.030184
1412.000000	0.030282
1411.000000	0.030388
1410.000000	0.030488
1409.000000	0.030605
1408.000000	0.030751
1407.000000	0.030912
1406.000000	0.031079
1405.000000	0.031238
1404.000000	0.031357
1403.000000	0.031411
1402.000000	0.031417
1401.000000	0.031400
1400.000000	0.031351
1399.000000	0.031257
1398.000000	0.031145
1397.000000	0.031065
1396.000000	0.031009
1395.000000	0.030925
1394.000000	0.030799
1393.000000	0.030664
1392.000000	0.030555
1391.000000	0.030478
1390.000000	0.030418
1389.000000	0.030358
1388.000000	0.030277
1387.000000	0.030154
1386.000000	0.029993
1385.000000	0.029832
1384.000000	0.029689
1383.000000	0.029541
1382.000000	0.029377
1381.000000	0.029222
1380.000000	0.029079
1379.000000	0.028908
1378.000000	0.028680
1377.000000	0.028413
1376.000000	0.028137
1375.000000	0.027866
1374.000000	0.027601
1373.000000	0.027354
1372.000000	0.027132
1371.000000	0.026931
1370.000000	0.026741
1369.000000	0.026558
1368.000000	0.026379
1367.000000	0.026194
1366.000000	0.025993
1365.000000	0.025769
1364.000000	0.025517
1363.000000	0.025229
1362.000000	0.024902
1361.000000	0.024557
1360.000000	0.024223
1359.000000	0.023926
1358.000000	0.023679
1357.000000	0.023483
1356.000000	0.023327
1355.000000	0.023197
1354.000000	0.023095
1353.000000	0.023037
1352.000000	0.023031
1351.000000	0.023066
1350.000000	0.023126
1349.000000	0.023205
1348.000000	0.023314
1347.000000	0.023452
1346.000000	0.023603
1345.000000	0.023757
1344.000000	0.023919
1343.000000	0.024105
1342.000000	0.024318
1341.000000	0.024542
1340.000000	0.024749
1339.000000	0.024904
1338.000000	0.024983
1337.000000	0.024985
1336.000000	0.024921
1335.000000	0.024811
1334.000000	0.024674
1333.000000	0.024519
1332.000000	0.024335
1331.000000	0.024115
1330.000000	0.023874
1329.000000	0.023643
1328.000000	0.023441
1327.000000	0.023273
1326.000000	0.023141
1325.000000	0.023050
1324.000000	0.023004
1323.000000	0.022997
1322.000000	0.023020
1321.000000	0.023070
1320.000000	0.023144
1319.000000	0.023233
1318.000000	0.023320
1317.000000	0.023393
1316.000000	0.023453
1315.000000	0.023497
1314.000000	0.023520
1313.000000	0.023509
1312.000000	0.023447
1311.000000	0.023329
1310.000000	0.023169
1309.000000	0.022994
1308.000000	0.022821
1307.000000	0.022651
1306.000000	0.022478
1305.000000	0.022299
1304.000000	0.022114
1303.000000	0.021922
1302.000000	0.021725
1301.000000	0.021536
1300.000000	0.021370
1299.000000	0.021233
1298.000000	0.021129
1297.000000	0.021061
1296.000000	0.021038
1295.000000	0.021070
1294.000000	0.021158
1293.000000	0.021296
1292.000000	0.021469
1291.000000	0.021663
1290.000000	0.021869
1289.000000	0.022086
1288.000000	0.022306
1287.000000	0.022525
1286.000000	0.022753
1285.000000	0.023014
1284.000000	0.023318
1283.000000	0.023646
1282.000000	0.023965
1281.000000	0.024254
1280.000000	0.024501
1279.000000	0.024692
1278.000000	0.024824
1277.000000	0.024905
1276.000000	0.024955
1275.000000	0.024987
1274.000000	0.025008
1273.000000	0.025027
1272.000000	0.025056
1271.000000	0.025101
1270.000000	0.025162
1269.000000	0.025231
1268.000000	0.025291
1267.000000	0.025325
1266.000000	0.025330
1265.000000	0.025327
1264.000000	0.025347
1263.000000	0.025415
1262.000000	0.025544
1261.000000	0.025737
1260.000000	0.025985
1259.000000	0.026281
1258.000000	0.026623
1257.000000	0.027005
1256.000000	0.027400
1255.000000	0.027780
1254.000000	0.028139
1253.000000	0.028496
1252.000000	0.028857
1251.000000	0.029214
1250.000000	0.029574
1249.000000	0.029965
1248.000000	0.030396
1247.000000	0.030844
1246.000000	0.031287
1245.000000	0.031735
1244.000000	0.032205
1243.000000	0.032695
1242.000000	0.033187
1241.000000	0.033668
1240.000000	0.034123
1239.000000	0.034536
1238.000000	0.034898
1237.000000	0.035212
1236.000000	0.035475
1235.000000	0.035664
1234.000000	0.035761
1233.000000	0.035772
1232.000000	0.035704
1231.000000	0.035548
1230.000000	0.035296
1229.000000	0.034952
1228.000000	0.034523
1227.000000	0.034004
1226.000000	0.033400
1225.000000	0.032731
1224.000000	0.032016
1223.000000	0.031266
1222.000000	0.030481
1221.000000	0.029674
1220.000000	0.028874
1219.000000	0.028131
1218.000000	0.027485
1217.000000	0.026947
1216.000000	0.026493
1215.000000	0.026097
1214.000000	0.025760
1213.000000	0.025494
1212.000000	0.025290
1211.000000	0.025127
1210.000000	0.024995
1209.000000	0.024896
1208.000000	0.024828
1207.000000	0.024767
1206.000000	0.024690
1205.000000	0.024592
1204.000000	0.024473
1203.000000	0.024326
1202.000000	0.024142
1201.000000	0.023919
1200.000000	0.023657
1199.000000	0.023353
1198.000000	0.023006
1197.000000	0.022623
1196.000000	0.022219
1195.000000	0.021811
1194.000000	0.021415
1193.000000	0.021038
1192.000000	0.020686
1191.000000	0.020371
1190.000000	0.020107
1189.000000	0.019898
1188.000000	0.019730
1187.000000	0.019590
1186.000000	0.019494
1185.000000	0.019476
1184.000000	0.019554
1183.000000	0.019708
1182.000000	0.019902
1181.000000	0.020114
1180.000000	0.020338
1179.000000	0.020573
1178.000000	0.020812
1177.000000	0.021051
1176.000000	0.021285
1175.000000	0.021500
1174.000000	0.021693
1173.000000	0.021875
1172.000000	0.022059
1171.000000	0.022247
1170.000000	0.022429
1169.000000	0.022596
1168.000000	0.022750
1167.000000	0.022891
1166.000000	0.023020
1165.000000	0.023135
1164.000000	0.023234
1163.000000	0.023314
1162.000000	0.023370
1161.000000	0.023394
1160.000000	0.023371
1159.000000	0.023293
1158.000000	0.023166
1157.000000	0.023004
1156.000000	0.022805
1155.000000	0.022562
1154.000000	0.022285
1153.000000	0.022004
1152.000000	0.021746
1151.000000	0.021509
1150.000000	0.021272
1149.000000	0.021014
1148.000000	0.020732
1147.000000	0.020436
1146.000000	0.020144
1145.000000	0.019861
1144.000000	0.019578
1143.000000	0.019287
1142.000000	0.018992
1141.000000	0.018694
1140.000000	0.018387
1139.000000	0.018060
1138.000000	0.017719
1137.000000	0.017382
1136.000000	0.017063
1135.000000	0.016763
1134.000000	0.016494
1133.000000	0.016274
1132.000000	0.016109
1131.000000	0.015983
1130.000000	0.015888
1129.000000	0.015833
1128.000000	0.015832
1127.000000	0.015887
1126.000000	0.015975
1125.000000	0.016074
1124.000000	0.016172
1123.000000	0.016275
1122.000000	0.016406
1121.000000	0.016578
1120.000000	0.016765
1119.000000	0.016918
1118.000000	0.017015
1117.000000	0.017086
1116.000000	0.017176
1115.000000	0.017290
1114.000000	0.017405
1113.000000	0.017499
1112.000000	0.017576
1111.000000	0.017646
1110.000000	0.017709
1109.000000	0.017771
1108.000000	0.017840
1107.000000	0.017935
1106.000000	0.018070
1105.000000	0.018250
1104.000000	0.018461
1103.000000	0.018674
1102.000000	0.018866
1101.000000	0.019036
1100.000000	0.019189
1099.000000	0.019327
1098.000000	0.019453
1097.000000	0.019578
1096.000000	0.019721
1095.000000	0.019891
1094.000000	0.020079
1093.000000	0.020275
1092.000000	0.020471
1091.000000	0.020674
1090.000000	0.020903
1089.000000	0.021176
1088.000000	0.021506
1087.000000	0.021893
1086.000000	0.022331
1085.000000	0.022795
1084.000000	0.023222
1083.000000	0.023538
1082.000000	0.023693
1081.000000	0.023681
1080.000000	0.023516
1079.000000	0.023213
1078.000000	0.022812
1077.000000	0.022370
1076.000000	0.021932
1075.000000	0.021507
1074.000000	0.021097
1073.000000	0.020723
1072.000000	0.020413
1071.000000	0.020184
1070.000000	0.020034
1069.000000	0.019961
1068.000000	0.019957
1067.000000	0.020003
1066.000000	0.020074
1065.000000	0.020165
1064.000000	0.020281
1063.000000	0.020422
1062.000000	0.020566
1061.000000	0.020689
1060.000000	0.020780
1059.000000	0.020848
1058.000000	0.020908
1057.000000	0.020970
1056.000000	0.021029
1055.000000	0.021077
1054.000000	0.021101
1053.000000	0.021090
1052.000000	0.021036
1051.000000	0.020946
1050.000000	0.020855
1049.000000	0.020797
1048.000000	0.020774
1047.000000	0.020759
1046.000000	0.020729
1045.000000	0.020680
1044.000000	0.020625
1043.000000	0.020583
1042.000000	0.020568
1041.000000	0.020594
1040.000000	0.020662
1039.000000	0.020770
1038.000000	0.020928
1037.000000	0.021146
1036.000000	0.021417
1035.000000	0.021709
1034.000000	0.021989
1033.000000	0.022242
1032.000000	0.022464
1031.000000	0.022640
1030.000000	0.022760
1029.000000	0.022824
1028.000000	0.022845
1027.000000	0.022828
1026.000000	0.022774
1025.000000	0.022693
1024.000000	0.022600
1023.000000	0.022513
1022.000000	0.022450
1021.000000	0.022424
1020.000000	0.022450
1019.000000	0.022527
1018.000000	0.022626
1017.000000	0.022687
1016.000000	0.022646
1015.000000	0.022472
1014.000000	0.022171
1013.000000	0.021760
1012.000000	0.021255
1011.000000	0.020682
1010.000000	0.020092
1009.000000	0.019523
1008.000000	0.018976
1007.000000	0.018430
1006.000000	0.017887
1005.000000	0.017376
1004.000000	0.016922
1003.000000	0.016514
1002.000000	0.016122
1001.000000	0.015717
1000.000000	0.015294
999.000000	0.014876
998.000000	0.014501
997.000000	0.014181
996.000000	0.013891
995.000000	0.013601
994.000000	0.013307
993.000000	0.013021
992.000000	0.012743
991.000000	0.012461
990.000000	0.012177
989.000000	0.011911
988.000000	0.011679
987.000000	0.011474
986.000000	0.011279
985.000000	0.011089
984.000000	0.010898
983.000000	0.010710
982.000000	0.010532
981.000000	0.010378
980.000000	0.010251
979.000000	0.010141
978.000000	0.010041
977.000000	0.009948
976.000000	0.009856
975.000000	0.009754
974.000000	0.009648
973.000000	0.009551
972.000000	0.009461
971.000000	0.009359
970.000000	0.009231
969.000000	0.009085
968.000000	0.008936
967.000000	0.008792
966.000000	0.008659
965.000000	0.008543
964.000000	0.008437
963.000000	0.008324
962.000000	0.008201
961.000000	0.008083
960.000000	0.007987
959.000000	0.007904
958.000000	0.007820
957.000000	0.007735
956.000000	0.007662
955.000000	0.007604
954.000000	0.007546
953.000000	0.007469
952.000000	0.007362
951.000000	0.007229
950.000000	0.007079
949.000000	0.006925
948.000000	0.006770
947.000000	0.006615
946.000000	0.006462
945.000000	0.006317
944.000000	0.006187
943.000000	0.006080
942.000000	0.006020
941.000000	0.006026
940.000000	0.006084
939.000000	0.006144
938.000000	0.006163
937.000000	0.006138
936.000000	0.006080
935.000000	0.005997
934.000000	0.005891
933.000000	0.005779
932.000000	0.005686
931.000000	0.005625
930.000000	0.005588
929.000000	0.005565
928.000000	0.005540
927.000000	0.005480
926.000000	0.005356
925.000000	0.005173
924.000000	0.004971
923.000000	0.004792
922.000000	0.004644
921.000000	0.004512
920.000000	0.004374
919.000000	0.004225
918.000000	0.004074
917.000000	0.003937
916.000000	0.003817
915.000000	0.003700
914.000000	0.003568
913.000000	0.003420
912.000000	0.003275
911.000000	0.003158
910.000000	0.003083
909.000000	0.003046
908.000000	0.003032
907.000000	0.003018
906.000000	0.002997
905.000000	0.002973
904.000000	0.002954
903.000000	0.002932
902.000000	0.002904
901.000000	0.002884
900.000000	0.002887
899.000000	0.002901
898.000000	0.002896
897.000000	0.002866
896.000000	0.002835
895.000000	0.002824
894.000000	0.002826
893.000000	0.002820
892.000000	0.002800
891.000000	0.002779
890.000000	0.002774
889.000000	0.002798
888.000000	0.002849
887.000000	0.002906
886.000000	0.002946
885.000000	0.002964
884.000000	0.002993
883.000000	0.003076
882.000000	0.003232
881.000000	0.003446
880.000000	0.003693
879.000000	0.003949
878.000000	0.004192
877.000000	0.004393
876.000000	0.004515
875.000000	0.004527
874.000000	0.004431
873.000000	0.004255
872.000000	0.004032
871.000000	0.003782
870.000000	0.003520
869.000000	0.003266
868.000000	0.003039
867.000000	0.002859
866.000000	0.002743
865.000000	0.002705
864.000000	0.002742
863.000000	0.002818
862.000000	0.002893
861.000000	0.002957
860.000000	0.003034
859.000000	0.003150
858.000000	0.003301
857.000000	0.003451
856.000000	0.003569
855.000000	0.003651
854.000000	0.003718
853.000000	0.003792
852.000000	0.003881
851.000000	0.003969
850.000000	0.004034
849.000000	0.004064
848.000000	0.004075
847.000000	0.004106
846.000000	0.004190
845.000000	0.004322
844.000000	0.004466
843.000000	0.004590
842.000000	0.004701
841.000000	0.004834
840.000000	0.005017
839.000000	0.005242
838.000000	0.005471
837.000000	0.005654
836.000000	0.005757
835.000000	0.005778
834.000000	0.005748
833.000000	0.005700
832.000000	0.005641
831.000000	0.005554
830.000000	0.005430
829.000000	0.005281
828.000000	0.005130
827.000000	0.004987
826.000000	0.004844
825.000000	0.004679
824.000000	0.004482
823.000000	0.004272
822.000000	0.004088
821.000000	0.003946
820.000000	0.003829
819.000000	0.003719
818.000000	0.003631
817.000000	0.003568
816.000000	0.003500
815.000000	0.003394
814.000000	0.003269
813.000000	0.003171
812.000000	0.003112
811.000000	0.003058
810.000000	0.002989
809.000000	0.002921
808.000000	0.002868
807.000000	0.002828
806.000000	0.002802
805.000000	0.002798
804.000000	0.002801
803.000000	0.002783
802.000000	0.002751
801.000000	0.002746
800.000000	0.002785
799.000000	0.002825
798.000000	0.002828
797.000000	0.002812
796.000000	0.002821
795.000000	0.002868
794.000000	0.002941
793.000000	0.003029
792.000000	0.003119
791.000000	0.003188
790.000000	0.003227
789.000000	0.003258
788.000000	0.003300
787.000000	0.003337
786.000000	0.003344
785.000000	0.003334
784.000000	0.003335
783.000000	0.003359
782.000000	0.003390
781.000000	0.003410
780.000000	0.003410
779.000000	0.003396
778.000000	0.003401
777.000000	0.003465
776.000000	0.003582
775.000000	0.003688
774.000000	0.003720
773.000000	0.003682
772.000000	0.003629
771.000000	0.003600
770.000000	0.003595
769.000000	0.003593
768.000000	0.003586
767.000000	0.003582
766.000000	0.003598
765.000000	0.003648
764.000000	0.003722
763.000000	0.003795
762.000000	0.003861
761.000000	0.003937
760.000000	0.004025
759.000000	0.004102
758.000000	0.004152
757.000000	0.004206
756.000000	0.004303
755.000000	0.004445
754.000000	0.004588
753.000000	0.004697
752.000000	0.004774
751.000000	0.004842
750.000000	0.004924
749.000000	0.005018
748.000000	0.005100
747.000000	0.005147
746.000000	0.005161
745.000000	0.005163
744.000000	0.005163
743.000000	0.005144
742.000000	0.005103
741.000000	0.005070
740.000000	0.005084
739.000000	0.005159
738.000000	0.005275
737.000000	0.005402
736.000000	0.005511
735.000000	0.005588
734.000000	0.005653
733.000000	0.005743
732.000000	0.005883
731.000000	0.006066
730.000000	0.006281
729.000000	0.006529
728.000000	0.006799
727.000000	0.007070
726.000000	0.007325
725.000000	0.007563
724.000000	0.007781
723.000000	0.007965
722.000000	0.008121
721.000000	0.008269
720.000000	0.008408
719.000000	0.008499
718.000000	0.008526
717.000000	0.008524
716.000000	0.008545
715.000000	0.008618
714.000000	0.008738
713.000000	0.008879
712.000000	0.008989
711.000000	0.009022
710.000000	0.008996
709.000000	0.008991
708.000000	0.009068
707.000000	0.009190
706.000000	0.009271
705.000000	0.009279
704.000000	0.009254
703.000000	0.009248
702.000000	0.009283
701.000000	0.009354
700.000000	0.009443
699.000000	0.009518
698.000000	0.009552
697.000000	0.009536
696.000000	0.009484
695.000000	0.009420
694.000000	0.009367
693.000000	0.009336
692.000000	0.009319
691.000000	0.009303
690.000000	0.009293
689.000000	0.009307
688.000000	0.009342
687.000000	0.009376
686.000000	0.009398
685.000000	0.009418
684.000000	0.009447
683.000000	0.009495
682.000000	0.009581
681.000000	0.009708
680.000000	0.009835
679.000000	0.009910
678.000000	0.009939
677.000000	0.009984
676.000000	0.010083
675.000000	0.010200
674.000000	0.010299
673.000000	0.010388
672.000000	0.010465
671.000000	0.010481
670.000000	0.010416
669.000000	0.010335
668.000000	0.010359
667.000000	0.010572
666.000000	0.010802
665.000000	0.010905
664.000000	0.010897
663.000000	0.010823
662.000000	0.010763
661.000000	0.010793
660.000000	0.010918
659.000000	0.011058
658.000000	0.011135
657.000000	0.011141
656.000000	0.011108
655.000000	0.011060
654.000000	0.011034
653.000000	0.011073
652.000000	0.011155
651.000000	0.011206
650.000000	0.011198
649.000000	0.011187
648.000000	0.011211
647.000000	0.011232
646.000000	0.011218
645.000000	0.011200
644.000000	0.011210
643.000000	0.011218
642.000000	0.011178
641.000000	0.011072
640.000000	0.010904
639.000000	0.010697
638.000000	0.010528
637.000000	0.010482
636.000000	0.010548
635.000000	0.010622
634.000000	0.010650
633.000000	0.010682
632.000000	0.010751
631.000000	0.010800
630.000000	0.010779
629.000000	0.010728
628.000000	0.010697
627.000000	0.010666
626.000000	0.010610
625.000000	0.010581
624.000000	0.010631
623.000000	0.010726
622.000000	0.010804
621.000000	0.010868
620.000000	0.010947
619.000000	0.011023
618.000000	0.011056
617.000000	0.011051
616.000000	0.011022
615.000000	0.010941
614.000000	0.010803
613.000000	0.010684
612.000000	0.010661
611.000000	0.010703
610.000000	0.010731
609.000000	0.010727
608.000000	0.010729
607.000000	0.010746
606.000000	0.010760
605.000000	0.010777
604.000000	0.010816
603.000000	0.010862
602.000000	0.010892
601.000000	0.010921
600.000000	0.010977
599.000000	0.011055
598.000000	0.011148
597.000000	0.011266
596.000000	0.011377
595.000000	0.011392
594.000000	0.011265
593.000000	0.011074
592.000000	0.010937
591.000000	0.010897
590.000000	0.010933
589.000000	0.011027
588.000000	0.011151
587.000000	0.011243
586.000000	0.011278
585.000000	0.011310
584.000000	0.011364
583.000000	0.011368
582.000000	0.011265
581.000000	0.011151
580.000000	0.011165
579.000000	0.011306
578.000000	0.011444
577.000000	0.011503
576.000000	0.011507
575.000000	0.011511
574.000000	0.011559
573.000000	0.011688
572.000000	0.011887
571.000000	0.012069
570.000000	0.012153
569.000000	0.012165
568.000000	0.012189
567.000000	0.012259
566.000000	0.012373
565.000000	0.012556
564.000000	0.012808
563.000000	0.013033
562.000000	0.013133
561.000000	0.013135
560.000000	0.013145
559.000000	0.013220
558.000000	0.013365
557.000000	0.013575
556.000000	0.013804
555.000000	0.013926
554.000000	0.013836
553.000000	0.013561
552.000000	0.013193
551.000000	0.012790
550.000000	0.012406
549.000000	0.012138
548.000000	0.012047
547.000000	0.012088
546.000000	0.012165
545.000000	0.012208
544.000000	0.012155
543.000000	0.011965
542.000000	0.011714
541.000000	0.011578
540.000000	0.011611
539.000000	0.011660
538.000000	0.011591
537.000000	0.011478
536.000000	0.011469
535.000000	0.011557
534.000000	0.011655
533.000000	0.011774
532.000000	0.011995
531.000000	0.012290
530.000000	0.012543
529.000000	0.012688
528.000000	0.012738
527.000000	0.012704
526.000000	0.012606
525.000000	0.012507
524.000000	0.012419
523.000000	0.012268
522.000000	0.012032
521.000000	0.011794
520.000000	0.011595
519.000000	0.011323
518.000000	0.010891
517.000000	0.010416
516.000000	0.010071
515.000000	0.009876
514.000000	0.009744
513.000000	0.009626
512.000000	0.009477
511.000000	0.009217
510.000000	0.008852
509.000000	0.008554
508.000000	0.008474
507.000000	0.008539
506.000000	0.008570
505.000000	0.008521
504.000000	0.008456
503.000000	0.008387
502.000000	0.008303
501.000000	0.008261
500.000000	0.008287
499.000000	0.008289
498.000000	0.008184
497.000000	0.008027
496.000000	0.007891
495.000000	0.007731
494.000000	0.007490
493.000000	0.007263
492.000000	0.007175
491.000000	0.007181
490.000000	0.007188
489.000000	0.007243
488.000000	0.007394
487.000000	0.007484
486.000000	0.007320
485.000000	0.006978
484.000000	0.006699
483.000000	0.006494
482.000000	0.006177
481.000000	0.005777
480.000000	0.005581
479.000000	0.005716
478.000000	0.005944
477.000000	0.005933
476.000000	0.005592
475.000000	0.005101
474.000000	0.004741
473.000000	0.004725
472.000000	0.005006
471.000000	0.005289
470.000000	0.005365
469.000000	0.005316
468.000000	0.005267
467.000000	0.005158
466.000000	0.004906
465.000000	0.004617
464.000000	0.004405
463.000000	0.004132
462.000000	0.003594
461.000000	0.002893
460.000000	0.002346
459.000000	0.002126
458.000000	0.002226
457.000000	0.002593
456.000000	0.003084
455.000000	0.003412
454.000000	0.003358
453.000000	0.002995
452.000000	0.002589
451.000000	0.002277
450.000000	0.002050
