PE IR       SUBTECH     SPECTRUM    ASCII       PEDS        4.00        
   -1
3C-N10-F026_1.ASC
22/02/16
15:42:25.00
22/02/16
15:56:00.00
uco
Sample 026 By uco Date Wednesday, February 16 2022
450.000000
#HDR
-1
-1
#GR
cm-1
A
1.0
0.0
4000.000000
-1.000000
3551
8
0.056777
0.004964
#DATA
4000.000000	0.005338
3999.000000	0.005341
3998.000000	0.005336
3997.000000	0.005330
3996.000000	0.005328
3995.000000	0.005331
3994.000000	0.005338
3993.000000	0.005347
3992.000000	0.005354
3991.000000	0.005355
3990.000000	0.005352
3989.000000	0.005345
3988.000000	0.005340
3987.000000	0.005342
3986.000000	0.005353
3985.000000	0.005368
3984.000000	0.005382
3983.000000	0.005392
3982.000000	0.005396
3981.000000	0.005396
3980.000000	0.005389
3979.000000	0.005374
3978.000000	0.005351
3977.000000	0.005327
3976.000000	0.005313
3975.000000	0.005315
3974.000000	0.005335
3973.000000	0.005366
3972.000000	0.005399
3971.000000	0.005427
3970.000000	0.005443
3969.000000	0.005448
3968.000000	0.005440
3967.000000	0.005421
3966.000000	0.005397
3965.000000	0.005382
3964.000000	0.005390
3963.000000	0.005422
3962.000000	0.005465
3961.000000	0.005497
3960.000000	0.005508
3959.000000	0.005503
3958.000000	0.005494
3957.000000	0.005489
3956.000000	0.005488
3955.000000	0.005490
3954.000000	0.005494
3953.000000	0.005502
3952.000000	0.005511
3951.000000	0.005515
3950.000000	0.005505
3949.000000	0.005485
3948.000000	0.005460
3947.000000	0.005441
3946.000000	0.005434
3945.000000	0.005439
3944.000000	0.005452
3943.000000	0.005468
3942.000000	0.005484
3941.000000	0.005493
3940.000000	0.005490
3939.000000	0.005475
3938.000000	0.005457
3937.000000	0.005446
3936.000000	0.005448
3935.000000	0.005464
3934.000000	0.005486
3933.000000	0.005504
3932.000000	0.005508
3931.000000	0.005494
3930.000000	0.005467
3929.000000	0.005438
3928.000000	0.005421
3927.000000	0.005423
3926.000000	0.005442
3925.000000	0.005473
3924.000000	0.005509
3923.000000	0.005536
3922.000000	0.005547
3921.000000	0.005542
3920.000000	0.005531
3919.000000	0.005520
3918.000000	0.005506
3917.000000	0.005483
3916.000000	0.005457
3915.000000	0.005435
3914.000000	0.005423
3913.000000	0.005419
3912.000000	0.005419
3911.000000	0.005418
3910.000000	0.005421
3909.000000	0.005434
3908.000000	0.005463
3907.000000	0.005506
3906.000000	0.005546
3905.000000	0.005572
3904.000000	0.005585
3903.000000	0.005598
3902.000000	0.005612
3901.000000	0.005618
3900.000000	0.005611
3899.000000	0.005598
3898.000000	0.005586
3897.000000	0.005577
3896.000000	0.005571
3895.000000	0.005573
3894.000000	0.005579
3893.000000	0.005580
3892.000000	0.005565
3891.000000	0.005546
3890.000000	0.005535
3889.000000	0.005530
3888.000000	0.005508
3887.000000	0.005454
3886.000000	0.005395
3885.000000	0.005376
3884.000000	0.005420
3883.000000	0.005502
3882.000000	0.005576
3881.000000	0.005613
3880.000000	0.005610
3879.000000	0.005587
3878.000000	0.005562
3877.000000	0.005534
3876.000000	0.005503
3875.000000	0.005474
3874.000000	0.005465
3873.000000	0.005482
3872.000000	0.005504
3871.000000	0.005511
3870.000000	0.005515
3869.000000	0.005540
3868.000000	0.005580
3867.000000	0.005602
3866.000000	0.005587
3865.000000	0.005558
3864.000000	0.005549
3863.000000	0.005564
3862.000000	0.005585
3861.000000	0.005602
3860.000000	0.005620
3859.000000	0.005649
3858.000000	0.005690
3857.000000	0.005728
3856.000000	0.005736
3855.000000	0.005694
3854.000000	0.005616
3853.000000	0.005545
3852.000000	0.005508
3851.000000	0.005491
3850.000000	0.005477
3849.000000	0.005465
3848.000000	0.005465
3847.000000	0.005478
3846.000000	0.005496
3845.000000	0.005513
3844.000000	0.005526
3843.000000	0.005535
3842.000000	0.005540
3841.000000	0.005532
3840.000000	0.005512
3839.000000	0.005495
3838.000000	0.005497
3837.000000	0.005517
3836.000000	0.005540
3835.000000	0.005557
3834.000000	0.005566
3833.000000	0.005570
3832.000000	0.005575
3831.000000	0.005586
3830.000000	0.005589
3829.000000	0.005568
3828.000000	0.005515
3827.000000	0.005448
3826.000000	0.005406
3825.000000	0.005411
3824.000000	0.005451
3823.000000	0.005491
3822.000000	0.005506
3821.000000	0.005505
3820.000000	0.005511
3819.000000	0.005518
3818.000000	0.005504
3817.000000	0.005468
3816.000000	0.005439
3815.000000	0.005438
3814.000000	0.005445
3813.000000	0.005427
3812.000000	0.005388
3811.000000	0.005364
3810.000000	0.005375
3809.000000	0.005403
3808.000000	0.005413
3807.000000	0.005401
3806.000000	0.005401
3805.000000	0.005433
3804.000000	0.005479
3803.000000	0.005509
3802.000000	0.005514
3801.000000	0.005506
3800.000000	0.005501
3799.000000	0.005490
3798.000000	0.005463
3797.000000	0.005426
3796.000000	0.005396
3795.000000	0.005382
3794.000000	0.005372
3793.000000	0.005356
3792.000000	0.005337
3791.000000	0.005327
3790.000000	0.005327
3789.000000	0.005330
3788.000000	0.005332
3787.000000	0.005336
3786.000000	0.005349
3785.000000	0.005369
3784.000000	0.005394
3783.000000	0.005419
3782.000000	0.005436
3781.000000	0.005442
3780.000000	0.005441
3779.000000	0.005446
3778.000000	0.005456
3777.000000	0.005457
3776.000000	0.005436
3775.000000	0.005400
3774.000000	0.005370
3773.000000	0.005359
3772.000000	0.005359
3771.000000	0.005366
3770.000000	0.005382
3769.000000	0.005411
3768.000000	0.005441
3767.000000	0.005453
3766.000000	0.005437
3765.000000	0.005410
3764.000000	0.005392
3763.000000	0.005387
3762.000000	0.005382
3761.000000	0.005368
3760.000000	0.005354
3759.000000	0.005350
3758.000000	0.005356
3757.000000	0.005369
3756.000000	0.005384
3755.000000	0.005397
3754.000000	0.005405
3753.000000	0.005415
3752.000000	0.005434
3751.000000	0.005456
3750.000000	0.005462
3749.000000	0.005458
3748.000000	0.005463
3747.000000	0.005471
3746.000000	0.005456
3745.000000	0.005420
3744.000000	0.005397
3743.000000	0.005404
3742.000000	0.005420
3741.000000	0.005422
3740.000000	0.005419
3739.000000	0.005432
3738.000000	0.005471
3737.000000	0.005520
3736.000000	0.005556
3735.000000	0.005564
3734.000000	0.005539
3733.000000	0.005486
3732.000000	0.005428
3731.000000	0.005389
3730.000000	0.005375
3729.000000	0.005368
3728.000000	0.005348
3727.000000	0.005320
3726.000000	0.005305
3725.000000	0.005316
3724.000000	0.005348
3723.000000	0.005387
3722.000000	0.005414
3721.000000	0.005410
3720.000000	0.005373
3719.000000	0.005323
3718.000000	0.005288
3717.000000	0.005288
3716.000000	0.005322
3715.000000	0.005374
3714.000000	0.005427
3713.000000	0.005476
3712.000000	0.005518
3711.000000	0.005546
3710.000000	0.005551
3709.000000	0.005526
3708.000000	0.005473
3707.000000	0.005409
3706.000000	0.005358
3705.000000	0.005329
3704.000000	0.005319
3703.000000	0.005314
3702.000000	0.005308
3701.000000	0.005302
3700.000000	0.005309
3699.000000	0.005332
3698.000000	0.005360
3697.000000	0.005377
3696.000000	0.005381
3695.000000	0.005378
3694.000000	0.005378
3693.000000	0.005382
3692.000000	0.005385
3691.000000	0.005382
3690.000000	0.005376
3689.000000	0.005378
3688.000000	0.005390
3687.000000	0.005405
3686.000000	0.005414
3685.000000	0.005415
3684.000000	0.005421
3683.000000	0.005445
3682.000000	0.005492
3681.000000	0.005553
3680.000000	0.005630
3679.000000	0.005734
3678.000000	0.005842
3677.000000	0.005902
3676.000000	0.005886
3675.000000	0.005839
3674.000000	0.005820
3673.000000	0.005821
3672.000000	0.005805
3671.000000	0.005764
3670.000000	0.005729
3669.000000	0.005724
3668.000000	0.005734
3667.000000	0.005735
3666.000000	0.005724
3665.000000	0.005719
3664.000000	0.005734
3663.000000	0.005771
3662.000000	0.005815
3661.000000	0.005858
3660.000000	0.005898
3659.000000	0.005937
3658.000000	0.005968
3657.000000	0.005982
3656.000000	0.005989
3655.000000	0.006012
3654.000000	0.006059
3653.000000	0.006116
3652.000000	0.006159
3651.000000	0.006188
3650.000000	0.006222
3649.000000	0.006283
3648.000000	0.006369
3647.000000	0.006457
3646.000000	0.006524
3645.000000	0.006558
3644.000000	0.006562
3643.000000	0.006550
3642.000000	0.006543
3641.000000	0.006550
3640.000000	0.006572
3639.000000	0.006601
3638.000000	0.006635
3637.000000	0.006673
3636.000000	0.006715
3635.000000	0.006762
3634.000000	0.006819
3633.000000	0.006890
3632.000000	0.006971
3631.000000	0.007045
3630.000000	0.007103
3629.000000	0.007142
3628.000000	0.007167
3627.000000	0.007183
3626.000000	0.007193
3625.000000	0.007204
3624.000000	0.007227
3623.000000	0.007264
3622.000000	0.007310
3621.000000	0.007355
3620.000000	0.007402
3619.000000	0.007463
3618.000000	0.007540
3617.000000	0.007623
3616.000000	0.007698
3615.000000	0.007764
3614.000000	0.007824
3613.000000	0.007886
3612.000000	0.007948
3611.000000	0.008002
3610.000000	0.008039
3609.000000	0.008064
3608.000000	0.008092
3607.000000	0.008136
3606.000000	0.008193
3605.000000	0.008249
3604.000000	0.008297
3603.000000	0.008342
3602.000000	0.008394
3601.000000	0.008454
3600.000000	0.008515
3599.000000	0.008572
3598.000000	0.008627
3597.000000	0.008682
3596.000000	0.008742
3595.000000	0.008807
3594.000000	0.008876
3593.000000	0.008949
3592.000000	0.009023
3591.000000	0.009093
3590.000000	0.009157
3589.000000	0.009216
3588.000000	0.009289
3587.000000	0.009388
3586.000000	0.009498
3585.000000	0.009593
3584.000000	0.009660
3583.000000	0.009711
3582.000000	0.009761
3581.000000	0.009816
3580.000000	0.009872
3579.000000	0.009931
3578.000000	0.009993
3577.000000	0.010056
3576.000000	0.010123
3575.000000	0.010196
3574.000000	0.010282
3573.000000	0.010382
3572.000000	0.010489
3571.000000	0.010594
3570.000000	0.010686
3569.000000	0.010760
3568.000000	0.010823
3567.000000	0.010895
3566.000000	0.010987
3565.000000	0.011086
3564.000000	0.011170
3563.000000	0.011229
3562.000000	0.011268
3561.000000	0.011305
3560.000000	0.011354
3559.000000	0.011424
3558.000000	0.011511
3557.000000	0.011603
3556.000000	0.011690
3555.000000	0.011775
3554.000000	0.011866
3553.000000	0.011970
3552.000000	0.012077
3551.000000	0.012170
3550.000000	0.012236
3549.000000	0.012282
3548.000000	0.012331
3547.000000	0.012401
3546.000000	0.012491
3545.000000	0.012585
3544.000000	0.012672
3543.000000	0.012753
3542.000000	0.012836
3541.000000	0.012920
3540.000000	0.013008
3539.000000	0.013098
3538.000000	0.013189
3537.000000	0.013276
3536.000000	0.013356
3535.000000	0.013428
3534.000000	0.013495
3533.000000	0.013558
3532.000000	0.013622
3531.000000	0.013694
3530.000000	0.013776
3529.000000	0.013865
3528.000000	0.013955
3527.000000	0.014043
3526.000000	0.014130
3525.000000	0.014213
3524.000000	0.014290
3523.000000	0.014359
3522.000000	0.014420
3521.000000	0.014478
3520.000000	0.014546
3519.000000	0.014630
3518.000000	0.014729
3517.000000	0.014827
3516.000000	0.014906
3515.000000	0.014959
3514.000000	0.014997
3513.000000	0.015036
3512.000000	0.015090
3511.000000	0.015167
3510.000000	0.015261
3509.000000	0.015356
3508.000000	0.015440
3507.000000	0.015508
3506.000000	0.015562
3505.000000	0.015610
3504.000000	0.015664
3503.000000	0.015734
3502.000000	0.015819
3501.000000	0.015912
3500.000000	0.016007
3499.000000	0.016097
3498.000000	0.016174
3497.000000	0.016227
3496.000000	0.016258
3495.000000	0.016281
3494.000000	0.016310
3493.000000	0.016351
3492.000000	0.016405
3491.000000	0.016470
3490.000000	0.016542
3489.000000	0.016613
3488.000000	0.016676
3487.000000	0.016732
3486.000000	0.016783
3485.000000	0.016830
3484.000000	0.016879
3483.000000	0.016936
3482.000000	0.017008
3481.000000	0.017092
3480.000000	0.017177
3479.000000	0.017255
3478.000000	0.017323
3477.000000	0.017383
3476.000000	0.017438
3475.000000	0.017493
3474.000000	0.017546
3473.000000	0.017598
3472.000000	0.017653
3471.000000	0.017721
3470.000000	0.017802
3469.000000	0.017887
3468.000000	0.017966
3467.000000	0.018034
3466.000000	0.018094
3465.000000	0.018148
3464.000000	0.018196
3463.000000	0.018237
3462.000000	0.018271
3461.000000	0.018300
3460.000000	0.018330
3459.000000	0.018368
3458.000000	0.018411
3457.000000	0.018454
3456.000000	0.018494
3455.000000	0.018537
3454.000000	0.018593
3453.000000	0.018666
3452.000000	0.018751
3451.000000	0.018832
3450.000000	0.018889
3449.000000	0.018920
3448.000000	0.018943
3447.000000	0.018991
3446.000000	0.019073
3445.000000	0.019172
3444.000000	0.019265
3443.000000	0.019342
3442.000000	0.019405
3441.000000	0.019460
3440.000000	0.019510
3439.000000	0.019561
3438.000000	0.019620
3437.000000	0.019690
3436.000000	0.019768
3435.000000	0.019844
3434.000000	0.019906
3433.000000	0.019950
3432.000000	0.019984
3431.000000	0.020024
3430.000000	0.020074
3429.000000	0.020127
3428.000000	0.020180
3427.000000	0.020241
3426.000000	0.020320
3425.000000	0.020411
3424.000000	0.020496
3423.000000	0.020564
3422.000000	0.020616
3421.000000	0.020659
3420.000000	0.020700
3419.000000	0.020742
3418.000000	0.020786
3417.000000	0.020831
3416.000000	0.020880
3415.000000	0.020943
3414.000000	0.021024
3413.000000	0.021120
3412.000000	0.021217
3411.000000	0.021298
3410.000000	0.021348
3409.000000	0.021370
3408.000000	0.021383
3407.000000	0.021410
3406.000000	0.021453
3405.000000	0.021506
3404.000000	0.021560
3403.000000	0.021618
3402.000000	0.021680
3401.000000	0.021738
3400.000000	0.021786
3399.000000	0.021830
3398.000000	0.021880
3397.000000	0.021941
3396.000000	0.022008
3395.000000	0.022078
3394.000000	0.022146
3393.000000	0.022208
3392.000000	0.022265
3391.000000	0.022321
3390.000000	0.022379
3389.000000	0.022434
3388.000000	0.022482
3387.000000	0.022527
3386.000000	0.022578
3385.000000	0.022640
3384.000000	0.022711
3383.000000	0.022782
3382.000000	0.022845
3381.000000	0.022899
3380.000000	0.022956
3379.000000	0.023033
3378.000000	0.023133
3377.000000	0.023243
3376.000000	0.023342
3375.000000	0.023419
3374.000000	0.023473
3373.000000	0.023516
3372.000000	0.023567
3371.000000	0.023640
3370.000000	0.023734
3369.000000	0.023833
3368.000000	0.023921
3367.000000	0.023997
3366.000000	0.024069
3365.000000	0.024139
3364.000000	0.024209
3363.000000	0.024285
3362.000000	0.024373
3361.000000	0.024473
3360.000000	0.024577
3359.000000	0.024676
3358.000000	0.024762
3357.000000	0.024843
3356.000000	0.024930
3355.000000	0.025035
3354.000000	0.025157
3353.000000	0.025279
3352.000000	0.025384
3351.000000	0.025475
3350.000000	0.025560
3349.000000	0.025650
3348.000000	0.025752
3347.000000	0.025867
3346.000000	0.025984
3345.000000	0.026087
3344.000000	0.026169
3343.000000	0.026245
3342.000000	0.026333
3341.000000	0.026437
3340.000000	0.026545
3339.000000	0.026643
3338.000000	0.026731
3337.000000	0.026817
3336.000000	0.026907
3335.000000	0.026996
3334.000000	0.027075
3333.000000	0.027147
3332.000000	0.027223
3331.000000	0.027313
3330.000000	0.027411
3329.000000	0.027501
3328.000000	0.027573
3327.000000	0.027635
3326.000000	0.027701
3325.000000	0.027774
3324.000000	0.027853
3323.000000	0.027941
3322.000000	0.028033
3321.000000	0.028115
3320.000000	0.028172
3319.000000	0.028203
3318.000000	0.028224
3317.000000	0.028250
3316.000000	0.028289
3315.000000	0.028343
3314.000000	0.028414
3313.000000	0.028497
3312.000000	0.028581
3311.000000	0.028656
3310.000000	0.028714
3309.000000	0.028755
3308.000000	0.028787
3307.000000	0.028817
3306.000000	0.028847
3305.000000	0.028878
3304.000000	0.028915
3303.000000	0.028965
3302.000000	0.029025
3301.000000	0.029079
3300.000000	0.029113
3299.000000	0.029130
3298.000000	0.029143
3297.000000	0.029161
3296.000000	0.029186
3295.000000	0.029214
3294.000000	0.029239
3293.000000	0.029252
3292.000000	0.029253
3291.000000	0.029256
3290.000000	0.029278
3289.000000	0.029313
3288.000000	0.029342
3287.000000	0.029344
3286.000000	0.029318
3285.000000	0.029280
3284.000000	0.029254
3283.000000	0.029249
3282.000000	0.029258
3281.000000	0.029265
3280.000000	0.029261
3279.000000	0.029246
3278.000000	0.029223
3277.000000	0.029184
3276.000000	0.029123
3275.000000	0.029048
3274.000000	0.028976
3273.000000	0.028921
3272.000000	0.028880
3271.000000	0.028849
3270.000000	0.028826
3269.000000	0.028810
3268.000000	0.028792
3267.000000	0.028759
3266.000000	0.028699
3265.000000	0.028613
3264.000000	0.028519
3263.000000	0.028441
3262.000000	0.028390
3261.000000	0.028354
3260.000000	0.028312
3259.000000	0.028250
3258.000000	0.028174
3257.000000	0.028094
3256.000000	0.028019
3255.000000	0.027946
3254.000000	0.027866
3253.000000	0.027776
3252.000000	0.027681
3251.000000	0.027597
3250.000000	0.027535
3249.000000	0.027493
3248.000000	0.027457
3247.000000	0.027414
3246.000000	0.027355
3245.000000	0.027282
3244.000000	0.027203
3243.000000	0.027126
3242.000000	0.027052
3241.000000	0.026981
3240.000000	0.026918
3239.000000	0.026876
3238.000000	0.026854
3237.000000	0.026835
3236.000000	0.026798
3235.000000	0.026736
3234.000000	0.026659
3233.000000	0.026584
3232.000000	0.026521
3231.000000	0.026472
3230.000000	0.026427
3229.000000	0.026370
3228.000000	0.026292
3227.000000	0.026201
3226.000000	0.026117
3225.000000	0.026054
3224.000000	0.026013
3223.000000	0.025983
3222.000000	0.025950
3221.000000	0.025900
3220.000000	0.025830
3219.000000	0.025745
3218.000000	0.025662
3217.000000	0.025590
3216.000000	0.025531
3215.000000	0.025479
3214.000000	0.025431
3213.000000	0.025384
3212.000000	0.025339
3211.000000	0.025295
3210.000000	0.025244
3209.000000	0.025183
3208.000000	0.025114
3207.000000	0.025051
3206.000000	0.024999
3205.000000	0.024951
3204.000000	0.024894
3203.000000	0.024829
3202.000000	0.024761
3201.000000	0.024698
3200.000000	0.024637
3199.000000	0.024571
3198.000000	0.024496
3197.000000	0.024416
3196.000000	0.024338
3195.000000	0.024269
3194.000000	0.024209
3193.000000	0.024145
3192.000000	0.024067
3191.000000	0.023975
3190.000000	0.023879
3189.000000	0.023791
3188.000000	0.023717
3187.000000	0.023649
3186.000000	0.023578
3185.000000	0.023497
3184.000000	0.023411
3183.000000	0.023331
3182.000000	0.023260
3181.000000	0.023189
3180.000000	0.023109
3179.000000	0.023022
3178.000000	0.022934
3177.000000	0.022850
3176.000000	0.022768
3175.000000	0.022690
3174.000000	0.022618
3173.000000	0.022552
3172.000000	0.022482
3171.000000	0.022404
3170.000000	0.022319
3169.000000	0.022236
3168.000000	0.022158
3167.000000	0.022081
3166.000000	0.021997
3165.000000	0.021904
3164.000000	0.021807
3163.000000	0.021718
3162.000000	0.021645
3161.000000	0.021580
3160.000000	0.021506
3159.000000	0.021410
3158.000000	0.021301
3157.000000	0.021197
3156.000000	0.021112
3155.000000	0.021042
3154.000000	0.020975
3153.000000	0.020904
3152.000000	0.020833
3151.000000	0.020770
3150.000000	0.020721
3149.000000	0.020678
3148.000000	0.020634
3147.000000	0.020585
3146.000000	0.020534
3145.000000	0.020487
3144.000000	0.020444
3143.000000	0.020396
3142.000000	0.020332
3141.000000	0.020251
3140.000000	0.020166
3139.000000	0.020091
3138.000000	0.020031
3137.000000	0.019979
3136.000000	0.019927
3135.000000	0.019879
3134.000000	0.019839
3133.000000	0.019804
3132.000000	0.019762
3131.000000	0.019706
3130.000000	0.019639
3129.000000	0.019574
3128.000000	0.019527
3127.000000	0.019508
3126.000000	0.019514
3125.000000	0.019517
3124.000000	0.019489
3123.000000	0.019425
3122.000000	0.019346
3121.000000	0.019278
3120.000000	0.019233
3119.000000	0.019209
3118.000000	0.019201
3117.000000	0.019206
3116.000000	0.019221
3115.000000	0.019236
3114.000000	0.019247
3113.000000	0.019255
3112.000000	0.019257
3111.000000	0.019253
3110.000000	0.019248
3109.000000	0.019246
3108.000000	0.019250
3107.000000	0.019256
3106.000000	0.019262
3105.000000	0.019274
3104.000000	0.019295
3103.000000	0.019322
3102.000000	0.019346
3101.000000	0.019359
3100.000000	0.019367
3099.000000	0.019380
3098.000000	0.019407
3097.000000	0.019443
3096.000000	0.019477
3095.000000	0.019499
3094.000000	0.019510
3093.000000	0.019521
3092.000000	0.019543
3091.000000	0.019573
3090.000000	0.019602
3089.000000	0.019621
3088.000000	0.019631
3087.000000	0.019638
3086.000000	0.019648
3085.000000	0.019661
3084.000000	0.019673
3083.000000	0.019675
3082.000000	0.019659
3081.000000	0.019630
3080.000000	0.019607
3079.000000	0.019603
3078.000000	0.019619
3077.000000	0.019646
3076.000000	0.019672
3075.000000	0.019697
3074.000000	0.019721
3073.000000	0.019743
3072.000000	0.019754
3071.000000	0.019748
3070.000000	0.019724
3069.000000	0.019686
3068.000000	0.019639
3067.000000	0.019582
3066.000000	0.019519
3065.000000	0.019457
3064.000000	0.019408
3063.000000	0.019376
3062.000000	0.019353
3061.000000	0.019325
3060.000000	0.019285
3059.000000	0.019231
3058.000000	0.019171
3057.000000	0.019111
3056.000000	0.019050
3055.000000	0.018988
3054.000000	0.018924
3053.000000	0.018859
3052.000000	0.018795
3051.000000	0.018729
3050.000000	0.018656
3049.000000	0.018581
3048.000000	0.018516
3047.000000	0.018463
3046.000000	0.018413
3045.000000	0.018358
3044.000000	0.018294
3043.000000	0.018227
3042.000000	0.018161
3041.000000	0.018091
3040.000000	0.018017
3039.000000	0.017939
3038.000000	0.017861
3037.000000	0.017779
3036.000000	0.017690
3035.000000	0.017595
3034.000000	0.017506
3033.000000	0.017438
3032.000000	0.017396
3031.000000	0.017372
3030.000000	0.017352
3029.000000	0.017323
3028.000000	0.017285
3027.000000	0.017240
3026.000000	0.017195
3025.000000	0.017152
3024.000000	0.017109
3023.000000	0.017060
3022.000000	0.017006
3021.000000	0.016952
3020.000000	0.016908
3019.000000	0.016875
3018.000000	0.016853
3017.000000	0.016841
3016.000000	0.016843
3015.000000	0.016858
3014.000000	0.016879
3013.000000	0.016905
3012.000000	0.016940
3011.000000	0.016985
3010.000000	0.017033
3009.000000	0.017069
3008.000000	0.017086
3007.000000	0.017087
3006.000000	0.017082
3005.000000	0.017080
3004.000000	0.017086
3003.000000	0.017096
3002.000000	0.017100
3001.000000	0.017091
3000.000000	0.017068
2999.000000	0.017039
2998.000000	0.017013
2997.000000	0.016997
2996.000000	0.016997
2995.000000	0.017013
2994.000000	0.017043
2993.000000	0.017088
2992.000000	0.017145
2991.000000	0.017212
2990.000000	0.017288
2989.000000	0.017373
2988.000000	0.017468
2987.000000	0.017565
2986.000000	0.017654
2985.000000	0.017731
2984.000000	0.017809
2983.000000	0.017901
2982.000000	0.018015
2981.000000	0.018148
2980.000000	0.018295
2979.000000	0.018453
2978.000000	0.018618
2977.000000	0.018783
2976.000000	0.018951
2975.000000	0.019131
2974.000000	0.019331
2973.000000	0.019554
2972.000000	0.019791
2971.000000	0.020031
2970.000000	0.020271
2969.000000	0.020522
2968.000000	0.020801
2967.000000	0.021118
2966.000000	0.021461
2965.000000	0.021809
2964.000000	0.022148
2963.000000	0.022476
2962.000000	0.022796
2961.000000	0.023101
2960.000000	0.023381
2959.000000	0.023628
2958.000000	0.023842
2957.000000	0.024026
2956.000000	0.024177
2955.000000	0.024284
2954.000000	0.024341
2953.000000	0.024360
2952.000000	0.024371
2951.000000	0.024403
2950.000000	0.024469
2949.000000	0.024566
2948.000000	0.024690
2947.000000	0.024852
2946.000000	0.025067
2945.000000	0.025343
2944.000000	0.025680
2943.000000	0.026079
2942.000000	0.026542
2941.000000	0.027067
2940.000000	0.027650
2939.000000	0.028288
2938.000000	0.028977
2937.000000	0.029711
2936.000000	0.030477
2935.000000	0.031261
2934.000000	0.032054
2933.000000	0.032847
2932.000000	0.033627
2931.000000	0.034379
2930.000000	0.035092
2929.000000	0.035761
2928.000000	0.036387
2927.000000	0.036957
2926.000000	0.037445
2925.000000	0.037810
2924.000000	0.038014
2923.000000	0.038034
2922.000000	0.037873
2921.000000	0.037552
2920.000000	0.037094
2919.000000	0.036513
2918.000000	0.035814
2917.000000	0.035009
2916.000000	0.034129
2915.000000	0.033212
2914.000000	0.032296
2913.000000	0.031412
2912.000000	0.030581
2911.000000	0.029813
2910.000000	0.029106
2909.000000	0.028456
2908.000000	0.027865
2907.000000	0.027336
2906.000000	0.026864
2905.000000	0.026438
2904.000000	0.026042
2903.000000	0.025668
2902.000000	0.025315
2901.000000	0.024988
2900.000000	0.024686
2899.000000	0.024402
2898.000000	0.024119
2897.000000	0.023829
2896.000000	0.023537
2895.000000	0.023252
2894.000000	0.022977
2893.000000	0.022717
2892.000000	0.022478
2891.000000	0.022269
2890.000000	0.022091
2889.000000	0.021932
2888.000000	0.021772
2887.000000	0.021604
2886.000000	0.021430
2885.000000	0.021266
2884.000000	0.021129
2883.000000	0.021024
2882.000000	0.020950
2881.000000	0.020903
2880.000000	0.020885
2879.000000	0.020898
2878.000000	0.020944
2877.000000	0.021024
2876.000000	0.021131
2875.000000	0.021256
2874.000000	0.021375
2873.000000	0.021464
2872.000000	0.021505
2871.000000	0.021508
2870.000000	0.021499
2869.000000	0.021510
2868.000000	0.021561
2867.000000	0.021659
2866.000000	0.021814
2865.000000	0.022040
2864.000000	0.022348
2863.000000	0.022743
2862.000000	0.023229
2861.000000	0.023807
2860.000000	0.024472
2859.000000	0.025190
2858.000000	0.025914
2857.000000	0.026597
2856.000000	0.027193
2855.000000	0.027659
2854.000000	0.027948
2853.000000	0.028021
2852.000000	0.027860
2851.000000	0.027465
2850.000000	0.026847
2849.000000	0.026039
2848.000000	0.025095
2847.000000	0.024085
2846.000000	0.023076
2845.000000	0.022122
2844.000000	0.021259
2843.000000	0.020504
2842.000000	0.019855
2841.000000	0.019292
2840.000000	0.018800
2839.000000	0.018372
2838.000000	0.018009
2837.000000	0.017708
2836.000000	0.017455
2835.000000	0.017234
2834.000000	0.017035
2833.000000	0.016852
2832.000000	0.016683
2831.000000	0.016519
2830.000000	0.016355
2829.000000	0.016191
2828.000000	0.016040
2827.000000	0.015910
2826.000000	0.015800
2825.000000	0.015702
2824.000000	0.015607
2823.000000	0.015510
2822.000000	0.015416
2821.000000	0.015328
2820.000000	0.015246
2819.000000	0.015166
2818.000000	0.015089
2817.000000	0.015018
2816.000000	0.014959
2815.000000	0.014906
2814.000000	0.014851
2813.000000	0.014790
2812.000000	0.014729
2811.000000	0.014670
2810.000000	0.014611
2809.000000	0.014546
2808.000000	0.014472
2807.000000	0.014393
2806.000000	0.014320
2805.000000	0.014262
2804.000000	0.014223
2803.000000	0.014196
2802.000000	0.014173
2801.000000	0.014147
2800.000000	0.014116
2799.000000	0.014078
2798.000000	0.014033
2797.000000	0.013985
2796.000000	0.013939
2795.000000	0.013898
2794.000000	0.013859
2793.000000	0.013819
2792.000000	0.013774
2791.000000	0.013728
2790.000000	0.013686
2789.000000	0.013657
2788.000000	0.013637
2787.000000	0.013613
2786.000000	0.013576
2785.000000	0.013527
2784.000000	0.013477
2783.000000	0.013434
2782.000000	0.013397
2781.000000	0.013361
2780.000000	0.013324
2779.000000	0.013288
2778.000000	0.013257
2777.000000	0.013234
2776.000000	0.013216
2775.000000	0.013191
2774.000000	0.013154
2773.000000	0.013112
2772.000000	0.013082
2771.000000	0.013065
2770.000000	0.013050
2769.000000	0.013026
2768.000000	0.012992
2767.000000	0.012953
2766.000000	0.012906
2765.000000	0.012849
2764.000000	0.012792
2763.000000	0.012748
2762.000000	0.012722
2761.000000	0.012704
2760.000000	0.012685
2759.000000	0.012665
2758.000000	0.012648
2757.000000	0.012631
2756.000000	0.012616
2755.000000	0.012604
2754.000000	0.012602
2753.000000	0.012605
2752.000000	0.012602
2751.000000	0.012581
2750.000000	0.012548
2749.000000	0.012515
2748.000000	0.012489
2747.000000	0.012468
2746.000000	0.012445
2745.000000	0.012420
2744.000000	0.012396
2743.000000	0.012372
2742.000000	0.012352
2741.000000	0.012334
2740.000000	0.012314
2739.000000	0.012288
2738.000000	0.012256
2737.000000	0.012224
2736.000000	0.012199
2735.000000	0.012181
2734.000000	0.012165
2733.000000	0.012155
2732.000000	0.012152
2731.000000	0.012148
2730.000000	0.012129
2729.000000	0.012090
2728.000000	0.012040
2727.000000	0.011994
2726.000000	0.011962
2725.000000	0.011944
2724.000000	0.011934
2723.000000	0.011926
2722.000000	0.011914
2721.000000	0.011902
2720.000000	0.011889
2719.000000	0.011871
2718.000000	0.011843
2717.000000	0.011807
2716.000000	0.011770
2715.000000	0.011744
2714.000000	0.011730
2713.000000	0.011726
2712.000000	0.011723
2711.000000	0.011712
2710.000000	0.011690
2709.000000	0.011666
2708.000000	0.011648
2707.000000	0.011633
2706.000000	0.011611
2705.000000	0.011577
2704.000000	0.011547
2703.000000	0.011533
2702.000000	0.011536
2701.000000	0.011542
2700.000000	0.011537
2699.000000	0.011517
2698.000000	0.011489
2697.000000	0.011465
2696.000000	0.011450
2695.000000	0.011446
2694.000000	0.011448
2693.000000	0.011453
2692.000000	0.011459
2691.000000	0.011464
2690.000000	0.011464
2689.000000	0.011459
2688.000000	0.011447
2687.000000	0.011429
2686.000000	0.011406
2685.000000	0.011384
2684.000000	0.011370
2683.000000	0.011366
2682.000000	0.011370
2681.000000	0.011379
2680.000000	0.011388
2679.000000	0.011387
2678.000000	0.011366
2677.000000	0.011332
2676.000000	0.011301
2675.000000	0.011287
2674.000000	0.011289
2673.000000	0.011293
2672.000000	0.011292
2671.000000	0.011285
2670.000000	0.011273
2669.000000	0.011260
2668.000000	0.011247
2667.000000	0.011235
2666.000000	0.011225
2665.000000	0.011216
2664.000000	0.011208
2663.000000	0.011201
2662.000000	0.011197
2661.000000	0.011189
2660.000000	0.011174
2659.000000	0.011145
2658.000000	0.011102
2657.000000	0.011052
2656.000000	0.011009
2655.000000	0.010983
2654.000000	0.010968
2653.000000	0.010950
2652.000000	0.010918
2651.000000	0.010877
2650.000000	0.010837
2649.000000	0.010807
2648.000000	0.010784
2647.000000	0.010759
2646.000000	0.010727
2645.000000	0.010696
2644.000000	0.010669
2643.000000	0.010643
2642.000000	0.010615
2641.000000	0.010584
2640.000000	0.010556
2639.000000	0.010531
2638.000000	0.010506
2637.000000	0.010481
2636.000000	0.010456
2635.000000	0.010428
2634.000000	0.010393
2633.000000	0.010354
2632.000000	0.010321
2631.000000	0.010299
2630.000000	0.010284
2629.000000	0.010269
2628.000000	0.010252
2627.000000	0.010232
2626.000000	0.010208
2625.000000	0.010182
2624.000000	0.010154
2623.000000	0.010121
2622.000000	0.010080
2621.000000	0.010033
2620.000000	0.009991
2619.000000	0.009962
2618.000000	0.009944
2617.000000	0.009923
2616.000000	0.009889
2615.000000	0.009840
2614.000000	0.009787
2613.000000	0.009745
2612.000000	0.009715
2611.000000	0.009688
2610.000000	0.009658
2609.000000	0.009630
2608.000000	0.009613
2607.000000	0.009607
2606.000000	0.009602
2605.000000	0.009591
2604.000000	0.009581
2603.000000	0.009579
2602.000000	0.009587
2601.000000	0.009600
2600.000000	0.009605
2599.000000	0.009594
2598.000000	0.009568
2597.000000	0.009538
2596.000000	0.009516
2595.000000	0.009503
2594.000000	0.009490
2593.000000	0.009476
2592.000000	0.009460
2591.000000	0.009448
2590.000000	0.009441
2589.000000	0.009434
2588.000000	0.009415
2587.000000	0.009376
2586.000000	0.009325
2585.000000	0.009288
2584.000000	0.009281
2583.000000	0.009288
2582.000000	0.009281
2581.000000	0.009250
2580.000000	0.009210
2579.000000	0.009178
2578.000000	0.009158
2577.000000	0.009148
2576.000000	0.009147
2575.000000	0.009154
2574.000000	0.009166
2573.000000	0.009173
2572.000000	0.009169
2571.000000	0.009149
2570.000000	0.009118
2569.000000	0.009091
2568.000000	0.009074
2567.000000	0.009060
2566.000000	0.009038
2565.000000	0.009006
2564.000000	0.008971
2563.000000	0.008946
2562.000000	0.008934
2561.000000	0.008936
2560.000000	0.008950
2559.000000	0.008969
2558.000000	0.008981
2557.000000	0.008977
2556.000000	0.008954
2555.000000	0.008917
2554.000000	0.008871
2553.000000	0.008823
2552.000000	0.008784
2551.000000	0.008762
2550.000000	0.008761
2549.000000	0.008774
2548.000000	0.008783
2547.000000	0.008776
2546.000000	0.008758
2545.000000	0.008757
2544.000000	0.008789
2543.000000	0.008843
2542.000000	0.008894
2541.000000	0.008922
2540.000000	0.008917
2539.000000	0.008874
2538.000000	0.008802
2537.000000	0.008734
2536.000000	0.008709
2535.000000	0.008741
2534.000000	0.008802
2533.000000	0.008852
2532.000000	0.008866
2531.000000	0.008844
2530.000000	0.008802
2529.000000	0.008761
2528.000000	0.008743
2527.000000	0.008754
2526.000000	0.008785
2525.000000	0.008814
2524.000000	0.008820
2523.000000	0.008801
2522.000000	0.008773
2521.000000	0.008757
2520.000000	0.008757
2519.000000	0.008751
2518.000000	0.008720
2517.000000	0.008670
2516.000000	0.008627
2515.000000	0.008611
2514.000000	0.008618
2513.000000	0.008628
2512.000000	0.008625
2511.000000	0.008605
2510.000000	0.008572
2509.000000	0.008524
2508.000000	0.008469
2507.000000	0.008427
2506.000000	0.008429
2505.000000	0.008484
2504.000000	0.008554
2503.000000	0.008591
2502.000000	0.008578
2501.000000	0.008542
2500.000000	0.008519
2499.000000	0.008518
2498.000000	0.008528
2497.000000	0.008539
2496.000000	0.008540
2495.000000	0.008522
2494.000000	0.008481
2493.000000	0.008429
2492.000000	0.008385
2491.000000	0.008353
2490.000000	0.008335
2489.000000	0.008337
2488.000000	0.008360
2487.000000	0.008394
2486.000000	0.008420
2485.000000	0.008427
2484.000000	0.008414
2483.000000	0.008382
2482.000000	0.008337
2481.000000	0.008295
2480.000000	0.008271
2479.000000	0.008265
2478.000000	0.008268
2477.000000	0.008276
2476.000000	0.008289
2475.000000	0.008299
2474.000000	0.008294
2473.000000	0.008273
2472.000000	0.008249
2471.000000	0.008232
2470.000000	0.008222
2469.000000	0.008213
2468.000000	0.008205
2467.000000	0.008200
2466.000000	0.008203
2465.000000	0.008219
2464.000000	0.008245
2463.000000	0.008267
2462.000000	0.008272
2461.000000	0.008263
2460.000000	0.008250
2459.000000	0.008240
2458.000000	0.008235
2457.000000	0.008239
2456.000000	0.008246
2455.000000	0.008245
2454.000000	0.008226
2453.000000	0.008197
2452.000000	0.008176
2451.000000	0.008172
2450.000000	0.008180
2449.000000	0.008190
2448.000000	0.008194
2447.000000	0.008192
2446.000000	0.008185
2445.000000	0.008176
2444.000000	0.008175
2443.000000	0.008190
2442.000000	0.008222
2441.000000	0.008261
2440.000000	0.008285
2439.000000	0.008276
2438.000000	0.008237
2437.000000	0.008190
2436.000000	0.008155
2435.000000	0.008129
2434.000000	0.008100
2433.000000	0.008068
2432.000000	0.008038
2431.000000	0.008014
2430.000000	0.007996
2429.000000	0.007989
2428.000000	0.008001
2427.000000	0.008023
2426.000000	0.008035
2425.000000	0.008028
2424.000000	0.008012
2423.000000	0.008013
2422.000000	0.008046
2421.000000	0.008101
2420.000000	0.008145
2419.000000	0.008144
2418.000000	0.008099
2417.000000	0.008042
2416.000000	0.008012
2415.000000	0.008022
2414.000000	0.008060
2413.000000	0.008105
2412.000000	0.008129
2411.000000	0.008120
2410.000000	0.008082
2409.000000	0.008037
2408.000000	0.008002
2407.000000	0.007985
2406.000000	0.007987
2405.000000	0.008011
2404.000000	0.008043
2403.000000	0.008058
2402.000000	0.008041
2401.000000	0.008007
2400.000000	0.007981
2399.000000	0.007975
2398.000000	0.007984
2397.000000	0.008000
2396.000000	0.008020
2395.000000	0.008038
2394.000000	0.008047
2393.000000	0.008043
2392.000000	0.008032
2391.000000	0.008025
2390.000000	0.008027
2389.000000	0.008036
2388.000000	0.008045
2387.000000	0.008045
2386.000000	0.008039
2385.000000	0.008040
2384.000000	0.008053
2383.000000	0.008072
2382.000000	0.008082
2381.000000	0.008080
2380.000000	0.008074
2379.000000	0.008072
2378.000000	0.008076
2377.000000	0.008077
2376.000000	0.008064
2375.000000	0.008035
2374.000000	0.008003
2373.000000	0.007983
2372.000000	0.007976
2371.000000	0.007977
2370.000000	0.007987
2369.000000	0.008013
2368.000000	0.008057
2367.000000	0.008123
2366.000000	0.008206
2365.000000	0.008283
2364.000000	0.008314
2363.000000	0.008282
2362.000000	0.008217
2361.000000	0.008170
2360.000000	0.008171
2359.000000	0.008202
2358.000000	0.008215
2357.000000	0.008192
2356.000000	0.008160
2355.000000	0.008175
2354.000000	0.008226
2353.000000	0.008249
2352.000000	0.008220
2351.000000	0.008192
2350.000000	0.008221
2349.000000	0.008305
2348.000000	0.008397
2347.000000	0.008431
2346.000000	0.008379
2345.000000	0.008289
2344.000000	0.008234
2343.000000	0.008250
2342.000000	0.008297
2341.000000	0.008330
2340.000000	0.008340
2339.000000	0.008341
2338.000000	0.008343
2337.000000	0.008346
2336.000000	0.008351
2335.000000	0.008342
2334.000000	0.008306
2333.000000	0.008247
2332.000000	0.008210
2331.000000	0.008214
2330.000000	0.008259
2329.000000	0.008311
2328.000000	0.008379
2327.000000	0.008474
2326.000000	0.008597
2325.000000	0.008703
2324.000000	0.008736
2323.000000	0.008673
2322.000000	0.008553
2321.000000	0.008447
2320.000000	0.008405
2319.000000	0.008413
2318.000000	0.008446
2317.000000	0.008475
2316.000000	0.008487
2315.000000	0.008457
2314.000000	0.008393
2313.000000	0.008322
2312.000000	0.008281
2311.000000	0.008265
2310.000000	0.008254
2309.000000	0.008229
2308.000000	0.008198
2307.000000	0.008165
2306.000000	0.008139
2305.000000	0.008132
2304.000000	0.008149
2303.000000	0.008166
2302.000000	0.008157
2301.000000	0.008124
2300.000000	0.008092
2299.000000	0.008073
2298.000000	0.008064
2297.000000	0.008059
2296.000000	0.008063
2295.000000	0.008074
2294.000000	0.008076
2293.000000	0.008050
2292.000000	0.007995
2291.000000	0.007935
2290.000000	0.007906
2289.000000	0.007926
2288.000000	0.007969
2287.000000	0.007997
2286.000000	0.007996
2285.000000	0.007992
2284.000000	0.008006
2283.000000	0.008028
2282.000000	0.008025
2281.000000	0.007982
2280.000000	0.007907
2279.000000	0.007824
2278.000000	0.007770
2277.000000	0.007768
2276.000000	0.007799
2275.000000	0.007817
2274.000000	0.007795
2273.000000	0.007755
2272.000000	0.007731
2271.000000	0.007728
2270.000000	0.007736
2269.000000	0.007755
2268.000000	0.007785
2267.000000	0.007814
2266.000000	0.007824
2265.000000	0.007811
2264.000000	0.007781
2263.000000	0.007737
2262.000000	0.007694
2261.000000	0.007669
2260.000000	0.007656
2259.000000	0.007625
2258.000000	0.007567
2257.000000	0.007502
2256.000000	0.007443
2255.000000	0.007370
2254.000000	0.007271
2253.000000	0.007177
2252.000000	0.007136
2251.000000	0.007161
2250.000000	0.007229
2249.000000	0.007307
2248.000000	0.007366
2247.000000	0.007386
2246.000000	0.007375
2245.000000	0.007349
2244.000000	0.007304
2243.000000	0.007228
2242.000000	0.007161
2241.000000	0.007172
2240.000000	0.007267
2239.000000	0.007352
2238.000000	0.007333
2237.000000	0.007220
2236.000000	0.007100
2235.000000	0.007040
2234.000000	0.007053
2233.000000	0.007121
2232.000000	0.007214
2231.000000	0.007287
2230.000000	0.007309
2229.000000	0.007279
2228.000000	0.007207
2227.000000	0.007113
2226.000000	0.007050
2225.000000	0.007073
2224.000000	0.007177
2223.000000	0.007283
2222.000000	0.007333
2221.000000	0.007347
2220.000000	0.007366
2219.000000	0.007381
2218.000000	0.007375
2217.000000	0.007364
2216.000000	0.007368
2215.000000	0.007356
2214.000000	0.007289
2213.000000	0.007188
2212.000000	0.007107
2211.000000	0.007066
2210.000000	0.007055
2209.000000	0.007067
2208.000000	0.007094
2207.000000	0.007112
2206.000000	0.007099
2205.000000	0.007056
2204.000000	0.006999
2203.000000	0.006947
2202.000000	0.006944
2201.000000	0.007032
2200.000000	0.007177
2199.000000	0.007279
2198.000000	0.007289
2197.000000	0.007282
2196.000000	0.007343
2195.000000	0.007448
2194.000000	0.007480
2193.000000	0.007363
2192.000000	0.007123
2191.000000	0.006861
2190.000000	0.006688
2189.000000	0.006651
2188.000000	0.006696
2187.000000	0.006738
2186.000000	0.006777
2185.000000	0.006875
2184.000000	0.007024
2183.000000	0.007109
2182.000000	0.007062
2181.000000	0.006954
2180.000000	0.006891
2179.000000	0.006887
2178.000000	0.006908
2177.000000	0.006938
2176.000000	0.006938
2175.000000	0.006834
2174.000000	0.006618
2173.000000	0.006407
2172.000000	0.006316
2171.000000	0.006345
2170.000000	0.006437
2169.000000	0.006569
2168.000000	0.006740
2167.000000	0.006907
2166.000000	0.007018
2165.000000	0.007064
2164.000000	0.007040
2163.000000	0.006929
2162.000000	0.006749
2161.000000	0.006551
2160.000000	0.006315
2159.000000	0.005959
2158.000000	0.005535
2157.000000	0.005257
2156.000000	0.005253
2155.000000	0.005453
2154.000000	0.005754
2153.000000	0.006114
2152.000000	0.006455
2151.000000	0.006631
2150.000000	0.006566
2149.000000	0.006368
2148.000000	0.006218
2147.000000	0.006207
2146.000000	0.006318
2145.000000	0.006474
2144.000000	0.006580
2143.000000	0.006574
2142.000000	0.006500
2141.000000	0.006474
2140.000000	0.006548
2139.000000	0.006641
2138.000000	0.006644
2137.000000	0.006525
2136.000000	0.006322
2135.000000	0.006114
2134.000000	0.006009
2133.000000	0.006092
2132.000000	0.006323
2131.000000	0.006563
2130.000000	0.006704
2129.000000	0.006754
2128.000000	0.006766
2127.000000	0.006767
2126.000000	0.006770
2125.000000	0.006803
2124.000000	0.006864
2123.000000	0.006903
2122.000000	0.006890
2121.000000	0.006870
2120.000000	0.006902
2119.000000	0.006978
2118.000000	0.007046
2117.000000	0.007074
2116.000000	0.007072
2115.000000	0.007054
2114.000000	0.007034
2113.000000	0.007025
2112.000000	0.007031
2111.000000	0.007035
2110.000000	0.007034
2109.000000	0.007047
2108.000000	0.007075
2107.000000	0.007084
2106.000000	0.007061
2105.000000	0.007034
2104.000000	0.007029
2103.000000	0.007035
2102.000000	0.007037
2101.000000	0.007052
2100.000000	0.007086
2099.000000	0.007104
2098.000000	0.007076
2097.000000	0.007013
2096.000000	0.006940
2095.000000	0.006862
2094.000000	0.006787
2093.000000	0.006761
2092.000000	0.006815
2091.000000	0.006927
2090.000000	0.007046
2089.000000	0.007139
2088.000000	0.007191
2087.000000	0.007194
2086.000000	0.007168
2085.000000	0.007159
2084.000000	0.007188
2083.000000	0.007227
2082.000000	0.007241
2081.000000	0.007231
2080.000000	0.007213
2079.000000	0.007179
2078.000000	0.007121
2077.000000	0.007051
2076.000000	0.006973
2075.000000	0.006880
2074.000000	0.006786
2073.000000	0.006737
2072.000000	0.006758
2071.000000	0.006813
2070.000000	0.006849
2069.000000	0.006840
2068.000000	0.006777
2067.000000	0.006671
2066.000000	0.006585
2065.000000	0.006584
2064.000000	0.006653
2063.000000	0.006707
2062.000000	0.006701
2061.000000	0.006679
2060.000000	0.006678
2059.000000	0.006663
2058.000000	0.006597
2057.000000	0.006496
2056.000000	0.006400
2055.000000	0.006340
2054.000000	0.006354
2053.000000	0.006464
2052.000000	0.006598
2051.000000	0.006624
2050.000000	0.006509
2049.000000	0.006375
2048.000000	0.006342
2047.000000	0.006396
2046.000000	0.006475
2045.000000	0.006582
2044.000000	0.006718
2043.000000	0.006808
2042.000000	0.006801
2041.000000	0.006752
2040.000000	0.006713
2039.000000	0.006643
2038.000000	0.006492
2037.000000	0.006303
2036.000000	0.006131
2035.000000	0.005971
2034.000000	0.005839
2033.000000	0.005802
2032.000000	0.005838
2031.000000	0.005804
2030.000000	0.005658
2029.000000	0.005537
2028.000000	0.005540
2027.000000	0.005570
2026.000000	0.005524
2025.000000	0.005480
2024.000000	0.005556
2023.000000	0.005701
2022.000000	0.005760
2021.000000	0.005667
2020.000000	0.005490
2019.000000	0.005358
2018.000000	0.005393
2017.000000	0.005606
2016.000000	0.005800
2015.000000	0.005739
2014.000000	0.005456
2013.000000	0.005255
2012.000000	0.005337
2011.000000	0.005587
2010.000000	0.005798
2009.000000	0.005935
2008.000000	0.006070
2007.000000	0.006198
2006.000000	0.006259
2005.000000	0.006246
2004.000000	0.006167
2003.000000	0.006012
2002.000000	0.005824
2001.000000	0.005711
2000.000000	0.005708
1999.000000	0.005733
1998.000000	0.005730
1997.000000	0.005740
1996.000000	0.005777
1995.000000	0.005779
1994.000000	0.005739
1993.000000	0.005761
1992.000000	0.005891
1991.000000	0.006000
1990.000000	0.005953
1989.000000	0.005786
1988.000000	0.005623
1987.000000	0.005518
1986.000000	0.005479
1985.000000	0.005546
1984.000000	0.005739
1983.000000	0.006009
1982.000000	0.006281
1981.000000	0.006511
1980.000000	0.006605
1979.000000	0.006453
1978.000000	0.006100
1977.000000	0.005769
1976.000000	0.005583
1975.000000	0.005423
1974.000000	0.005191
1973.000000	0.005008
1972.000000	0.005021
1971.000000	0.005196
1970.000000	0.005401
1969.000000	0.005572
1968.000000	0.005680
1967.000000	0.005680
1966.000000	0.005586
1965.000000	0.005506
1964.000000	0.005516
1963.000000	0.005577
1962.000000	0.005645
1961.000000	0.005734
1960.000000	0.005835
1959.000000	0.005884
1958.000000	0.005874
1957.000000	0.005889
1956.000000	0.005957
1955.000000	0.005991
1954.000000	0.005918
1953.000000	0.005781
1952.000000	0.005660
1951.000000	0.005566
1950.000000	0.005487
1949.000000	0.005468
1948.000000	0.005529
1947.000000	0.005602
1946.000000	0.005604
1945.000000	0.005537
1944.000000	0.005465
1943.000000	0.005441
1942.000000	0.005504
1941.000000	0.005664
1940.000000	0.005862
1939.000000	0.005992
1938.000000	0.006007
1937.000000	0.005947
1936.000000	0.005872
1935.000000	0.005791
1934.000000	0.005716
1933.000000	0.005690
1932.000000	0.005735
1931.000000	0.005801
1930.000000	0.005817
1929.000000	0.005783
1928.000000	0.005738
1927.000000	0.005722
1926.000000	0.005765
1925.000000	0.005880
1924.000000	0.006024
1923.000000	0.006096
1922.000000	0.006048
1921.000000	0.005949
1920.000000	0.005881
1919.000000	0.005857
1918.000000	0.005842
1917.000000	0.005832
1916.000000	0.005832
1915.000000	0.005825
1914.000000	0.005795
1913.000000	0.005752
1912.000000	0.005720
1911.000000	0.005711
1910.000000	0.005733
1909.000000	0.005794
1908.000000	0.005863
1907.000000	0.005901
1906.000000	0.005900
1905.000000	0.005898
1904.000000	0.005920
1903.000000	0.005942
1902.000000	0.005949
1901.000000	0.005962
1900.000000	0.005976
1899.000000	0.005959
1898.000000	0.005910
1897.000000	0.005878
1896.000000	0.005894
1895.000000	0.005909
1894.000000	0.005868
1893.000000	0.005779
1892.000000	0.005689
1891.000000	0.005633
1890.000000	0.005626
1889.000000	0.005672
1888.000000	0.005740
1887.000000	0.005786
1886.000000	0.005805
1885.000000	0.005820
1884.000000	0.005825
1883.000000	0.005794
1882.000000	0.005742
1881.000000	0.005731
1880.000000	0.005784
1879.000000	0.005859
1878.000000	0.005910
1877.000000	0.005923
1876.000000	0.005901
1875.000000	0.005846
1874.000000	0.005757
1873.000000	0.005650
1872.000000	0.005542
1871.000000	0.005444
1870.000000	0.005379
1869.000000	0.005374
1868.000000	0.005411
1867.000000	0.005445
1866.000000	0.005477
1865.000000	0.005535
1864.000000	0.005609
1863.000000	0.005661
1862.000000	0.005696
1861.000000	0.005751
1860.000000	0.005811
1859.000000	0.005820
1858.000000	0.005774
1857.000000	0.005728
1856.000000	0.005709
1855.000000	0.005700
1854.000000	0.005697
1853.000000	0.005733
1852.000000	0.005782
1851.000000	0.005791
1850.000000	0.005750
1849.000000	0.005668
1848.000000	0.005543
1847.000000	0.005388
1846.000000	0.005283
1845.000000	0.005302
1844.000000	0.005400
1843.000000	0.005451
1842.000000	0.005443
1841.000000	0.005492
1840.000000	0.005623
1839.000000	0.005735
1838.000000	0.005739
1837.000000	0.005685
1836.000000	0.005664
1835.000000	0.005660
1834.000000	0.005610
1833.000000	0.005516
1832.000000	0.005419
1831.000000	0.005345
1830.000000	0.005290
1829.000000	0.005243
1828.000000	0.005214
1827.000000	0.005230
1826.000000	0.005304
1825.000000	0.005406
1824.000000	0.005485
1823.000000	0.005525
1822.000000	0.005558
1821.000000	0.005604
1820.000000	0.005639
1819.000000	0.005641
1818.000000	0.005626
1817.000000	0.005627
1816.000000	0.005640
1815.000000	0.005621
1814.000000	0.005574
1813.000000	0.005532
1812.000000	0.005511
1811.000000	0.005491
1810.000000	0.005457
1809.000000	0.005451
1808.000000	0.005492
1807.000000	0.005541
1806.000000	0.005563
1805.000000	0.005570
1804.000000	0.005578
1803.000000	0.005562
1802.000000	0.005519
1801.000000	0.005474
1800.000000	0.005451
1799.000000	0.005450
1798.000000	0.005463
1797.000000	0.005486
1796.000000	0.005493
1795.000000	0.005460
1794.000000	0.005418
1793.000000	0.005410
1792.000000	0.005438
1791.000000	0.005454
1790.000000	0.005448
1789.000000	0.005464
1788.000000	0.005514
1787.000000	0.005562
1786.000000	0.005587
1785.000000	0.005599
1784.000000	0.005586
1783.000000	0.005515
1782.000000	0.005448
1781.000000	0.005443
1780.000000	0.005473
1779.000000	0.005475
1778.000000	0.005436
1777.000000	0.005397
1776.000000	0.005348
1775.000000	0.005279
1774.000000	0.005233
1773.000000	0.005238
1772.000000	0.005242
1771.000000	0.005215
1770.000000	0.005255
1769.000000	0.005477
1768.000000	0.005822
1767.000000	0.006065
1766.000000	0.006113
1765.000000	0.006102
1764.000000	0.006202
1763.000000	0.006426
1762.000000	0.006706
1761.000000	0.006999
1760.000000	0.007326
1759.000000	0.007739
1758.000000	0.008313
1757.000000	0.009056
1756.000000	0.009805
1755.000000	0.010420
1754.000000	0.010994
1753.000000	0.011712
1752.000000	0.012569
1751.000000	0.013348
1750.000000	0.013886
1749.000000	0.014303
1748.000000	0.014734
1747.000000	0.015117
1746.000000	0.015373
1745.000000	0.015475
1744.000000	0.015398
1743.000000	0.015116
1742.000000	0.014675
1741.000000	0.014185
1740.000000	0.013676
1739.000000	0.013052
1738.000000	0.012321
1737.000000	0.011686
1736.000000	0.011290
1735.000000	0.011002
1734.000000	0.010563
1733.000000	0.009951
1732.000000	0.009355
1731.000000	0.008945
1730.000000	0.008752
1729.000000	0.008697
1728.000000	0.008650
1727.000000	0.008542
1726.000000	0.008398
1725.000000	0.008255
1724.000000	0.008133
1723.000000	0.007989
1722.000000	0.007768
1721.000000	0.007528
1720.000000	0.007374
1719.000000	0.007327
1718.000000	0.007304
1717.000000	0.007272
1716.000000	0.007282
1715.000000	0.007370
1714.000000	0.007549
1713.000000	0.007814
1712.000000	0.008116
1711.000000	0.008397
1710.000000	0.008642
1709.000000	0.008871
1708.000000	0.009092
1707.000000	0.009363
1706.000000	0.009738
1705.000000	0.010163
1704.000000	0.010511
1703.000000	0.010845
1702.000000	0.011425
1701.000000	0.012364
1700.000000	0.013259
1699.000000	0.013636
1698.000000	0.013859
1697.000000	0.014589
1696.000000	0.015864
1695.000000	0.017021
1694.000000	0.017632
1693.000000	0.018018
1692.000000	0.018557
1691.000000	0.019251
1690.000000	0.019927
1689.000000	0.020503
1688.000000	0.020986
1687.000000	0.021476
1686.000000	0.022107
1685.000000	0.022980
1684.000000	0.023953
1683.000000	0.024668
1682.000000	0.025220
1681.000000	0.025963
1680.000000	0.026908
1679.000000	0.027803
1678.000000	0.028571
1677.000000	0.029421
1676.000000	0.030491
1675.000000	0.031552
1674.000000	0.032317
1673.000000	0.032882
1672.000000	0.033563
1671.000000	0.034501
1670.000000	0.035645
1669.000000	0.036876
1668.000000	0.038028
1667.000000	0.038988
1666.000000	0.039825
1665.000000	0.040705
1664.000000	0.041735
1663.000000	0.042809
1662.000000	0.043782
1661.000000	0.044665
1660.000000	0.045533
1659.000000	0.046375
1658.000000	0.047082
1657.000000	0.047605
1656.000000	0.048066
1655.000000	0.048696
1654.000000	0.049620
1653.000000	0.050721
1652.000000	0.051468
1651.000000	0.051601
1650.000000	0.051552
1649.000000	0.051756
1648.000000	0.052287
1647.000000	0.052978
1646.000000	0.053634
1645.000000	0.054194
1644.000000	0.054672
1643.000000	0.055071
1642.000000	0.055425
1641.000000	0.055741
1640.000000	0.055954
1639.000000	0.056047
1638.000000	0.056105
1637.000000	0.056262
1636.000000	0.056522
1635.000000	0.056735
1634.000000	0.056777
1633.000000	0.056739
1632.000000	0.056753
1631.000000	0.056768
1630.000000	0.056658
1629.000000	0.056374
1628.000000	0.055956
1627.000000	0.055445
1626.000000	0.054876
1625.000000	0.054250
1624.000000	0.053525
1623.000000	0.052666
1622.000000	0.051752
1621.000000	0.050894
1620.000000	0.050129
1619.000000	0.049413
1618.000000	0.048597
1617.000000	0.047542
1616.000000	0.046328
1615.000000	0.045169
1614.000000	0.044175
1613.000000	0.043320
1612.000000	0.042483
1611.000000	0.041556
1610.000000	0.040567
1609.000000	0.039608
1608.000000	0.038713
1607.000000	0.037864
1606.000000	0.037068
1605.000000	0.036326
1604.000000	0.035610
1603.000000	0.034936
1602.000000	0.034335
1601.000000	0.033807
1600.000000	0.033325
1599.000000	0.032874
1598.000000	0.032454
1597.000000	0.032063
1596.000000	0.031703
1595.000000	0.031399
1594.000000	0.031177
1593.000000	0.031026
1592.000000	0.030918
1591.000000	0.030844
1590.000000	0.030814
1589.000000	0.030827
1588.000000	0.030868
1587.000000	0.030939
1586.000000	0.031050
1585.000000	0.031202
1584.000000	0.031373
1583.000000	0.031586
1582.000000	0.031864
1581.000000	0.032135
1580.000000	0.032319
1579.000000	0.032485
1578.000000	0.032785
1577.000000	0.033258
1576.000000	0.033777
1575.000000	0.034157
1574.000000	0.034380
1573.000000	0.034591
1572.000000	0.034911
1571.000000	0.035358
1570.000000	0.035881
1569.000000	0.036425
1568.000000	0.036930
1567.000000	0.037446
1566.000000	0.038047
1565.000000	0.038696
1564.000000	0.039240
1563.000000	0.039639
1562.000000	0.040021
1561.000000	0.040499
1560.000000	0.041030
1559.000000	0.041576
1558.000000	0.042160
1557.000000	0.042722
1556.000000	0.043354
1555.000000	0.044137
1554.000000	0.044934
1553.000000	0.045533
1552.000000	0.045947
1551.000000	0.046363
1550.000000	0.046823
1549.000000	0.047247
1548.000000	0.047580
1547.000000	0.047855
1546.000000	0.048095
1545.000000	0.048238
1544.000000	0.048252
1543.000000	0.048229
1542.000000	0.048260
1541.000000	0.048370
1540.000000	0.048573
1539.000000	0.048823
1538.000000	0.048951
1537.000000	0.048923
1536.000000	0.048881
1535.000000	0.048853
1534.000000	0.048741
1533.000000	0.048498
1532.000000	0.048238
1531.000000	0.048045
1530.000000	0.047872
1529.000000	0.047657
1528.000000	0.047385
1527.000000	0.047062
1526.000000	0.046700
1525.000000	0.046304
1524.000000	0.045910
1523.000000	0.045553
1522.000000	0.045185
1521.000000	0.044773
1520.000000	0.044341
1519.000000	0.043931
1518.000000	0.043593
1517.000000	0.043303
1516.000000	0.043008
1515.000000	0.042678
1514.000000	0.042320
1513.000000	0.041905
1512.000000	0.041365
1511.000000	0.040665
1510.000000	0.039876
1509.000000	0.039081
1508.000000	0.038230
1507.000000	0.037258
1506.000000	0.036436
1505.000000	0.035912
1504.000000	0.035474
1503.000000	0.035030
1502.000000	0.034553
1501.000000	0.033995
1500.000000	0.033331
1499.000000	0.032605
1498.000000	0.031877
1497.000000	0.031184
1496.000000	0.030540
1495.000000	0.029883
1494.000000	0.029201
1493.000000	0.028566
1492.000000	0.027985
1491.000000	0.027347
1490.000000	0.026620
1489.000000	0.025996
1488.000000	0.025644
1487.000000	0.025484
1486.000000	0.025375
1485.000000	0.025306
1484.000000	0.025271
1483.000000	0.025256
1482.000000	0.025257
1481.000000	0.025291
1480.000000	0.025367
1479.000000	0.025461
1478.000000	0.025568
1477.000000	0.025700
1476.000000	0.025882
1475.000000	0.026134
1474.000000	0.026563
1473.000000	0.027282
1472.000000	0.028230
1471.000000	0.029174
1470.000000	0.030004
1469.000000	0.030768
1468.000000	0.031482
1467.000000	0.032095
1466.000000	0.032613
1465.000000	0.033098
1464.000000	0.033538
1463.000000	0.033884
1462.000000	0.034137
1461.000000	0.034358
1460.000000	0.034601
1459.000000	0.034920
1458.000000	0.035410
1457.000000	0.036101
1456.000000	0.036741
1455.000000	0.037085
1454.000000	0.037282
1453.000000	0.037520
1452.000000	0.037765
1451.000000	0.037900
1450.000000	0.037916
1449.000000	0.037904
1448.000000	0.037904
1447.000000	0.037870
1446.000000	0.037823
1445.000000	0.037791
1444.000000	0.037757
1443.000000	0.037687
1442.000000	0.037542
1441.000000	0.037321
1440.000000	0.037052
1439.000000	0.036777
1438.000000	0.036484
1437.000000	0.036126
1436.000000	0.035706
1435.000000	0.035279
1434.000000	0.034905
1433.000000	0.034606
1432.000000	0.034329
1431.000000	0.034005
1430.000000	0.033645
1429.000000	0.033337
1428.000000	0.033126
1427.000000	0.032960
1426.000000	0.032817
1425.000000	0.032692
1424.000000	0.032566
1423.000000	0.032448
1422.000000	0.032381
1421.000000	0.032403
1420.000000	0.032460
1419.000000	0.032451
1418.000000	0.032369
1417.000000	0.032324
1416.000000	0.032386
1415.000000	0.032499
1414.000000	0.032569
1413.000000	0.032582
1412.000000	0.032595
1411.000000	0.032641
1410.000000	0.032697
1409.000000	0.032743
1408.000000	0.032797
1407.000000	0.032853
1406.000000	0.032912
1405.000000	0.032987
1404.000000	0.033070
1403.000000	0.033128
1402.000000	0.033148
1401.000000	0.033151
1400.000000	0.033121
1399.000000	0.033006
1398.000000	0.032810
1397.000000	0.032615
1396.000000	0.032482
1395.000000	0.032383
1394.000000	0.032279
1393.000000	0.032169
1392.000000	0.032062
1391.000000	0.031952
1390.000000	0.031822
1389.000000	0.031665
1388.000000	0.031488
1387.000000	0.031294
1386.000000	0.031103
1385.000000	0.030951
1384.000000	0.030844
1383.000000	0.030741
1382.000000	0.030597
1381.000000	0.030429
1380.000000	0.030272
1379.000000	0.030100
1378.000000	0.029861
1377.000000	0.029547
1376.000000	0.029183
1375.000000	0.028792
1374.000000	0.028412
1373.000000	0.028089
1372.000000	0.027829
1371.000000	0.027585
1370.000000	0.027315
1369.000000	0.027005
1368.000000	0.026665
1367.000000	0.026306
1366.000000	0.025929
1365.000000	0.025542
1364.000000	0.025157
1363.000000	0.024800
1362.000000	0.024516
1361.000000	0.024332
1360.000000	0.024225
1359.000000	0.024149
1358.000000	0.024085
1357.000000	0.024045
1356.000000	0.024040
1355.000000	0.024055
1354.000000	0.024079
1353.000000	0.024128
1352.000000	0.024229
1351.000000	0.024370
1350.000000	0.024530
1349.000000	0.024706
1348.000000	0.024898
1347.000000	0.025103
1346.000000	0.025314
1345.000000	0.025534
1344.000000	0.025759
1343.000000	0.025961
1342.000000	0.026114
1341.000000	0.026219
1340.000000	0.026300
1339.000000	0.026384
1338.000000	0.026488
1337.000000	0.026611
1336.000000	0.026718
1335.000000	0.026760
1334.000000	0.026713
1333.000000	0.026598
1332.000000	0.026445
1331.000000	0.026263
1330.000000	0.026064
1329.000000	0.025870
1328.000000	0.025700
1327.000000	0.025545
1326.000000	0.025403
1325.000000	0.025286
1324.000000	0.025196
1323.000000	0.025114
1322.000000	0.025024
1321.000000	0.024942
1320.000000	0.024890
1319.000000	0.024863
1318.000000	0.024837
1317.000000	0.024802
1316.000000	0.024759
1315.000000	0.024701
1314.000000	0.024617
1313.000000	0.024510
1312.000000	0.024381
1311.000000	0.024228
1310.000000	0.024066
1309.000000	0.023920
1308.000000	0.023800
1307.000000	0.023683
1306.000000	0.023550
1305.000000	0.023412
1304.000000	0.023279
1303.000000	0.023144
1302.000000	0.023002
1301.000000	0.022870
1300.000000	0.022763
1299.000000	0.022672
1298.000000	0.022586
1297.000000	0.022513
1296.000000	0.022471
1295.000000	0.022458
1294.000000	0.022473
1293.000000	0.022529
1292.000000	0.022633
1291.000000	0.022767
1290.000000	0.022914
1289.000000	0.023081
1288.000000	0.023272
1287.000000	0.023465
1286.000000	0.023642
1285.000000	0.023816
1284.000000	0.023995
1283.000000	0.024158
1282.000000	0.024282
1281.000000	0.024373
1280.000000	0.024448
1279.000000	0.024503
1278.000000	0.024530
1277.000000	0.024542
1276.000000	0.024552
1275.000000	0.024538
1274.000000	0.024486
1273.000000	0.024423
1272.000000	0.024394
1271.000000	0.024425
1270.000000	0.024512
1269.000000	0.024641
1268.000000	0.024786
1267.000000	0.024906
1266.000000	0.024989
1265.000000	0.025069
1264.000000	0.025188
1263.000000	0.025344
1262.000000	0.025521
1261.000000	0.025719
1260.000000	0.025940
1259.000000	0.026166
1258.000000	0.026385
1257.000000	0.026608
1256.000000	0.026837
1255.000000	0.027051
1254.000000	0.027243
1253.000000	0.027451
1252.000000	0.027712
1251.000000	0.028020
1250.000000	0.028354
1249.000000	0.028710
1248.000000	0.029085
1247.000000	0.029453
1246.000000	0.029786
1245.000000	0.030088
1244.000000	0.030371
1243.000000	0.030631
1242.000000	0.030871
1241.000000	0.031105
1240.000000	0.031334
1239.000000	0.031525
1238.000000	0.031659
1237.000000	0.031748
1236.000000	0.031796
1235.000000	0.031778
1234.000000	0.031684
1233.000000	0.031544
1232.000000	0.031382
1231.000000	0.031180
1230.000000	0.030924
1229.000000	0.030633
1228.000000	0.030315
1227.000000	0.029936
1226.000000	0.029473
1225.000000	0.028959
1224.000000	0.028442
1223.000000	0.027929
1222.000000	0.027408
1221.000000	0.026893
1220.000000	0.026410
1219.000000	0.025970
1218.000000	0.025569
1217.000000	0.025222
1216.000000	0.024944
1215.000000	0.024722
1214.000000	0.024533
1213.000000	0.024380
1212.000000	0.024281
1211.000000	0.024241
1210.000000	0.024260
1209.000000	0.024335
1208.000000	0.024447
1207.000000	0.024558
1206.000000	0.024648
1205.000000	0.024728
1204.000000	0.024803
1203.000000	0.024836
1202.000000	0.024799
1201.000000	0.024706
1200.000000	0.024580
1199.000000	0.024420
1198.000000	0.024218
1197.000000	0.023991
1196.000000	0.023754
1195.000000	0.023499
1194.000000	0.023228
1193.000000	0.022968
1192.000000	0.022732
1191.000000	0.022493
1190.000000	0.022225
1189.000000	0.021958
1188.000000	0.021739
1187.000000	0.021574
1186.000000	0.021435
1185.000000	0.021306
1184.000000	0.021194
1183.000000	0.021108
1182.000000	0.021053
1181.000000	0.021044
1180.000000	0.021079
1179.000000	0.021134
1178.000000	0.021194
1177.000000	0.021273
1176.000000	0.021381
1175.000000	0.021503
1174.000000	0.021629
1173.000000	0.021778
1172.000000	0.021959
1171.000000	0.022147
1170.000000	0.022321
1169.000000	0.022495
1168.000000	0.022689
1167.000000	0.022888
1166.000000	0.023063
1165.000000	0.023214
1164.000000	0.023356
1163.000000	0.023487
1162.000000	0.023597
1161.000000	0.023680
1160.000000	0.023719
1159.000000	0.023690
1158.000000	0.023599
1157.000000	0.023482
1156.000000	0.023349
1155.000000	0.023163
1154.000000	0.022907
1153.000000	0.022620
1152.000000	0.022348
1151.000000	0.022096
1150.000000	0.021849
1149.000000	0.021610
1148.000000	0.021373
1147.000000	0.021109
1146.000000	0.020806
1145.000000	0.020495
1144.000000	0.020202
1143.000000	0.019907
1142.000000	0.019594
1141.000000	0.019280
1140.000000	0.018983
1139.000000	0.018675
1138.000000	0.018336
1137.000000	0.017996
1136.000000	0.017690
1135.000000	0.017414
1134.000000	0.017153
1133.000000	0.016930
1132.000000	0.016772
1131.000000	0.016666
1130.000000	0.016581
1129.000000	0.016521
1128.000000	0.016501
1127.000000	0.016519
1126.000000	0.016560
1125.000000	0.016634
1124.000000	0.016742
1123.000000	0.016860
1122.000000	0.016969
1121.000000	0.017082
1120.000000	0.017205
1119.000000	0.017309
1118.000000	0.017369
1117.000000	0.017408
1116.000000	0.017459
1115.000000	0.017516
1114.000000	0.017567
1113.000000	0.017619
1112.000000	0.017675
1111.000000	0.017713
1110.000000	0.017721
1109.000000	0.017733
1108.000000	0.017775
1107.000000	0.017833
1106.000000	0.017892
1105.000000	0.017975
1104.000000	0.018097
1103.000000	0.018222
1102.000000	0.018313
1101.000000	0.018386
1100.000000	0.018473
1099.000000	0.018567
1098.000000	0.018643
1097.000000	0.018708
1096.000000	0.018773
1095.000000	0.018830
1094.000000	0.018885
1093.000000	0.018983
1092.000000	0.019160
1091.000000	0.019391
1090.000000	0.019638
1089.000000	0.019903
1088.000000	0.020196
1087.000000	0.020500
1086.000000	0.020798
1085.000000	0.021099
1084.000000	0.021391
1083.000000	0.021614
1082.000000	0.021729
1081.000000	0.021762
1080.000000	0.021745
1079.000000	0.021664
1078.000000	0.021495
1077.000000	0.021255
1076.000000	0.020965
1075.000000	0.020622
1074.000000	0.020244
1073.000000	0.019898
1072.000000	0.019636
1071.000000	0.019439
1070.000000	0.019273
1069.000000	0.019153
1068.000000	0.019100
1067.000000	0.019096
1066.000000	0.019112
1065.000000	0.019155
1064.000000	0.019233
1063.000000	0.019313
1062.000000	0.019359
1061.000000	0.019375
1060.000000	0.019381
1059.000000	0.019367
1058.000000	0.019333
1057.000000	0.019299
1056.000000	0.019263
1055.000000	0.019190
1054.000000	0.019078
1053.000000	0.018991
1052.000000	0.018974
1051.000000	0.018993
1050.000000	0.019003
1049.000000	0.019021
1048.000000	0.019073
1047.000000	0.019128
1046.000000	0.019141
1045.000000	0.019120
1044.000000	0.019099
1043.000000	0.019088
1042.000000	0.019096
1041.000000	0.019149
1040.000000	0.019246
1039.000000	0.019353
1038.000000	0.019472
1037.000000	0.019665
1036.000000	0.019954
1035.000000	0.020265
1034.000000	0.020515
1033.000000	0.020706
1032.000000	0.020881
1031.000000	0.021041
1030.000000	0.021159
1029.000000	0.021231
1028.000000	0.021251
1027.000000	0.021197
1026.000000	0.021086
1025.000000	0.021001
1024.000000	0.020987
1023.000000	0.020992
1022.000000	0.020949
1021.000000	0.020869
1020.000000	0.020805
1019.000000	0.020766
1018.000000	0.020728
1017.000000	0.020670
1016.000000	0.020551
1015.000000	0.020313
1014.000000	0.019956
1013.000000	0.019557
1012.000000	0.019174
1011.000000	0.018791
1010.000000	0.018387
1009.000000	0.018006
1008.000000	0.017683
1007.000000	0.017386
1006.000000	0.017075
1005.000000	0.016770
1004.000000	0.016498
1003.000000	0.016232
1002.000000	0.015938
1001.000000	0.015636
1000.000000	0.015361
999.000000	0.015096
998.000000	0.014815
997.000000	0.014537
996.000000	0.014285
995.000000	0.014042
994.000000	0.013785
993.000000	0.013543
992.000000	0.013341
991.000000	0.013150
990.000000	0.012935
989.000000	0.012714
988.000000	0.012507
987.000000	0.012292
986.000000	0.012051
985.000000	0.011819
984.000000	0.011638
983.000000	0.011484
982.000000	0.011328
981.000000	0.011189
980.000000	0.011094
979.000000	0.011018
978.000000	0.010928
977.000000	0.010846
976.000000	0.010806
975.000000	0.010780
974.000000	0.010718
973.000000	0.010616
972.000000	0.010504
971.000000	0.010391
970.000000	0.010274
969.000000	0.010158
968.000000	0.010032
967.000000	0.009860
966.000000	0.009637
965.000000	0.009428
964.000000	0.009279
963.000000	0.009157
962.000000	0.009009
961.000000	0.008841
960.000000	0.008683
959.000000	0.008530
958.000000	0.008373
957.000000	0.008243
956.000000	0.008163
955.000000	0.008093
954.000000	0.007989
953.000000	0.007871
952.000000	0.007783
951.000000	0.007718
950.000000	0.007652
949.000000	0.007598
948.000000	0.007574
947.000000	0.007549
946.000000	0.007495
945.000000	0.007442
944.000000	0.007438
943.000000	0.007469
942.000000	0.007496
941.000000	0.007517
940.000000	0.007541
939.000000	0.007539
938.000000	0.007483
937.000000	0.007393
936.000000	0.007312
935.000000	0.007253
934.000000	0.007217
933.000000	0.007223
932.000000	0.007266
931.000000	0.007289
930.000000	0.007255
929.000000	0.007200
928.000000	0.007163
927.000000	0.007117
926.000000	0.007030
925.000000	0.006941
924.000000	0.006905
923.000000	0.006908
922.000000	0.006902
921.000000	0.006877
920.000000	0.006842
919.000000	0.006770
918.000000	0.006638
917.000000	0.006482
916.000000	0.006352
915.000000	0.006243
914.000000	0.006133
913.000000	0.006037
912.000000	0.005978
911.000000	0.005936
910.000000	0.005879
909.000000	0.005827
908.000000	0.005801
907.000000	0.005779
906.000000	0.005731
905.000000	0.005680
904.000000	0.005658
903.000000	0.005651
902.000000	0.005627
901.000000	0.005589
900.000000	0.005543
899.000000	0.005471
898.000000	0.005378
897.000000	0.005320
896.000000	0.005320
895.000000	0.005324
894.000000	0.005286
893.000000	0.005243
892.000000	0.005245
891.000000	0.005273
890.000000	0.005289
889.000000	0.005310
888.000000	0.005367
887.000000	0.005439
886.000000	0.005498
885.000000	0.005574
884.000000	0.005700
883.000000	0.005856
882.000000	0.006019
881.000000	0.006221
880.000000	0.006484
879.000000	0.006759
878.000000	0.007001
877.000000	0.007230
876.000000	0.007455
875.000000	0.007603
874.000000	0.007609
873.000000	0.007508
872.000000	0.007356
871.000000	0.007146
870.000000	0.006868
869.000000	0.006588
868.000000	0.006376
867.000000	0.006223
866.000000	0.006090
865.000000	0.005987
864.000000	0.005931
863.000000	0.005891
862.000000	0.005844
861.000000	0.005825
860.000000	0.005848
859.000000	0.005853
858.000000	0.005795
857.000000	0.005735
856.000000	0.005751
855.000000	0.005837
854.000000	0.005942
853.000000	0.006053
852.000000	0.006149
851.000000	0.006167
850.000000	0.006079
849.000000	0.005963
848.000000	0.005893
847.000000	0.005854
846.000000	0.005810
845.000000	0.005794
844.000000	0.005831
843.000000	0.005854
842.000000	0.005787
841.000000	0.005654
840.000000	0.005528
839.000000	0.005435
838.000000	0.005380
837.000000	0.005392
836.000000	0.005456
835.000000	0.005484
834.000000	0.005423
833.000000	0.005343
832.000000	0.005323
831.000000	0.005328
830.000000	0.005293
829.000000	0.005241
828.000000	0.005227
827.000000	0.005230
826.000000	0.005218
825.000000	0.005236
824.000000	0.005325
823.000000	0.005420
822.000000	0.005443
821.000000	0.005423
820.000000	0.005428
819.000000	0.005451
818.000000	0.005455
817.000000	0.005468
816.000000	0.005523
815.000000	0.005573
814.000000	0.005561
813.000000	0.005523
812.000000	0.005518
811.000000	0.005531
810.000000	0.005514
809.000000	0.005482
808.000000	0.005459
807.000000	0.005416
806.000000	0.005335
805.000000	0.005271
804.000000	0.005262
803.000000	0.005262
802.000000	0.005234
801.000000	0.005236
800.000000	0.005322
799.000000	0.005423
798.000000	0.005447
797.000000	0.005416
796.000000	0.005406
795.000000	0.005427
794.000000	0.005445
793.000000	0.005480
792.000000	0.005564
791.000000	0.005672
790.000000	0.005762
789.000000	0.005845
788.000000	0.005933
787.000000	0.005988
786.000000	0.005988
785.000000	0.005983
784.000000	0.006012
783.000000	0.006031
782.000000	0.005998
781.000000	0.005946
780.000000	0.005925
779.000000	0.005923
778.000000	0.005931
777.000000	0.005990
776.000000	0.006103
775.000000	0.006191
774.000000	0.006192
773.000000	0.006154
772.000000	0.006145
771.000000	0.006152
770.000000	0.006157
769.000000	0.006203
768.000000	0.006314
767.000000	0.006427
766.000000	0.006484
765.000000	0.006523
764.000000	0.006582
763.000000	0.006610
762.000000	0.006554
761.000000	0.006465
760.000000	0.006425
759.000000	0.006443
758.000000	0.006496
757.000000	0.006595
756.000000	0.006724
755.000000	0.006799
754.000000	0.006775
753.000000	0.006717
752.000000	0.006693
751.000000	0.006681
750.000000	0.006662
749.000000	0.006687
748.000000	0.006788
747.000000	0.006897
746.000000	0.006965
745.000000	0.007046
744.000000	0.007186
743.000000	0.007321
742.000000	0.007392
741.000000	0.007459
740.000000	0.007586
739.000000	0.007720
738.000000	0.007792
737.000000	0.007842
736.000000	0.007940
735.000000	0.008058
734.000000	0.008140
733.000000	0.008223
732.000000	0.008368
731.000000	0.008548
730.000000	0.008705
729.000000	0.008859
728.000000	0.009047
727.000000	0.009228
726.000000	0.009356
725.000000	0.009481
724.000000	0.009664
723.000000	0.009863
722.000000	0.010005
721.000000	0.010096
720.000000	0.010168
719.000000	0.010194
718.000000	0.010155
717.000000	0.010114
716.000000	0.010129
715.000000	0.010181
714.000000	0.010252
713.000000	0.010375
712.000000	0.010536
711.000000	0.010615
710.000000	0.010549
709.000000	0.010454
708.000000	0.010480
707.000000	0.010620
706.000000	0.010783
705.000000	0.010938
704.000000	0.011066
703.000000	0.011085
702.000000	0.010958
701.000000	0.010803
700.000000	0.010767
699.000000	0.010848
698.000000	0.010954
697.000000	0.011052
696.000000	0.011149
695.000000	0.011217
694.000000	0.011231
693.000000	0.011240
692.000000	0.011282
691.000000	0.011304
690.000000	0.011260
689.000000	0.011224
688.000000	0.011266
687.000000	0.011329
686.000000	0.011338
685.000000	0.011331
684.000000	0.011386
683.000000	0.011477
682.000000	0.011537
681.000000	0.011586
680.000000	0.011666
679.000000	0.011745
678.000000	0.011785
677.000000	0.011856
676.000000	0.012012
675.000000	0.012172
674.000000	0.012246
673.000000	0.012281
672.000000	0.012333
671.000000	0.012319
670.000000	0.012109
669.000000	0.011723
668.000000	0.011462
667.000000	0.011663
666.000000	0.012032
665.000000	0.012363
664.000000	0.012654
663.000000	0.012823
662.000000	0.012814
661.000000	0.012732
660.000000	0.012719
659.000000	0.012763
658.000000	0.012779
657.000000	0.012785
656.000000	0.012816
655.000000	0.012816
654.000000	0.012766
653.000000	0.012761
652.000000	0.012848
651.000000	0.012926
650.000000	0.012920
649.000000	0.012903
648.000000	0.012921
647.000000	0.012884
646.000000	0.012750
645.000000	0.012633
644.000000	0.012610
643.000000	0.012607
642.000000	0.012567
641.000000	0.012573
640.000000	0.012674
639.000000	0.012754
638.000000	0.012717
637.000000	0.012639
636.000000	0.012607
635.000000	0.012580
634.000000	0.012530
633.000000	0.012539
632.000000	0.012639
631.000000	0.012723
630.000000	0.012745
629.000000	0.012819
628.000000	0.012987
627.000000	0.013078
626.000000	0.012974
625.000000	0.012812
624.000000	0.012768
623.000000	0.012807
622.000000	0.012815
621.000000	0.012801
620.000000	0.012803
619.000000	0.012766
618.000000	0.012679
617.000000	0.012678
616.000000	0.012846
615.000000	0.013057
614.000000	0.013180
613.000000	0.013251
612.000000	0.013313
611.000000	0.013273
610.000000	0.013090
609.000000	0.012915
608.000000	0.012885
607.000000	0.012917
606.000000	0.012889
605.000000	0.012838
604.000000	0.012818
603.000000	0.012780
602.000000	0.012716
601.000000	0.012744
600.000000	0.012873
599.000000	0.012919
598.000000	0.012808
597.000000	0.012748
596.000000	0.012897
595.000000	0.013106
594.000000	0.013171
593.000000	0.013147
592.000000	0.013173
591.000000	0.013203
590.000000	0.013152
589.000000	0.013111
588.000000	0.013170
587.000000	0.013206
586.000000	0.013064
585.000000	0.012815
584.000000	0.012629
583.000000	0.012545
582.000000	0.012561
581.000000	0.012765
580.000000	0.013160
579.000000	0.013519
578.000000	0.013636
577.000000	0.013567
576.000000	0.013468
575.000000	0.013367
574.000000	0.013279
573.000000	0.013316
572.000000	0.013496
571.000000	0.013644
570.000000	0.013673
569.000000	0.013752
568.000000	0.014000
567.000000	0.014245
566.000000	0.014298
565.000000	0.014245
564.000000	0.014235
563.000000	0.014224
562.000000	0.014143
561.000000	0.014103
560.000000	0.014186
559.000000	0.014272
558.000000	0.014254
557.000000	0.014241
556.000000	0.014310
555.000000	0.014317
554.000000	0.014154
553.000000	0.013969
552.000000	0.013921
551.000000	0.013945
550.000000	0.013948
549.000000	0.013985
548.000000	0.014059
547.000000	0.014004
546.000000	0.013781
545.000000	0.013597
544.000000	0.013551
543.000000	0.013449
542.000000	0.013193
541.000000	0.012997
540.000000	0.013020
539.000000	0.013103
538.000000	0.013125
537.000000	0.013268
536.000000	0.013671
535.000000	0.014106
534.000000	0.014318
533.000000	0.014385
532.000000	0.014448
531.000000	0.014402
530.000000	0.014146
529.000000	0.013845
528.000000	0.013674
527.000000	0.013564
526.000000	0.013449
525.000000	0.013478
524.000000	0.013659
523.000000	0.013679
522.000000	0.013346
521.000000	0.012902
520.000000	0.012628
519.000000	0.012434
518.000000	0.012112
517.000000	0.011767
516.000000	0.011613
515.000000	0.011623
514.000000	0.011688
513.000000	0.011834
512.000000	0.012016
511.000000	0.012002
510.000000	0.011712
509.000000	0.011401
508.000000	0.011245
507.000000	0.011077
506.000000	0.010763
505.000000	0.010494
504.000000	0.010397
503.000000	0.010256
502.000000	0.009916
501.000000	0.009615
500.000000	0.009548
499.000000	0.009508
498.000000	0.009289
497.000000	0.009068
496.000000	0.009054
495.000000	0.009097
494.000000	0.008981
493.000000	0.008791
492.000000	0.008681
491.000000	0.008555
490.000000	0.008326
489.000000	0.008173
488.000000	0.008193
487.000000	0.008135
486.000000	0.007824
485.000000	0.007527
484.000000	0.007562
483.000000	0.007792
482.000000	0.007904
481.000000	0.007871
480.000000	0.007798
479.000000	0.007643
478.000000	0.007432
477.000000	0.007391
476.000000	0.007542
475.000000	0.007542
474.000000	0.007221
473.000000	0.006935
472.000000	0.006998
471.000000	0.007154
470.000000	0.007138
469.000000	0.007166
468.000000	0.007388
467.000000	0.007442
466.000000	0.007033
465.000000	0.006493
464.000000	0.006224
463.000000	0.006087
462.000000	0.005817
461.000000	0.005593
460.000000	0.005642
459.000000	0.005686
458.000000	0.005370
457.000000	0.004978
456.000000	0.004964
455.000000	0.005177
454.000000	0.005302
453.000000	0.005406
452.000000	0.005619
451.000000	0.005748
450.000000	0.005647
