PE IR       SUBTECH     SPECTRUM    ASCII       PEDS        4.00        
   -1
3C-N10-F037_1.ASC
22/02/16
15:52:29.00
22/02/16
15:56:00.00
uco
Sample 037 By uco Date Wednesday, February 16 2022
450.000000
#HDR
-1
-1
#GR
cm-1
A
1.0
0.0
4000.000000
-1.000000
3551
8
0.060423
0.005203
#DATA
4000.000000	0.005709
3999.000000	0.005709
3998.000000	0.005716
3997.000000	0.005737
3996.000000	0.005770
3995.000000	0.005802
3994.000000	0.005823
3993.000000	0.005837
3992.000000	0.005835
3991.000000	0.005833
3990.000000	0.005834
3989.000000	0.005834
3988.000000	0.005826
3987.000000	0.005809
3986.000000	0.005791
3985.000000	0.005780
3984.000000	0.005778
3983.000000	0.005778
3982.000000	0.005773
3981.000000	0.005763
3980.000000	0.005753
3979.000000	0.005750
3978.000000	0.005754
3977.000000	0.005760
3976.000000	0.005767
3975.000000	0.005774
3974.000000	0.005784
3973.000000	0.005794
3972.000000	0.005800
3971.000000	0.005796
3970.000000	0.005785
3969.000000	0.005776
3968.000000	0.005776
3967.000000	0.005791
3966.000000	0.005817
3965.000000	0.005846
3964.000000	0.005870
3963.000000	0.005884
3962.000000	0.005887
3961.000000	0.005882
3960.000000	0.005873
3959.000000	0.005864
3958.000000	0.005857
3957.000000	0.005855
3956.000000	0.005858
3955.000000	0.005866
3954.000000	0.005880
3953.000000	0.005894
3952.000000	0.005900
3951.000000	0.005892
3950.000000	0.005872
3949.000000	0.005849
3948.000000	0.005830
3947.000000	0.005818
3946.000000	0.005811
3945.000000	0.005815
3944.000000	0.005836
3943.000000	0.005879
3942.000000	0.005933
3941.000000	0.005974
3940.000000	0.005987
3939.000000	0.005972
3938.000000	0.005939
3937.000000	0.005902
3936.000000	0.005870
3935.000000	0.005844
3934.000000	0.005827
3933.000000	0.005823
3932.000000	0.005834
3931.000000	0.005851
3930.000000	0.005865
3929.000000	0.005869
3928.000000	0.005870
3927.000000	0.005875
3926.000000	0.005891
3925.000000	0.005917
3924.000000	0.005946
3923.000000	0.005967
3922.000000	0.005967
3921.000000	0.005946
3920.000000	0.005912
3919.000000	0.005880
3918.000000	0.005858
3917.000000	0.005847
3916.000000	0.005844
3915.000000	0.005840
3914.000000	0.005835
3913.000000	0.005832
3912.000000	0.005832
3911.000000	0.005833
3910.000000	0.005832
3909.000000	0.005829
3908.000000	0.005830
3907.000000	0.005837
3906.000000	0.005849
3905.000000	0.005858
3904.000000	0.005862
3903.000000	0.005865
3902.000000	0.005866
3901.000000	0.005866
3900.000000	0.005867
3899.000000	0.005870
3898.000000	0.005874
3897.000000	0.005877
3896.000000	0.005882
3895.000000	0.005889
3894.000000	0.005896
3893.000000	0.005896
3892.000000	0.005890
3891.000000	0.005886
3890.000000	0.005888
3889.000000	0.005885
3888.000000	0.005861
3887.000000	0.005817
3886.000000	0.005775
3885.000000	0.005762
3884.000000	0.005782
3883.000000	0.005817
3882.000000	0.005849
3881.000000	0.005873
3880.000000	0.005888
3879.000000	0.005892
3878.000000	0.005881
3877.000000	0.005853
3876.000000	0.005817
3875.000000	0.005794
3874.000000	0.005797
3873.000000	0.005818
3872.000000	0.005833
3871.000000	0.005829
3870.000000	0.005821
3869.000000	0.005827
3868.000000	0.005840
3867.000000	0.005848
3866.000000	0.005852
3865.000000	0.005868
3864.000000	0.005901
3863.000000	0.005934
3862.000000	0.005956
3861.000000	0.005964
3860.000000	0.005968
3859.000000	0.005972
3858.000000	0.005976
3857.000000	0.005971
3856.000000	0.005948
3855.000000	0.005908
3854.000000	0.005872
3853.000000	0.005864
3852.000000	0.005877
3851.000000	0.005890
3850.000000	0.005897
3849.000000	0.005904
3848.000000	0.005913
3847.000000	0.005921
3846.000000	0.005924
3845.000000	0.005920
3844.000000	0.005909
3843.000000	0.005893
3842.000000	0.005874
3841.000000	0.005847
3840.000000	0.005819
3839.000000	0.005806
3838.000000	0.005817
3837.000000	0.005841
3836.000000	0.005862
3835.000000	0.005871
3834.000000	0.005874
3833.000000	0.005880
3832.000000	0.005894
3831.000000	0.005910
3830.000000	0.005915
3829.000000	0.005899
3828.000000	0.005865
3827.000000	0.005834
3826.000000	0.005826
3825.000000	0.005848
3824.000000	0.005884
3823.000000	0.005912
3822.000000	0.005917
3821.000000	0.005905
3820.000000	0.005891
3819.000000	0.005875
3818.000000	0.005856
3817.000000	0.005837
3816.000000	0.005829
3815.000000	0.005829
3814.000000	0.005824
3813.000000	0.005808
3812.000000	0.005799
3811.000000	0.005815
3810.000000	0.005849
3809.000000	0.005871
3808.000000	0.005856
3807.000000	0.005816
3806.000000	0.005787
3805.000000	0.005785
3804.000000	0.005799
3803.000000	0.005821
3802.000000	0.005849
3801.000000	0.005882
3800.000000	0.005903
3799.000000	0.005900
3798.000000	0.005877
3797.000000	0.005851
3796.000000	0.005839
3795.000000	0.005839
3794.000000	0.005840
3793.000000	0.005828
3792.000000	0.005809
3791.000000	0.005793
3790.000000	0.005790
3789.000000	0.005802
3788.000000	0.005820
3787.000000	0.005836
3786.000000	0.005844
3785.000000	0.005847
3784.000000	0.005846
3783.000000	0.005841
3782.000000	0.005826
3781.000000	0.005802
3780.000000	0.005782
3779.000000	0.005783
3778.000000	0.005803
3777.000000	0.005823
3776.000000	0.005828
3775.000000	0.005820
3774.000000	0.005809
3773.000000	0.005804
3772.000000	0.005803
3771.000000	0.005809
3770.000000	0.005823
3769.000000	0.005840
3768.000000	0.005851
3767.000000	0.005850
3766.000000	0.005840
3765.000000	0.005831
3764.000000	0.005829
3763.000000	0.005831
3762.000000	0.005828
3761.000000	0.005815
3760.000000	0.005799
3759.000000	0.005790
3758.000000	0.005794
3757.000000	0.005810
3756.000000	0.005829
3755.000000	0.005835
3754.000000	0.005819
3753.000000	0.005781
3752.000000	0.005735
3751.000000	0.005697
3750.000000	0.005677
3749.000000	0.005678
3748.000000	0.005695
3747.000000	0.005714
3746.000000	0.005723
3745.000000	0.005729
3744.000000	0.005747
3743.000000	0.005775
3742.000000	0.005795
3741.000000	0.005800
3740.000000	0.005798
3739.000000	0.005798
3738.000000	0.005800
3737.000000	0.005791
3736.000000	0.005762
3735.000000	0.005719
3734.000000	0.005682
3733.000000	0.005667
3732.000000	0.005679
3731.000000	0.005712
3730.000000	0.005749
3729.000000	0.005770
3728.000000	0.005761
3727.000000	0.005728
3726.000000	0.005692
3725.000000	0.005679
3724.000000	0.005700
3723.000000	0.005743
3722.000000	0.005781
3721.000000	0.005788
3720.000000	0.005763
3719.000000	0.005729
3718.000000	0.005706
3717.000000	0.005704
3716.000000	0.005714
3715.000000	0.005732
3714.000000	0.005758
3713.000000	0.005798
3712.000000	0.005853
3711.000000	0.005908
3710.000000	0.005941
3709.000000	0.005937
3708.000000	0.005901
3707.000000	0.005854
3706.000000	0.005818
3705.000000	0.005800
3704.000000	0.005793
3703.000000	0.005783
3702.000000	0.005761
3701.000000	0.005727
3700.000000	0.005689
3699.000000	0.005660
3698.000000	0.005654
3697.000000	0.005676
3696.000000	0.005723
3695.000000	0.005781
3694.000000	0.005834
3693.000000	0.005868
3692.000000	0.005878
3691.000000	0.005871
3690.000000	0.005862
3689.000000	0.005865
3688.000000	0.005876
3687.000000	0.005884
3686.000000	0.005881
3685.000000	0.005874
3684.000000	0.005875
3683.000000	0.005898
3682.000000	0.005942
3681.000000	0.005998
3680.000000	0.006067
3679.000000	0.006148
3678.000000	0.006222
3677.000000	0.006254
3676.000000	0.006231
3675.000000	0.006183
3674.000000	0.006143
3673.000000	0.006114
3672.000000	0.006095
3671.000000	0.006099
3670.000000	0.006135
3669.000000	0.006185
3668.000000	0.006221
3667.000000	0.006238
3666.000000	0.006250
3665.000000	0.006270
3664.000000	0.006296
3663.000000	0.006319
3662.000000	0.006334
3661.000000	0.006341
3660.000000	0.006352
3659.000000	0.006377
3658.000000	0.006416
3657.000000	0.006457
3656.000000	0.006486
3655.000000	0.006500
3654.000000	0.006502
3653.000000	0.006496
3652.000000	0.006489
3651.000000	0.006501
3650.000000	0.006553
3649.000000	0.006650
3648.000000	0.006766
3647.000000	0.006880
3646.000000	0.006978
3645.000000	0.007053
3644.000000	0.007100
3643.000000	0.007120
3642.000000	0.007120
3641.000000	0.007114
3640.000000	0.007114
3639.000000	0.007128
3638.000000	0.007157
3637.000000	0.007193
3636.000000	0.007231
3635.000000	0.007278
3634.000000	0.007341
3633.000000	0.007416
3632.000000	0.007488
3631.000000	0.007552
3630.000000	0.007613
3629.000000	0.007678
3628.000000	0.007735
3627.000000	0.007769
3626.000000	0.007783
3625.000000	0.007798
3624.000000	0.007825
3623.000000	0.007862
3622.000000	0.007898
3621.000000	0.007926
3620.000000	0.007956
3619.000000	0.008006
3618.000000	0.008078
3617.000000	0.008156
3616.000000	0.008229
3615.000000	0.008300
3614.000000	0.008375
3613.000000	0.008452
3612.000000	0.008520
3611.000000	0.008574
3610.000000	0.008622
3609.000000	0.008677
3608.000000	0.008743
3607.000000	0.008807
3606.000000	0.008859
3605.000000	0.008897
3604.000000	0.008935
3603.000000	0.008982
3602.000000	0.009041
3601.000000	0.009102
3600.000000	0.009159
3599.000000	0.009213
3598.000000	0.009271
3597.000000	0.009342
3596.000000	0.009428
3595.000000	0.009522
3594.000000	0.009609
3593.000000	0.009671
3592.000000	0.009700
3591.000000	0.009708
3590.000000	0.009719
3589.000000	0.009768
3588.000000	0.009879
3587.000000	0.010038
3586.000000	0.010193
3585.000000	0.010302
3584.000000	0.010361
3583.000000	0.010398
3582.000000	0.010446
3581.000000	0.010520
3580.000000	0.010620
3579.000000	0.010731
3578.000000	0.010842
3577.000000	0.010944
3576.000000	0.011033
3575.000000	0.011109
3574.000000	0.011169
3573.000000	0.011215
3572.000000	0.011248
3571.000000	0.011279
3570.000000	0.011320
3569.000000	0.011387
3568.000000	0.011492
3567.000000	0.011627
3566.000000	0.011765
3565.000000	0.011875
3564.000000	0.011954
3563.000000	0.012012
3562.000000	0.012061
3561.000000	0.012109
3560.000000	0.012170
3559.000000	0.012255
3558.000000	0.012362
3557.000000	0.012475
3556.000000	0.012575
3555.000000	0.012665
3554.000000	0.012762
3553.000000	0.012883
3552.000000	0.013019
3551.000000	0.013142
3550.000000	0.013231
3549.000000	0.013285
3548.000000	0.013324
3547.000000	0.013374
3546.000000	0.013447
3545.000000	0.013536
3544.000000	0.013628
3543.000000	0.013716
3542.000000	0.013802
3541.000000	0.013889
3540.000000	0.013982
3539.000000	0.014079
3538.000000	0.014175
3537.000000	0.014265
3536.000000	0.014347
3535.000000	0.014424
3534.000000	0.014499
3533.000000	0.014574
3532.000000	0.014647
3531.000000	0.014718
3530.000000	0.014789
3529.000000	0.014863
3528.000000	0.014944
3527.000000	0.015037
3526.000000	0.015136
3525.000000	0.015232
3524.000000	0.015316
3523.000000	0.015392
3522.000000	0.015464
3521.000000	0.015537
3520.000000	0.015612
3519.000000	0.015695
3518.000000	0.015784
3517.000000	0.015875
3516.000000	0.015958
3515.000000	0.016028
3514.000000	0.016091
3513.000000	0.016160
3512.000000	0.016243
3511.000000	0.016339
3510.000000	0.016435
3509.000000	0.016521
3508.000000	0.016596
3507.000000	0.016667
3506.000000	0.016739
3505.000000	0.016810
3504.000000	0.016881
3503.000000	0.016958
3502.000000	0.017042
3501.000000	0.017124
3500.000000	0.017199
3499.000000	0.017270
3498.000000	0.017341
3497.000000	0.017412
3496.000000	0.017473
3495.000000	0.017517
3494.000000	0.017550
3493.000000	0.017585
3492.000000	0.017635
3491.000000	0.017705
3490.000000	0.017784
3489.000000	0.017860
3488.000000	0.017926
3487.000000	0.017985
3486.000000	0.018037
3485.000000	0.018083
3484.000000	0.018127
3483.000000	0.018178
3482.000000	0.018240
3481.000000	0.018315
3480.000000	0.018404
3479.000000	0.018506
3478.000000	0.018612
3477.000000	0.018702
3476.000000	0.018761
3475.000000	0.018791
3474.000000	0.018812
3473.000000	0.018844
3472.000000	0.018900
3471.000000	0.018978
3470.000000	0.019065
3469.000000	0.019146
3468.000000	0.019212
3467.000000	0.019265
3466.000000	0.019308
3465.000000	0.019340
3464.000000	0.019364
3463.000000	0.019392
3462.000000	0.019438
3461.000000	0.019503
3460.000000	0.019577
3459.000000	0.019650
3458.000000	0.019718
3457.000000	0.019782
3456.000000	0.019842
3455.000000	0.019896
3454.000000	0.019947
3453.000000	0.019998
3452.000000	0.020053
3451.000000	0.020112
3450.000000	0.020173
3449.000000	0.020233
3448.000000	0.020295
3447.000000	0.020367
3446.000000	0.020449
3445.000000	0.020530
3444.000000	0.020599
3443.000000	0.020660
3442.000000	0.020720
3441.000000	0.020784
3440.000000	0.020855
3439.000000	0.020931
3438.000000	0.021010
3437.000000	0.021087
3436.000000	0.021155
3435.000000	0.021212
3434.000000	0.021260
3433.000000	0.021304
3432.000000	0.021349
3431.000000	0.021401
3430.000000	0.021461
3429.000000	0.021523
3428.000000	0.021584
3427.000000	0.021654
3426.000000	0.021738
3425.000000	0.021827
3424.000000	0.021904
3423.000000	0.021960
3422.000000	0.022006
3421.000000	0.022059
3420.000000	0.022126
3419.000000	0.022197
3418.000000	0.022257
3417.000000	0.022301
3416.000000	0.022341
3415.000000	0.022394
3414.000000	0.022467
3413.000000	0.022551
3412.000000	0.022625
3411.000000	0.022674
3410.000000	0.022705
3409.000000	0.022738
3408.000000	0.022793
3407.000000	0.022873
3406.000000	0.022963
3405.000000	0.023037
3404.000000	0.023084
3403.000000	0.023113
3402.000000	0.023140
3401.000000	0.023176
3400.000000	0.023218
3399.000000	0.023263
3398.000000	0.023309
3397.000000	0.023362
3396.000000	0.023429
3395.000000	0.023513
3394.000000	0.023610
3393.000000	0.023703
3392.000000	0.023779
3391.000000	0.023833
3390.000000	0.023872
3389.000000	0.023909
3388.000000	0.023954
3387.000000	0.024014
3386.000000	0.024086
3385.000000	0.024164
3384.000000	0.024243
3383.000000	0.024322
3382.000000	0.024399
3381.000000	0.024477
3380.000000	0.024557
3379.000000	0.024642
3378.000000	0.024735
3377.000000	0.024833
3376.000000	0.024931
3375.000000	0.025022
3374.000000	0.025099
3373.000000	0.025160
3372.000000	0.025216
3371.000000	0.025283
3370.000000	0.025367
3369.000000	0.025459
3368.000000	0.025548
3367.000000	0.025636
3366.000000	0.025723
3365.000000	0.025809
3364.000000	0.025895
3363.000000	0.025986
3362.000000	0.026088
3361.000000	0.026195
3360.000000	0.026299
3359.000000	0.026396
3358.000000	0.026495
3357.000000	0.026605
3356.000000	0.026728
3355.000000	0.026861
3354.000000	0.026991
3353.000000	0.027103
3352.000000	0.027194
3351.000000	0.027271
3350.000000	0.027344
3349.000000	0.027422
3348.000000	0.027510
3347.000000	0.027614
3346.000000	0.027729
3345.000000	0.027839
3344.000000	0.027938
3343.000000	0.028032
3342.000000	0.028131
3341.000000	0.028235
3340.000000	0.028330
3339.000000	0.028417
3338.000000	0.028511
3337.000000	0.028625
3336.000000	0.028752
3335.000000	0.028874
3334.000000	0.028975
3333.000000	0.029062
3332.000000	0.029155
3331.000000	0.029263
3330.000000	0.029376
3329.000000	0.029469
3328.000000	0.029533
3327.000000	0.029583
3326.000000	0.029640
3325.000000	0.029711
3324.000000	0.029792
3323.000000	0.029876
3322.000000	0.029962
3321.000000	0.030043
3320.000000	0.030110
3319.000000	0.030162
3318.000000	0.030206
3317.000000	0.030255
3316.000000	0.030313
3315.000000	0.030379
3314.000000	0.030450
3313.000000	0.030521
3312.000000	0.030582
3311.000000	0.030628
3310.000000	0.030654
3309.000000	0.030664
3308.000000	0.030669
3307.000000	0.030687
3306.000000	0.030728
3305.000000	0.030790
3304.000000	0.030866
3303.000000	0.030950
3302.000000	0.031034
3301.000000	0.031105
3300.000000	0.031154
3299.000000	0.031184
3298.000000	0.031211
3297.000000	0.031243
3296.000000	0.031280
3295.000000	0.031309
3294.000000	0.031319
3293.000000	0.031311
3292.000000	0.031294
3291.000000	0.031284
3290.000000	0.031293
3289.000000	0.031313
3288.000000	0.031330
3287.000000	0.031336
3286.000000	0.031335
3285.000000	0.031333
3284.000000	0.031331
3283.000000	0.031320
3282.000000	0.031292
3281.000000	0.031255
3280.000000	0.031221
3279.000000	0.031200
3278.000000	0.031187
3277.000000	0.031164
3276.000000	0.031119
3275.000000	0.031053
3274.000000	0.030973
3273.000000	0.030894
3272.000000	0.030829
3271.000000	0.030791
3270.000000	0.030781
3269.000000	0.030785
3268.000000	0.030776
3267.000000	0.030737
3266.000000	0.030668
3265.000000	0.030587
3264.000000	0.030514
3263.000000	0.030458
3262.000000	0.030412
3261.000000	0.030356
3260.000000	0.030276
3259.000000	0.030171
3258.000000	0.030055
3257.000000	0.029946
3256.000000	0.029864
3255.000000	0.029815
3254.000000	0.029787
3253.000000	0.029757
3252.000000	0.029701
3251.000000	0.029617
3250.000000	0.029512
3249.000000	0.029404
3248.000000	0.029309
3247.000000	0.029235
3246.000000	0.029184
3245.000000	0.029143
3244.000000	0.029099
3243.000000	0.029046
3242.000000	0.028987
3241.000000	0.028921
3240.000000	0.028849
3239.000000	0.028775
3238.000000	0.028705
3237.000000	0.028638
3236.000000	0.028571
3235.000000	0.028502
3234.000000	0.028437
3233.000000	0.028381
3232.000000	0.028333
3231.000000	0.028287
3230.000000	0.028235
3229.000000	0.028173
3228.000000	0.028100
3227.000000	0.028023
3226.000000	0.027951
3225.000000	0.027892
3224.000000	0.027852
3223.000000	0.027824
3222.000000	0.027793
3221.000000	0.027747
3220.000000	0.027681
3219.000000	0.027601
3218.000000	0.027519
3217.000000	0.027440
3216.000000	0.027371
3215.000000	0.027316
3214.000000	0.027272
3213.000000	0.027235
3212.000000	0.027196
3211.000000	0.027142
3210.000000	0.027066
3209.000000	0.026970
3208.000000	0.026868
3207.000000	0.026780
3206.000000	0.026713
3205.000000	0.026661
3204.000000	0.026611
3203.000000	0.026559
3202.000000	0.026509
3201.000000	0.026461
3200.000000	0.026407
3199.000000	0.026339
3198.000000	0.026253
3197.000000	0.026156
3196.000000	0.026062
3195.000000	0.025979
3194.000000	0.025902
3193.000000	0.025821
3192.000000	0.025732
3191.000000	0.025640
3190.000000	0.025552
3189.000000	0.025472
3188.000000	0.025403
3187.000000	0.025343
3186.000000	0.025276
3185.000000	0.025187
3184.000000	0.025074
3183.000000	0.024956
3182.000000	0.024853
3181.000000	0.024774
3180.000000	0.024707
3179.000000	0.024637
3178.000000	0.024551
3177.000000	0.024444
3176.000000	0.024324
3175.000000	0.024206
3174.000000	0.024100
3173.000000	0.024005
3172.000000	0.023918
3171.000000	0.023836
3170.000000	0.023763
3169.000000	0.023699
3168.000000	0.023638
3167.000000	0.023570
3166.000000	0.023488
3165.000000	0.023395
3164.000000	0.023304
3163.000000	0.023227
3162.000000	0.023169
3161.000000	0.023118
3160.000000	0.023055
3159.000000	0.022966
3158.000000	0.022855
3157.000000	0.022736
3156.000000	0.022627
3155.000000	0.022534
3154.000000	0.022449
3153.000000	0.022362
3152.000000	0.022275
3151.000000	0.022198
3150.000000	0.022143
3149.000000	0.022104
3148.000000	0.022065
3147.000000	0.022017
3146.000000	0.021964
3145.000000	0.021911
3144.000000	0.021858
3143.000000	0.021797
3142.000000	0.021723
3141.000000	0.021639
3140.000000	0.021556
3139.000000	0.021482
3138.000000	0.021412
3137.000000	0.021343
3136.000000	0.021279
3135.000000	0.021236
3134.000000	0.021221
3133.000000	0.021218
3132.000000	0.021196
3131.000000	0.021138
3130.000000	0.021054
3129.000000	0.020970
3128.000000	0.020912
3127.000000	0.020889
3126.000000	0.020884
3125.000000	0.020872
3124.000000	0.020834
3123.000000	0.020769
3122.000000	0.020697
3121.000000	0.020638
3120.000000	0.020605
3119.000000	0.020595
3118.000000	0.020597
3117.000000	0.020600
3116.000000	0.020602
3115.000000	0.020604
3114.000000	0.020612
3113.000000	0.020623
3112.000000	0.020630
3111.000000	0.020623
3110.000000	0.020604
3109.000000	0.020581
3108.000000	0.020565
3107.000000	0.020560
3106.000000	0.020568
3105.000000	0.020585
3104.000000	0.020611
3103.000000	0.020640
3102.000000	0.020669
3101.000000	0.020694
3100.000000	0.020718
3099.000000	0.020745
3098.000000	0.020779
3097.000000	0.020815
3096.000000	0.020851
3095.000000	0.020883
3094.000000	0.020910
3093.000000	0.020929
3092.000000	0.020942
3091.000000	0.020951
3090.000000	0.020964
3089.000000	0.020982
3088.000000	0.021007
3087.000000	0.021035
3086.000000	0.021067
3085.000000	0.021102
3084.000000	0.021133
3083.000000	0.021151
3082.000000	0.021143
3081.000000	0.021112
3080.000000	0.021071
3079.000000	0.021040
3078.000000	0.021028
3077.000000	0.021033
3076.000000	0.021044
3075.000000	0.021050
3074.000000	0.021052
3073.000000	0.021054
3072.000000	0.021060
3071.000000	0.021065
3070.000000	0.021062
3069.000000	0.021046
3068.000000	0.021018
3067.000000	0.020987
3066.000000	0.020953
3065.000000	0.020915
3064.000000	0.020868
3063.000000	0.020810
3062.000000	0.020745
3061.000000	0.020680
3060.000000	0.020621
3059.000000	0.020568
3058.000000	0.020520
3057.000000	0.020472
3056.000000	0.020424
3055.000000	0.020365
3054.000000	0.020286
3053.000000	0.020184
3052.000000	0.020076
3051.000000	0.019982
3050.000000	0.019911
3049.000000	0.019852
3048.000000	0.019793
3047.000000	0.019731
3046.000000	0.019667
3045.000000	0.019605
3044.000000	0.019545
3043.000000	0.019483
3042.000000	0.019413
3041.000000	0.019331
3040.000000	0.019240
3039.000000	0.019150
3038.000000	0.019070
3037.000000	0.018999
3036.000000	0.018935
3035.000000	0.018874
3034.000000	0.018818
3033.000000	0.018762
3032.000000	0.018703
3031.000000	0.018640
3030.000000	0.018580
3029.000000	0.018529
3028.000000	0.018481
3027.000000	0.018430
3026.000000	0.018376
3025.000000	0.018325
3024.000000	0.018279
3023.000000	0.018233
3022.000000	0.018185
3021.000000	0.018139
3020.000000	0.018101
3019.000000	0.018074
3018.000000	0.018054
3017.000000	0.018039
3016.000000	0.018030
3015.000000	0.018028
3014.000000	0.018035
3013.000000	0.018053
3012.000000	0.018086
3011.000000	0.018134
3010.000000	0.018189
3009.000000	0.018234
3008.000000	0.018255
3007.000000	0.018252
3006.000000	0.018233
3005.000000	0.018216
3004.000000	0.018212
3003.000000	0.018225
3002.000000	0.018245
3001.000000	0.018259
3000.000000	0.018259
2999.000000	0.018246
2998.000000	0.018224
2997.000000	0.018205
2996.000000	0.018198
2995.000000	0.018208
2994.000000	0.018234
2993.000000	0.018272
2992.000000	0.018319
2991.000000	0.018376
2990.000000	0.018444
2989.000000	0.018523
2988.000000	0.018610
2987.000000	0.018701
2986.000000	0.018791
2985.000000	0.018884
2984.000000	0.018988
2983.000000	0.019106
2982.000000	0.019237
2981.000000	0.019379
2980.000000	0.019534
2979.000000	0.019704
2978.000000	0.019884
2977.000000	0.020066
2976.000000	0.020243
2975.000000	0.020417
2974.000000	0.020600
2973.000000	0.020803
2972.000000	0.021028
2971.000000	0.021271
2970.000000	0.021526
2969.000000	0.021796
2968.000000	0.022096
2967.000000	0.022428
2966.000000	0.022780
2965.000000	0.023133
2964.000000	0.023476
2963.000000	0.023813
2962.000000	0.024148
2961.000000	0.024476
2960.000000	0.024786
2959.000000	0.025064
2958.000000	0.025299
2957.000000	0.025485
2956.000000	0.025622
2955.000000	0.025718
2954.000000	0.025779
2953.000000	0.025817
2952.000000	0.025845
2951.000000	0.025880
2950.000000	0.025928
2949.000000	0.025996
2948.000000	0.026099
2947.000000	0.026258
2946.000000	0.026495
2945.000000	0.026813
2944.000000	0.027198
2943.000000	0.027634
2942.000000	0.028114
2941.000000	0.028645
2940.000000	0.029233
2939.000000	0.029879
2938.000000	0.030573
2937.000000	0.031304
2936.000000	0.032072
2935.000000	0.032880
2934.000000	0.033722
2933.000000	0.034582
2932.000000	0.035434
2931.000000	0.036255
2930.000000	0.037025
2929.000000	0.037733
2928.000000	0.038377
2927.000000	0.038956
2926.000000	0.039450
2925.000000	0.039821
2924.000000	0.040030
2923.000000	0.040059
2922.000000	0.039909
2921.000000	0.039592
2920.000000	0.039118
2919.000000	0.038502
2918.000000	0.037760
2917.000000	0.036915
2916.000000	0.035995
2915.000000	0.035037
2914.000000	0.034078
2913.000000	0.033152
2912.000000	0.032281
2911.000000	0.031472
2910.000000	0.030727
2909.000000	0.030046
2908.000000	0.029427
2907.000000	0.028864
2906.000000	0.028354
2905.000000	0.027891
2904.000000	0.027468
2903.000000	0.027072
2902.000000	0.026694
2901.000000	0.026332
2900.000000	0.025995
2899.000000	0.025685
2898.000000	0.025393
2897.000000	0.025108
2896.000000	0.024823
2895.000000	0.024538
2894.000000	0.024254
2893.000000	0.023977
2892.000000	0.023719
2891.000000	0.023490
2890.000000	0.023291
2889.000000	0.023107
2888.000000	0.022925
2887.000000	0.022742
2886.000000	0.022569
2885.000000	0.022421
2884.000000	0.022304
2883.000000	0.022214
2882.000000	0.022144
2881.000000	0.022093
2880.000000	0.022070
2879.000000	0.022086
2878.000000	0.022145
2877.000000	0.022242
2876.000000	0.022361
2875.000000	0.022488
2874.000000	0.022605
2873.000000	0.022693
2872.000000	0.022742
2871.000000	0.022760
2870.000000	0.022770
2869.000000	0.022791
2868.000000	0.022835
2867.000000	0.022911
2866.000000	0.023042
2865.000000	0.023258
2864.000000	0.023576
2863.000000	0.023987
2862.000000	0.024479
2861.000000	0.025053
2860.000000	0.025715
2859.000000	0.026451
2858.000000	0.027217
2857.000000	0.027953
2856.000000	0.028601
2855.000000	0.029112
2854.000000	0.029440
2853.000000	0.029539
2852.000000	0.029381
2851.000000	0.028957
2850.000000	0.028287
2849.000000	0.027419
2848.000000	0.026424
2847.000000	0.025378
2846.000000	0.024343
2845.000000	0.023361
2844.000000	0.022456
2843.000000	0.021644
2842.000000	0.020932
2841.000000	0.020322
2840.000000	0.019806
2839.000000	0.019373
2838.000000	0.019009
2837.000000	0.018701
2836.000000	0.018435
2835.000000	0.018205
2834.000000	0.018005
2833.000000	0.017829
2832.000000	0.017670
2831.000000	0.017517
2830.000000	0.017363
2829.000000	0.017211
2828.000000	0.017068
2827.000000	0.016939
2826.000000	0.016823
2825.000000	0.016711
2824.000000	0.016597
2823.000000	0.016482
2822.000000	0.016375
2821.000000	0.016279
2820.000000	0.016190
2819.000000	0.016101
2818.000000	0.016011
2817.000000	0.015927
2816.000000	0.015854
2815.000000	0.015789
2814.000000	0.015726
2813.000000	0.015662
2812.000000	0.015601
2811.000000	0.015547
2810.000000	0.015499
2809.000000	0.015450
2808.000000	0.015395
2807.000000	0.015332
2806.000000	0.015267
2805.000000	0.015203
2804.000000	0.015145
2803.000000	0.015094
2802.000000	0.015046
2801.000000	0.014999
2800.000000	0.014952
2799.000000	0.014907
2798.000000	0.014865
2797.000000	0.014829
2796.000000	0.014795
2795.000000	0.014761
2794.000000	0.014726
2793.000000	0.014694
2792.000000	0.014665
2791.000000	0.014633
2790.000000	0.014595
2789.000000	0.014554
2788.000000	0.014514
2787.000000	0.014475
2786.000000	0.014429
2785.000000	0.014376
2784.000000	0.014320
2783.000000	0.014269
2782.000000	0.014222
2781.000000	0.014176
2780.000000	0.014130
2779.000000	0.014090
2778.000000	0.014062
2777.000000	0.014050
2776.000000	0.014047
2775.000000	0.014039
2774.000000	0.014012
2773.000000	0.013970
2772.000000	0.013925
2771.000000	0.013886
2770.000000	0.013846
2769.000000	0.013799
2768.000000	0.013747
2767.000000	0.013696
2766.000000	0.013653
2765.000000	0.013619
2764.000000	0.013593
2763.000000	0.013570
2762.000000	0.013547
2761.000000	0.013519
2760.000000	0.013487
2759.000000	0.013457
2758.000000	0.013435
2757.000000	0.013420
2756.000000	0.013406
2755.000000	0.013388
2754.000000	0.013367
2753.000000	0.013343
2752.000000	0.013317
2751.000000	0.013292
2750.000000	0.013269
2749.000000	0.013247
2748.000000	0.013223
2747.000000	0.013193
2746.000000	0.013159
2745.000000	0.013129
2744.000000	0.013107
2743.000000	0.013093
2742.000000	0.013084
2741.000000	0.013077
2740.000000	0.013068
2739.000000	0.013051
2738.000000	0.013024
2737.000000	0.012993
2736.000000	0.012963
2735.000000	0.012940
2734.000000	0.012926
2733.000000	0.012920
2732.000000	0.012921
2731.000000	0.012919
2730.000000	0.012905
2729.000000	0.012872
2728.000000	0.012825
2727.000000	0.012775
2726.000000	0.012733
2725.000000	0.012702
2724.000000	0.012678
2723.000000	0.012655
2722.000000	0.012636
2721.000000	0.012623
2720.000000	0.012615
2719.000000	0.012605
2718.000000	0.012587
2717.000000	0.012563
2716.000000	0.012538
2715.000000	0.012517
2714.000000	0.012498
2713.000000	0.012480
2712.000000	0.012459
2711.000000	0.012433
2710.000000	0.012406
2709.000000	0.012390
2708.000000	0.012388
2707.000000	0.012391
2706.000000	0.012383
2705.000000	0.012362
2704.000000	0.012336
2703.000000	0.012315
2702.000000	0.012301
2701.000000	0.012289
2700.000000	0.012279
2699.000000	0.012269
2698.000000	0.012255
2697.000000	0.012235
2696.000000	0.012215
2695.000000	0.012197
2694.000000	0.012187
2693.000000	0.012186
2692.000000	0.012189
2691.000000	0.012190
2690.000000	0.012183
2689.000000	0.012168
2688.000000	0.012147
2687.000000	0.012123
2686.000000	0.012100
2685.000000	0.012081
2684.000000	0.012071
2683.000000	0.012071
2682.000000	0.012079
2681.000000	0.012093
2680.000000	0.012108
2679.000000	0.012111
2678.000000	0.012093
2677.000000	0.012058
2676.000000	0.012026
2675.000000	0.012009
2674.000000	0.012007
2673.000000	0.012008
2672.000000	0.012003
2671.000000	0.011994
2670.000000	0.011985
2669.000000	0.011976
2668.000000	0.011964
2667.000000	0.011949
2666.000000	0.011937
2665.000000	0.011934
2664.000000	0.011943
2663.000000	0.011954
2662.000000	0.011951
2661.000000	0.011925
2660.000000	0.011883
2659.000000	0.011836
2658.000000	0.011794
2657.000000	0.011761
2656.000000	0.011738
2655.000000	0.011729
2654.000000	0.011726
2653.000000	0.011716
2652.000000	0.011689
2651.000000	0.011650
2650.000000	0.011610
2649.000000	0.011577
2648.000000	0.011550
2647.000000	0.011524
2646.000000	0.011498
2645.000000	0.011477
2644.000000	0.011461
2643.000000	0.011445
2642.000000	0.011421
2641.000000	0.011387
2640.000000	0.011348
2639.000000	0.011308
2638.000000	0.011268
2637.000000	0.011231
2636.000000	0.011195
2635.000000	0.011157
2634.000000	0.011112
2633.000000	0.011064
2632.000000	0.011027
2631.000000	0.011009
2630.000000	0.011007
2629.000000	0.011011
2628.000000	0.011007
2627.000000	0.010990
2626.000000	0.010963
2625.000000	0.010933
2624.000000	0.010904
2623.000000	0.010875
2622.000000	0.010842
2621.000000	0.010808
2620.000000	0.010779
2619.000000	0.010759
2618.000000	0.010740
2617.000000	0.010708
2616.000000	0.010659
2615.000000	0.010607
2614.000000	0.010572
2613.000000	0.010560
2612.000000	0.010556
2611.000000	0.010544
2610.000000	0.010519
2609.000000	0.010492
2608.000000	0.010472
2607.000000	0.010456
2606.000000	0.010435
2605.000000	0.010408
2604.000000	0.010383
2603.000000	0.010372
2602.000000	0.010379
2601.000000	0.010394
2600.000000	0.010403
2599.000000	0.010397
2598.000000	0.010375
2597.000000	0.010343
2596.000000	0.010309
2595.000000	0.010284
2594.000000	0.010275
2593.000000	0.010279
2592.000000	0.010281
2591.000000	0.010267
2590.000000	0.010240
2589.000000	0.010214
2588.000000	0.010191
2587.000000	0.010164
2586.000000	0.010136
2585.000000	0.010116
2584.000000	0.010107
2583.000000	0.010096
2582.000000	0.010064
2581.000000	0.010013
2580.000000	0.009960
2579.000000	0.009921
2578.000000	0.009897
2577.000000	0.009882
2576.000000	0.009867
2575.000000	0.009848
2574.000000	0.009829
2573.000000	0.009819
2572.000000	0.009818
2571.000000	0.009821
2570.000000	0.009828
2569.000000	0.009840
2568.000000	0.009847
2567.000000	0.009833
2566.000000	0.009790
2565.000000	0.009739
2564.000000	0.009712
2563.000000	0.009720
2562.000000	0.009745
2561.000000	0.009766
2560.000000	0.009770
2559.000000	0.009755
2558.000000	0.009721
2557.000000	0.009669
2556.000000	0.009609
2555.000000	0.009554
2554.000000	0.009519
2553.000000	0.009508
2552.000000	0.009513
2551.000000	0.009531
2550.000000	0.009567
2549.000000	0.009625
2548.000000	0.009685
2547.000000	0.009715
2546.000000	0.009699
2545.000000	0.009658
2544.000000	0.009628
2543.000000	0.009625
2542.000000	0.009644
2541.000000	0.009665
2540.000000	0.009668
2539.000000	0.009640
2538.000000	0.009586
2537.000000	0.009538
2536.000000	0.009526
2535.000000	0.009557
2534.000000	0.009608
2533.000000	0.009648
2532.000000	0.009659
2531.000000	0.009640
2530.000000	0.009595
2529.000000	0.009538
2528.000000	0.009487
2527.000000	0.009463
2526.000000	0.009471
2525.000000	0.009495
2524.000000	0.009503
2523.000000	0.009480
2522.000000	0.009443
2521.000000	0.009420
2520.000000	0.009419
2519.000000	0.009420
2518.000000	0.009403
2517.000000	0.009370
2516.000000	0.009334
2515.000000	0.009309
2514.000000	0.009294
2513.000000	0.009285
2512.000000	0.009273
2511.000000	0.009257
2510.000000	0.009246
2509.000000	0.009242
2508.000000	0.009242
2507.000000	0.009241
2506.000000	0.009241
2505.000000	0.009243
2504.000000	0.009240
2503.000000	0.009221
2502.000000	0.009198
2501.000000	0.009189
2500.000000	0.009201
2499.000000	0.009217
2498.000000	0.009219
2497.000000	0.009209
2496.000000	0.009201
2495.000000	0.009201
2494.000000	0.009205
2493.000000	0.009205
2492.000000	0.009194
2491.000000	0.009165
2490.000000	0.009122
2489.000000	0.009076
2488.000000	0.009039
2487.000000	0.009018
2486.000000	0.009015
2485.000000	0.009024
2484.000000	0.009033
2483.000000	0.009032
2482.000000	0.009024
2481.000000	0.009023
2480.000000	0.009029
2479.000000	0.009035
2478.000000	0.009037
2477.000000	0.009040
2476.000000	0.009037
2475.000000	0.009018
2474.000000	0.008986
2473.000000	0.008961
2472.000000	0.008959
2471.000000	0.008976
2470.000000	0.008993
2469.000000	0.008996
2468.000000	0.008978
2467.000000	0.008948
2466.000000	0.008929
2465.000000	0.008941
2464.000000	0.008977
2463.000000	0.009010
2462.000000	0.009020
2461.000000	0.009010
2460.000000	0.008997
2459.000000	0.008990
2458.000000	0.008995
2457.000000	0.009010
2456.000000	0.009021
2455.000000	0.009008
2454.000000	0.008966
2453.000000	0.008915
2452.000000	0.008878
2451.000000	0.008862
2450.000000	0.008866
2449.000000	0.008888
2448.000000	0.008924
2447.000000	0.008960
2446.000000	0.008987
2445.000000	0.009006
2444.000000	0.009017
2443.000000	0.009017
2442.000000	0.009006
2441.000000	0.008992
2440.000000	0.008974
2439.000000	0.008944
2438.000000	0.008899
2437.000000	0.008849
2436.000000	0.008805
2435.000000	0.008765
2434.000000	0.008729
2433.000000	0.008708
2432.000000	0.008707
2431.000000	0.008711
2430.000000	0.008701
2429.000000	0.008679
2428.000000	0.008665
2427.000000	0.008671
2426.000000	0.008695
2425.000000	0.008725
2424.000000	0.008751
2423.000000	0.008763
2422.000000	0.008757
2421.000000	0.008740
2420.000000	0.008723
2419.000000	0.008715
2418.000000	0.008719
2417.000000	0.008727
2416.000000	0.008729
2415.000000	0.008729
2414.000000	0.008743
2413.000000	0.008775
2412.000000	0.008799
2411.000000	0.008781
2410.000000	0.008719
2409.000000	0.008645
2408.000000	0.008590
2407.000000	0.008563
2406.000000	0.008563
2405.000000	0.008590
2404.000000	0.008629
2403.000000	0.008657
2402.000000	0.008666
2401.000000	0.008667
2400.000000	0.008674
2399.000000	0.008682
2398.000000	0.008691
2397.000000	0.008706
2396.000000	0.008728
2395.000000	0.008740
2394.000000	0.008728
2393.000000	0.008696
2392.000000	0.008665
2391.000000	0.008645
2390.000000	0.008639
2389.000000	0.008646
2388.000000	0.008663
2387.000000	0.008684
2386.000000	0.008701
2385.000000	0.008715
2384.000000	0.008731
2383.000000	0.008745
2382.000000	0.008752
2381.000000	0.008753
2380.000000	0.008750
2379.000000	0.008748
2378.000000	0.008751
2377.000000	0.008764
2376.000000	0.008779
2375.000000	0.008785
2374.000000	0.008781
2373.000000	0.008774
2372.000000	0.008769
2371.000000	0.008763
2370.000000	0.008754
2369.000000	0.008751
2368.000000	0.008760
2367.000000	0.008788
2366.000000	0.008828
2365.000000	0.008863
2364.000000	0.008865
2363.000000	0.008846
2362.000000	0.008860
2361.000000	0.008939
2360.000000	0.009057
2359.000000	0.009147
2358.000000	0.009151
2357.000000	0.009075
2356.000000	0.008965
2355.000000	0.008896
2354.000000	0.008882
2353.000000	0.008870
2352.000000	0.008800
2351.000000	0.008700
2350.000000	0.008664
2349.000000	0.008753
2348.000000	0.008948
2347.000000	0.009141
2346.000000	0.009203
2345.000000	0.009121
2344.000000	0.008989
2343.000000	0.008918
2342.000000	0.008920
2341.000000	0.008962
2340.000000	0.009014
2339.000000	0.009050
2338.000000	0.009056
2337.000000	0.009043
2336.000000	0.009037
2335.000000	0.009028
2334.000000	0.009003
2333.000000	0.008955
2332.000000	0.008925
2331.000000	0.008922
2330.000000	0.008953
2329.000000	0.008989
2328.000000	0.009057
2327.000000	0.009177
2326.000000	0.009350
2325.000000	0.009516
2324.000000	0.009586
2323.000000	0.009517
2322.000000	0.009360
2321.000000	0.009220
2320.000000	0.009167
2319.000000	0.009174
2318.000000	0.009192
2317.000000	0.009177
2316.000000	0.009126
2315.000000	0.009026
2314.000000	0.008901
2313.000000	0.008792
2312.000000	0.008744
2311.000000	0.008744
2310.000000	0.008761
2309.000000	0.008768
2308.000000	0.008773
2307.000000	0.008775
2306.000000	0.008780
2305.000000	0.008787
2304.000000	0.008797
2303.000000	0.008795
2302.000000	0.008775
2301.000000	0.008741
2300.000000	0.008710
2299.000000	0.008686
2298.000000	0.008674
2297.000000	0.008672
2296.000000	0.008679
2295.000000	0.008680
2294.000000	0.008680
2293.000000	0.008698
2292.000000	0.008740
2291.000000	0.008775
2290.000000	0.008772
2289.000000	0.008732
2288.000000	0.008688
2287.000000	0.008670
2286.000000	0.008689
2285.000000	0.008738
2284.000000	0.008783
2283.000000	0.008789
2282.000000	0.008751
2281.000000	0.008704
2280.000000	0.008676
2279.000000	0.008660
2278.000000	0.008641
2277.000000	0.008621
2276.000000	0.008602
2275.000000	0.008571
2274.000000	0.008518
2273.000000	0.008460
2272.000000	0.008410
2271.000000	0.008359
2270.000000	0.008302
2269.000000	0.008267
2268.000000	0.008278
2267.000000	0.008313
2266.000000	0.008339
2265.000000	0.008352
2264.000000	0.008373
2263.000000	0.008403
2262.000000	0.008436
2261.000000	0.008477
2260.000000	0.008524
2259.000000	0.008557
2258.000000	0.008544
2257.000000	0.008479
2256.000000	0.008371
2255.000000	0.008228
2254.000000	0.008081
2253.000000	0.007990
2252.000000	0.007991
2251.000000	0.008052
2250.000000	0.008112
2249.000000	0.008140
2248.000000	0.008139
2247.000000	0.008119
2246.000000	0.008092
2245.000000	0.008078
2244.000000	0.008081
2243.000000	0.008087
2242.000000	0.008089
2241.000000	0.008094
2240.000000	0.008098
2239.000000	0.008073
2238.000000	0.008023
2237.000000	0.007997
2236.000000	0.008022
2235.000000	0.008063
2234.000000	0.008082
2233.000000	0.008101
2232.000000	0.008154
2231.000000	0.008214
2230.000000	0.008222
2229.000000	0.008160
2228.000000	0.008064
2227.000000	0.007980
2226.000000	0.007932
2225.000000	0.007920
2224.000000	0.007920
2223.000000	0.007914
2222.000000	0.007923
2221.000000	0.007985
2220.000000	0.008082
2219.000000	0.008140
2218.000000	0.008140
2217.000000	0.008146
2216.000000	0.008198
2215.000000	0.008233
2214.000000	0.008181
2213.000000	0.008069
2212.000000	0.007973
2211.000000	0.007911
2210.000000	0.007853
2209.000000	0.007798
2208.000000	0.007782
2207.000000	0.007817
2206.000000	0.007875
2205.000000	0.007921
2204.000000	0.007919
2203.000000	0.007857
2202.000000	0.007789
2201.000000	0.007814
2200.000000	0.007966
2199.000000	0.008158
2198.000000	0.008288
2197.000000	0.008348
2196.000000	0.008387
2195.000000	0.008406
2194.000000	0.008347
2193.000000	0.008179
2192.000000	0.007934
2191.000000	0.007697
2190.000000	0.007578
2189.000000	0.007644
2188.000000	0.007841
2187.000000	0.008025
2186.000000	0.008105
2185.000000	0.008104
2184.000000	0.008053
2183.000000	0.007923
2182.000000	0.007712
2181.000000	0.007517
2180.000000	0.007427
2179.000000	0.007415
2178.000000	0.007407
2177.000000	0.007390
2176.000000	0.007374
2175.000000	0.007326
2174.000000	0.007234
2173.000000	0.007170
2172.000000	0.007212
2171.000000	0.007345
2170.000000	0.007519
2169.000000	0.007712
2168.000000	0.007900
2167.000000	0.008006
2166.000000	0.007975
2165.000000	0.007862
2164.000000	0.007752
2163.000000	0.007650
2162.000000	0.007506
2161.000000	0.007289
2160.000000	0.006967
2159.000000	0.006494
2158.000000	0.005958
2157.000000	0.005589
2156.000000	0.005518
2155.000000	0.005655
2154.000000	0.005885
2153.000000	0.006212
2152.000000	0.006649
2151.000000	0.007088
2150.000000	0.007366
2149.000000	0.007431
2148.000000	0.007357
2147.000000	0.007247
2146.000000	0.007173
2145.000000	0.007171
2144.000000	0.007217
2143.000000	0.007237
2142.000000	0.007194
2141.000000	0.007135
2140.000000	0.007123
2139.000000	0.007153
2138.000000	0.007167
2137.000000	0.007127
2136.000000	0.007025
2135.000000	0.006871
2134.000000	0.006718
2133.000000	0.006661
2132.000000	0.006758
2131.000000	0.006970
2130.000000	0.007199
2129.000000	0.007372
2128.000000	0.007469
2127.000000	0.007493
2126.000000	0.007455
2125.000000	0.007377
2124.000000	0.007301
2123.000000	0.007272
2122.000000	0.007315
2121.000000	0.007418
2120.000000	0.007537
2119.000000	0.007632
2118.000000	0.007693
2117.000000	0.007732
2116.000000	0.007752
2115.000000	0.007754
2114.000000	0.007765
2113.000000	0.007813
2112.000000	0.007890
2111.000000	0.007954
2110.000000	0.007989
2109.000000	0.008012
2108.000000	0.008033
2107.000000	0.008045
2106.000000	0.008044
2105.000000	0.008034
2104.000000	0.008005
2103.000000	0.007953
2102.000000	0.007916
2101.000000	0.007941
2100.000000	0.008000
2099.000000	0.008008
2098.000000	0.007916
2097.000000	0.007765
2096.000000	0.007618
2095.000000	0.007506
2094.000000	0.007442
2093.000000	0.007448
2092.000000	0.007516
2091.000000	0.007613
2090.000000	0.007719
2089.000000	0.007834
2088.000000	0.007940
2087.000000	0.007993
2086.000000	0.007988
2085.000000	0.007975
2084.000000	0.007988
2083.000000	0.008013
2082.000000	0.008025
2081.000000	0.008023
2080.000000	0.008009
2079.000000	0.007966
2078.000000	0.007895
2077.000000	0.007817
2076.000000	0.007727
2075.000000	0.007597
2074.000000	0.007430
2073.000000	0.007281
2072.000000	0.007184
2071.000000	0.007143
2070.000000	0.007158
2069.000000	0.007233
2068.000000	0.007319
2067.000000	0.007343
2066.000000	0.007314
2065.000000	0.007317
2064.000000	0.007393
2063.000000	0.007490
2062.000000	0.007549
2061.000000	0.007548
2060.000000	0.007470
2059.000000	0.007303
2058.000000	0.007114
2057.000000	0.007025
2056.000000	0.007076
2055.000000	0.007187
2054.000000	0.007296
2053.000000	0.007417
2052.000000	0.007536
2051.000000	0.007559
2050.000000	0.007434
2049.000000	0.007239
2048.000000	0.007082
2047.000000	0.006976
2046.000000	0.006901
2045.000000	0.006886
2044.000000	0.006927
2043.000000	0.006945
2042.000000	0.006911
2041.000000	0.006922
2040.000000	0.007048
2039.000000	0.007197
2038.000000	0.007221
2037.000000	0.007078
2036.000000	0.006819
2035.000000	0.006542
2034.000000	0.006398
2033.000000	0.006501
2032.000000	0.006750
2031.000000	0.006888
2030.000000	0.006818
2029.000000	0.006692
2028.000000	0.006650
2027.000000	0.006634
2026.000000	0.006567
2025.000000	0.006511
2024.000000	0.006520
2023.000000	0.006505
2022.000000	0.006371
2021.000000	0.006172
2020.000000	0.006021
2019.000000	0.005950
2018.000000	0.005944
2017.000000	0.005975
2016.000000	0.005935
2015.000000	0.005708
2014.000000	0.005374
2013.000000	0.005203
2012.000000	0.005360
2011.000000	0.005738
2010.000000	0.006150
2009.000000	0.006517
2008.000000	0.006801
2007.000000	0.006934
2006.000000	0.006910
2005.000000	0.006814
2004.000000	0.006683
2003.000000	0.006477
2002.000000	0.006228
2001.000000	0.006088
2000.000000	0.006134
1999.000000	0.006275
1998.000000	0.006397
1997.000000	0.006475
1996.000000	0.006496
1995.000000	0.006424
1994.000000	0.006309
1993.000000	0.006288
1992.000000	0.006384
1991.000000	0.006426
1990.000000	0.006296
1989.000000	0.006099
1988.000000	0.005992
1987.000000	0.005993
1986.000000	0.006048
1985.000000	0.006165
1984.000000	0.006357
1983.000000	0.006568
1982.000000	0.006746
1981.000000	0.006914
1980.000000	0.007065
1979.000000	0.007100
1978.000000	0.006971
1977.000000	0.006779
1976.000000	0.006608
1975.000000	0.006393
1974.000000	0.006085
1973.000000	0.005806
1972.000000	0.005705
1971.000000	0.005792
1970.000000	0.005995
1969.000000	0.006242
1968.000000	0.006421
1967.000000	0.006402
1966.000000	0.006198
1965.000000	0.005988
1964.000000	0.005906
1963.000000	0.005941
1962.000000	0.006045
1961.000000	0.006204
1960.000000	0.006355
1959.000000	0.006389
1958.000000	0.006302
1957.000000	0.006223
1956.000000	0.006230
1955.000000	0.006257
1954.000000	0.006237
1953.000000	0.006208
1952.000000	0.006224
1951.000000	0.006253
1950.000000	0.006243
1949.000000	0.006215
1948.000000	0.006198
1947.000000	0.006175
1946.000000	0.006129
1945.000000	0.006086
1944.000000	0.006065
1943.000000	0.006038
1942.000000	0.006002
1941.000000	0.006008
1940.000000	0.006068
1939.000000	0.006139
1938.000000	0.006193
1937.000000	0.006249
1936.000000	0.006300
1935.000000	0.006299
1934.000000	0.006240
1933.000000	0.006185
1932.000000	0.006191
1931.000000	0.006238
1930.000000	0.006281
1929.000000	0.006305
1928.000000	0.006297
1927.000000	0.006246
1926.000000	0.006195
1925.000000	0.006217
1924.000000	0.006309
1923.000000	0.006353
1922.000000	0.006280
1921.000000	0.006169
1920.000000	0.006134
1919.000000	0.006189
1918.000000	0.006266
1917.000000	0.006321
1916.000000	0.006349
1915.000000	0.006343
1914.000000	0.006301
1913.000000	0.006236
1912.000000	0.006168
1911.000000	0.006106
1910.000000	0.006060
1909.000000	0.006058
1908.000000	0.006096
1907.000000	0.006137
1906.000000	0.006158
1905.000000	0.006176
1904.000000	0.006213
1903.000000	0.006256
1902.000000	0.006300
1901.000000	0.006364
1900.000000	0.006430
1899.000000	0.006449
1898.000000	0.006408
1897.000000	0.006355
1896.000000	0.006334
1895.000000	0.006315
1894.000000	0.006249
1893.000000	0.006131
1892.000000	0.006004
1891.000000	0.005919
1890.000000	0.005914
1889.000000	0.005995
1888.000000	0.006104
1887.000000	0.006166
1886.000000	0.006175
1885.000000	0.006173
1884.000000	0.006175
1883.000000	0.006162
1882.000000	0.006132
1881.000000	0.006116
1880.000000	0.006113
1879.000000	0.006098
1878.000000	0.006081
1877.000000	0.006092
1876.000000	0.006119
1875.000000	0.006108
1874.000000	0.006033
1873.000000	0.005928
1872.000000	0.005841
1871.000000	0.005778
1870.000000	0.005725
1869.000000	0.005682
1868.000000	0.005657
1867.000000	0.005650
1866.000000	0.005690
1865.000000	0.005807
1864.000000	0.005965
1863.000000	0.006085
1862.000000	0.006134
1861.000000	0.006148
1860.000000	0.006155
1859.000000	0.006137
1858.000000	0.006090
1857.000000	0.006052
1856.000000	0.006042
1855.000000	0.006047
1854.000000	0.006060
1853.000000	0.006089
1852.000000	0.006099
1851.000000	0.006049
1850.000000	0.005962
1849.000000	0.005880
1848.000000	0.005802
1847.000000	0.005718
1846.000000	0.005678
1845.000000	0.005735
1844.000000	0.005829
1843.000000	0.005836
1842.000000	0.005772
1841.000000	0.005780
1840.000000	0.005899
1839.000000	0.006018
1838.000000	0.006031
1837.000000	0.005970
1836.000000	0.005929
1835.000000	0.005920
1834.000000	0.005901
1833.000000	0.005865
1832.000000	0.005827
1831.000000	0.005786
1830.000000	0.005730
1829.000000	0.005666
1828.000000	0.005618
1827.000000	0.005610
1826.000000	0.005661
1825.000000	0.005749
1824.000000	0.005823
1823.000000	0.005855
1822.000000	0.005873
1821.000000	0.005905
1820.000000	0.005917
1819.000000	0.005878
1818.000000	0.005810
1817.000000	0.005772
1816.000000	0.005782
1815.000000	0.005789
1814.000000	0.005767
1813.000000	0.005737
1812.000000	0.005712
1811.000000	0.005687
1810.000000	0.005661
1809.000000	0.005673
1808.000000	0.005737
1807.000000	0.005804
1806.000000	0.005839
1805.000000	0.005860
1804.000000	0.005888
1803.000000	0.005895
1802.000000	0.005866
1801.000000	0.005822
1800.000000	0.005793
1799.000000	0.005791
1798.000000	0.005802
1797.000000	0.005812
1796.000000	0.005798
1795.000000	0.005751
1794.000000	0.005715
1793.000000	0.005730
1792.000000	0.005759
1791.000000	0.005746
1790.000000	0.005706
1789.000000	0.005712
1788.000000	0.005786
1787.000000	0.005880
1786.000000	0.005951
1785.000000	0.005988
1784.000000	0.005976
1783.000000	0.005892
1782.000000	0.005806
1781.000000	0.005792
1780.000000	0.005818
1779.000000	0.005817
1778.000000	0.005778
1777.000000	0.005752
1776.000000	0.005731
1775.000000	0.005685
1774.000000	0.005648
1773.000000	0.005655
1772.000000	0.005648
1771.000000	0.005596
1770.000000	0.005599
1769.000000	0.005778
1768.000000	0.006093
1767.000000	0.006336
1766.000000	0.006409
1765.000000	0.006442
1764.000000	0.006598
1763.000000	0.006887
1762.000000	0.007215
1761.000000	0.007518
1760.000000	0.007821
1759.000000	0.008209
1758.000000	0.008784
1757.000000	0.009571
1756.000000	0.010390
1755.000000	0.011063
1754.000000	0.011663
1753.000000	0.012385
1752.000000	0.013251
1751.000000	0.014054
1750.000000	0.014627
1749.000000	0.015067
1748.000000	0.015499
1747.000000	0.015852
1746.000000	0.016059
1745.000000	0.016118
1744.000000	0.016029
1743.000000	0.015766
1742.000000	0.015355
1741.000000	0.014876
1740.000000	0.014342
1739.000000	0.013688
1738.000000	0.012954
1737.000000	0.012337
1736.000000	0.011947
1735.000000	0.011622
1734.000000	0.011091
1733.000000	0.010373
1732.000000	0.009730
1731.000000	0.009348
1730.000000	0.009211
1729.000000	0.009194
1728.000000	0.009154
1727.000000	0.009024
1726.000000	0.008856
1725.000000	0.008708
1724.000000	0.008595
1723.000000	0.008479
1722.000000	0.008312
1721.000000	0.008143
1720.000000	0.008035
1719.000000	0.007961
1718.000000	0.007835
1717.000000	0.007698
1716.000000	0.007675
1715.000000	0.007795
1714.000000	0.008030
1713.000000	0.008346
1712.000000	0.008693
1711.000000	0.009016
1710.000000	0.009304
1709.000000	0.009583
1708.000000	0.009873
1707.000000	0.010214
1706.000000	0.010638
1705.000000	0.011089
1704.000000	0.011459
1703.000000	0.011821
1702.000000	0.012458
1701.000000	0.013525
1700.000000	0.014528
1699.000000	0.014842
1698.000000	0.014885
1697.000000	0.015451
1696.000000	0.016672
1695.000000	0.017911
1694.000000	0.018653
1693.000000	0.019160
1692.000000	0.019798
1691.000000	0.020566
1690.000000	0.021303
1689.000000	0.021930
1688.000000	0.022435
1687.000000	0.022894
1686.000000	0.023484
1685.000000	0.024396
1684.000000	0.025506
1683.000000	0.026379
1682.000000	0.027031
1681.000000	0.027800
1680.000000	0.028748
1679.000000	0.029656
1678.000000	0.030461
1677.000000	0.031383
1676.000000	0.032586
1675.000000	0.033803
1674.000000	0.034664
1673.000000	0.035266
1672.000000	0.035982
1671.000000	0.036993
1670.000000	0.038234
1669.000000	0.039557
1668.000000	0.040769
1667.000000	0.041763
1666.000000	0.042626
1665.000000	0.043554
1664.000000	0.044675
1663.000000	0.045875
1662.000000	0.046951
1661.000000	0.047883
1660.000000	0.048760
1659.000000	0.049610
1658.000000	0.050350
1657.000000	0.050925
1656.000000	0.051407
1655.000000	0.052008
1654.000000	0.052923
1653.000000	0.054068
1652.000000	0.054836
1651.000000	0.054983
1650.000000	0.055006
1649.000000	0.055296
1648.000000	0.055857
1647.000000	0.056541
1646.000000	0.057192
1645.000000	0.057748
1644.000000	0.058219
1643.000000	0.058630
1642.000000	0.059007
1641.000000	0.059340
1640.000000	0.059555
1639.000000	0.059620
1638.000000	0.059616
1637.000000	0.059724
1636.000000	0.060012
1635.000000	0.060318
1634.000000	0.060423
1633.000000	0.060375
1632.000000	0.060345
1631.000000	0.060316
1630.000000	0.060174
1629.000000	0.059863
1628.000000	0.059406
1627.000000	0.058838
1626.000000	0.058208
1625.000000	0.057538
1624.000000	0.056790
1623.000000	0.055910
1622.000000	0.054948
1621.000000	0.054018
1620.000000	0.053163
1619.000000	0.052332
1618.000000	0.051369
1617.000000	0.050159
1616.000000	0.048836
1615.000000	0.047644
1614.000000	0.046668
1613.000000	0.045824
1612.000000	0.044967
1611.000000	0.044000
1610.000000	0.042963
1609.000000	0.041955
1608.000000	0.041020
1607.000000	0.040145
1606.000000	0.039329
1605.000000	0.038563
1604.000000	0.037817
1603.000000	0.037101
1602.000000	0.036445
1601.000000	0.035855
1600.000000	0.035321
1599.000000	0.034844
1598.000000	0.034425
1597.000000	0.034034
1596.000000	0.033659
1595.000000	0.033333
1594.000000	0.033097
1593.000000	0.032942
1592.000000	0.032831
1591.000000	0.032755
1590.000000	0.032736
1589.000000	0.032773
1588.000000	0.032844
1587.000000	0.032942
1586.000000	0.033070
1585.000000	0.033229
1584.000000	0.033400
1583.000000	0.033616
1582.000000	0.033917
1581.000000	0.034233
1580.000000	0.034462
1579.000000	0.034625
1578.000000	0.034855
1577.000000	0.035227
1576.000000	0.035689
1575.000000	0.036107
1574.000000	0.036447
1573.000000	0.036803
1572.000000	0.037256
1571.000000	0.037819
1570.000000	0.038433
1569.000000	0.039012
1568.000000	0.039509
1567.000000	0.040009
1566.000000	0.040625
1565.000000	0.041321
1564.000000	0.041920
1563.000000	0.042338
1562.000000	0.042712
1561.000000	0.043231
1560.000000	0.043951
1559.000000	0.044679
1558.000000	0.045287
1557.000000	0.045792
1556.000000	0.046340
1555.000000	0.047081
1554.000000	0.047885
1553.000000	0.048528
1552.000000	0.048997
1551.000000	0.049477
1550.000000	0.050009
1549.000000	0.050490
1548.000000	0.050850
1547.000000	0.051137
1546.000000	0.051404
1545.000000	0.051598
1544.000000	0.051659
1543.000000	0.051642
1542.000000	0.051620
1541.000000	0.051617
1540.000000	0.051698
1539.000000	0.051897
1538.000000	0.052027
1537.000000	0.052016
1536.000000	0.052001
1535.000000	0.051996
1534.000000	0.051904
1533.000000	0.051672
1532.000000	0.051382
1531.000000	0.051120
1530.000000	0.050874
1529.000000	0.050611
1528.000000	0.050313
1527.000000	0.049967
1526.000000	0.049571
1525.000000	0.049126
1524.000000	0.048665
1523.000000	0.048234
1522.000000	0.047809
1521.000000	0.047368
1520.000000	0.046915
1519.000000	0.046472
1518.000000	0.046091
1517.000000	0.045765
1516.000000	0.045454
1515.000000	0.045117
1514.000000	0.044747
1513.000000	0.044322
1512.000000	0.043775
1511.000000	0.043051
1510.000000	0.042195
1509.000000	0.041276
1508.000000	0.040248
1507.000000	0.039090
1506.000000	0.038179
1505.000000	0.037628
1504.000000	0.037163
1503.000000	0.036724
1502.000000	0.036266
1501.000000	0.035721
1500.000000	0.035065
1499.000000	0.034319
1498.000000	0.033525
1497.000000	0.032738
1496.000000	0.032019
1495.000000	0.031346
1494.000000	0.030699
1493.000000	0.030129
1492.000000	0.029618
1491.000000	0.029027
1490.000000	0.028296
1489.000000	0.027617
1488.000000	0.027192
1487.000000	0.026975
1486.000000	0.026840
1485.000000	0.026771
1484.000000	0.026751
1483.000000	0.026746
1482.000000	0.026748
1481.000000	0.026779
1480.000000	0.026863
1479.000000	0.026994
1478.000000	0.027178
1477.000000	0.027410
1476.000000	0.027674
1475.000000	0.027970
1474.000000	0.028421
1473.000000	0.029173
1472.000000	0.030153
1471.000000	0.031113
1470.000000	0.031950
1469.000000	0.032734
1468.000000	0.033484
1467.000000	0.034136
1466.000000	0.034686
1465.000000	0.035207
1464.000000	0.035687
1463.000000	0.036057
1462.000000	0.036321
1461.000000	0.036569
1460.000000	0.036853
1459.000000	0.037205
1458.000000	0.037699
1457.000000	0.038378
1456.000000	0.039005
1455.000000	0.039323
1454.000000	0.039499
1453.000000	0.039732
1452.000000	0.039977
1451.000000	0.040119
1450.000000	0.040160
1449.000000	0.040185
1448.000000	0.040214
1447.000000	0.040176
1446.000000	0.040081
1445.000000	0.039991
1444.000000	0.039912
1443.000000	0.039817
1442.000000	0.039662
1441.000000	0.039442
1440.000000	0.039184
1439.000000	0.038934
1438.000000	0.038685
1437.000000	0.038371
1436.000000	0.037945
1435.000000	0.037442
1434.000000	0.036969
1433.000000	0.036601
1432.000000	0.036301
1431.000000	0.035986
1430.000000	0.035648
1429.000000	0.035354
1428.000000	0.035148
1427.000000	0.034979
1426.000000	0.034829
1425.000000	0.034712
1424.000000	0.034609
1423.000000	0.034509
1422.000000	0.034443
1421.000000	0.034466
1420.000000	0.034558
1419.000000	0.034601
1418.000000	0.034539
1417.000000	0.034474
1416.000000	0.034506
1415.000000	0.034602
1414.000000	0.034670
1413.000000	0.034684
1412.000000	0.034688
1411.000000	0.034719
1410.000000	0.034763
1409.000000	0.034806
1408.000000	0.034858
1407.000000	0.034910
1406.000000	0.034956
1405.000000	0.035025
1404.000000	0.035123
1403.000000	0.035208
1402.000000	0.035247
1401.000000	0.035257
1400.000000	0.035230
1399.000000	0.035114
1398.000000	0.034911
1397.000000	0.034707
1396.000000	0.034571
1395.000000	0.034472
1394.000000	0.034355
1393.000000	0.034205
1392.000000	0.034046
1391.000000	0.033898
1390.000000	0.033756
1389.000000	0.033608
1388.000000	0.033447
1387.000000	0.033257
1386.000000	0.033042
1385.000000	0.032840
1384.000000	0.032676
1383.000000	0.032525
1382.000000	0.032351
1381.000000	0.032164
1380.000000	0.031995
1379.000000	0.031819
1378.000000	0.031577
1377.000000	0.031253
1376.000000	0.030877
1375.000000	0.030480
1374.000000	0.030095
1373.000000	0.029758
1372.000000	0.029466
1371.000000	0.029179
1370.000000	0.028874
1369.000000	0.028540
1368.000000	0.028177
1367.000000	0.027790
1366.000000	0.027397
1365.000000	0.027010
1364.000000	0.026631
1363.000000	0.026267
1362.000000	0.025956
1361.000000	0.025741
1360.000000	0.025607
1359.000000	0.025508
1358.000000	0.025419
1357.000000	0.025346
1356.000000	0.025307
1355.000000	0.025307
1354.000000	0.025342
1353.000000	0.025418
1352.000000	0.025542
1351.000000	0.025694
1350.000000	0.025857
1349.000000	0.026037
1348.000000	0.026246
1347.000000	0.026482
1346.000000	0.026737
1345.000000	0.027002
1344.000000	0.027258
1343.000000	0.027469
1342.000000	0.027619
1341.000000	0.027722
1340.000000	0.027808
1339.000000	0.027897
1338.000000	0.028000
1337.000000	0.028107
1336.000000	0.028187
1335.000000	0.028199
1334.000000	0.028127
1333.000000	0.027998
1332.000000	0.027843
1331.000000	0.027664
1330.000000	0.027458
1329.000000	0.027243
1328.000000	0.027043
1327.000000	0.026860
1326.000000	0.026697
1325.000000	0.026563
1324.000000	0.026458
1323.000000	0.026365
1322.000000	0.026274
1321.000000	0.026206
1320.000000	0.026177
1319.000000	0.026172
1318.000000	0.026159
1317.000000	0.026125
1316.000000	0.026069
1315.000000	0.025986
1314.000000	0.025874
1313.000000	0.025746
1312.000000	0.025614
1311.000000	0.025472
1310.000000	0.025316
1309.000000	0.025163
1308.000000	0.025026
1307.000000	0.024894
1306.000000	0.024754
1305.000000	0.024612
1304.000000	0.024480
1303.000000	0.024350
1302.000000	0.024214
1301.000000	0.024085
1300.000000	0.023978
1299.000000	0.023889
1298.000000	0.023801
1297.000000	0.023719
1296.000000	0.023656
1295.000000	0.023625
1294.000000	0.023641
1293.000000	0.023719
1292.000000	0.023854
1291.000000	0.024014
1290.000000	0.024175
1289.000000	0.024347
1288.000000	0.024540
1287.000000	0.024741
1286.000000	0.024931
1285.000000	0.025116
1284.000000	0.025296
1283.000000	0.025444
1282.000000	0.025549
1281.000000	0.025628
1280.000000	0.025699
1279.000000	0.025747
1278.000000	0.025757
1277.000000	0.025750
1276.000000	0.025749
1275.000000	0.025742
1274.000000	0.025708
1273.000000	0.025662
1272.000000	0.025642
1271.000000	0.025669
1270.000000	0.025740
1269.000000	0.025854
1268.000000	0.025996
1267.000000	0.026137
1266.000000	0.026266
1265.000000	0.026403
1264.000000	0.026569
1263.000000	0.026750
1262.000000	0.026925
1261.000000	0.027106
1260.000000	0.027315
1259.000000	0.027550
1258.000000	0.027799
1257.000000	0.028059
1256.000000	0.028322
1255.000000	0.028563
1254.000000	0.028781
1253.000000	0.029022
1252.000000	0.029320
1251.000000	0.029661
1250.000000	0.030010
1249.000000	0.030364
1248.000000	0.030729
1247.000000	0.031092
1246.000000	0.031439
1245.000000	0.031771
1244.000000	0.032089
1243.000000	0.032371
1242.000000	0.032609
1241.000000	0.032826
1240.000000	0.033033
1239.000000	0.033207
1238.000000	0.033321
1237.000000	0.033385
1236.000000	0.033415
1235.000000	0.033394
1234.000000	0.033299
1233.000000	0.033137
1232.000000	0.032918
1231.000000	0.032642
1230.000000	0.032316
1229.000000	0.031965
1228.000000	0.031596
1227.000000	0.031181
1226.000000	0.030701
1225.000000	0.030177
1224.000000	0.029641
1223.000000	0.029098
1222.000000	0.028547
1221.000000	0.028008
1220.000000	0.027499
1219.000000	0.027017
1218.000000	0.026570
1217.000000	0.026188
1216.000000	0.025890
1215.000000	0.025655
1214.000000	0.025462
1213.000000	0.025318
1212.000000	0.025239
1211.000000	0.025219
1210.000000	0.025246
1209.000000	0.025317
1208.000000	0.025416
1207.000000	0.025502
1206.000000	0.025549
1205.000000	0.025577
1204.000000	0.025604
1203.000000	0.025610
1202.000000	0.025571
1201.000000	0.025492
1200.000000	0.025382
1199.000000	0.025228
1198.000000	0.025020
1197.000000	0.024776
1196.000000	0.024518
1195.000000	0.024247
1194.000000	0.023971
1193.000000	0.023714
1192.000000	0.023485
1191.000000	0.023249
1190.000000	0.022985
1189.000000	0.022719
1188.000000	0.022494
1187.000000	0.022313
1186.000000	0.022159
1185.000000	0.022037
1184.000000	0.021953
1183.000000	0.021889
1182.000000	0.021831
1181.000000	0.021799
1180.000000	0.021815
1179.000000	0.021871
1178.000000	0.021945
1177.000000	0.022041
1176.000000	0.022163
1175.000000	0.022293
1174.000000	0.022415
1173.000000	0.022555
1172.000000	0.022739
1171.000000	0.022952
1170.000000	0.023165
1169.000000	0.023373
1168.000000	0.023578
1167.000000	0.023764
1166.000000	0.023916
1165.000000	0.024059
1164.000000	0.024223
1163.000000	0.024398
1162.000000	0.024547
1161.000000	0.024649
1160.000000	0.024701
1159.000000	0.024697
1158.000000	0.024635
1157.000000	0.024527
1156.000000	0.024370
1155.000000	0.024153
1154.000000	0.023890
1153.000000	0.023635
1152.000000	0.023410
1151.000000	0.023182
1150.000000	0.022916
1149.000000	0.022624
1148.000000	0.022333
1147.000000	0.022041
1146.000000	0.021740
1145.000000	0.021446
1144.000000	0.021166
1143.000000	0.020873
1142.000000	0.020540
1141.000000	0.020186
1140.000000	0.019835
1139.000000	0.019482
1138.000000	0.019124
1137.000000	0.018790
1136.000000	0.018503
1135.000000	0.018245
1134.000000	0.017998
1133.000000	0.017787
1132.000000	0.017641
1131.000000	0.017540
1130.000000	0.017453
1129.000000	0.017385
1128.000000	0.017368
1127.000000	0.017404
1126.000000	0.017473
1125.000000	0.017570
1124.000000	0.017690
1123.000000	0.017806
1122.000000	0.017904
1121.000000	0.018000
1120.000000	0.018111
1119.000000	0.018220
1118.000000	0.018310
1117.000000	0.018397
1116.000000	0.018490
1115.000000	0.018564
1114.000000	0.018598
1113.000000	0.018618
1112.000000	0.018653
1111.000000	0.018693
1110.000000	0.018719
1109.000000	0.018750
1108.000000	0.018801
1107.000000	0.018853
1106.000000	0.018893
1105.000000	0.018959
1104.000000	0.019085
1103.000000	0.019240
1102.000000	0.019375
1101.000000	0.019484
1100.000000	0.019591
1099.000000	0.019692
1098.000000	0.019764
1097.000000	0.019814
1096.000000	0.019860
1095.000000	0.019914
1094.000000	0.019991
1093.000000	0.020127
1092.000000	0.020335
1091.000000	0.020581
1090.000000	0.020839
1089.000000	0.021128
1088.000000	0.021462
1087.000000	0.021806
1086.000000	0.022126
1085.000000	0.022429
1084.000000	0.022722
1083.000000	0.022962
1082.000000	0.023105
1081.000000	0.023160
1080.000000	0.023147
1079.000000	0.023052
1078.000000	0.022859
1077.000000	0.022587
1076.000000	0.022259
1075.000000	0.021879
1074.000000	0.021470
1073.000000	0.021099
1072.000000	0.020811
1071.000000	0.020587
1070.000000	0.020398
1069.000000	0.020261
1068.000000	0.020195
1067.000000	0.020175
1066.000000	0.020172
1065.000000	0.020193
1064.000000	0.020249
1063.000000	0.020312
1062.000000	0.020357
1061.000000	0.020397
1060.000000	0.020438
1059.000000	0.020450
1058.000000	0.020424
1057.000000	0.020396
1056.000000	0.020392
1055.000000	0.020380
1054.000000	0.020339
1053.000000	0.020311
1052.000000	0.020338
1051.000000	0.020395
1050.000000	0.020434
1049.000000	0.020456
1048.000000	0.020485
1047.000000	0.020504
1046.000000	0.020497
1045.000000	0.020491
1044.000000	0.020513
1043.000000	0.020549
1042.000000	0.020581
1041.000000	0.020635
1040.000000	0.020736
1039.000000	0.020875
1038.000000	0.021045
1037.000000	0.021275
1036.000000	0.021573
1035.000000	0.021882
1034.000000	0.022144
1033.000000	0.022367
1032.000000	0.022572
1031.000000	0.022735
1030.000000	0.022828
1029.000000	0.022872
1028.000000	0.022895
1027.000000	0.022888
1026.000000	0.022849
1025.000000	0.022816
1024.000000	0.022819
1023.000000	0.022829
1022.000000	0.022821
1021.000000	0.022814
1020.000000	0.022832
1019.000000	0.022851
1018.000000	0.022838
1017.000000	0.022789
1016.000000	0.022679
1015.000000	0.022444
1014.000000	0.022066
1013.000000	0.021611
1012.000000	0.021156
1011.000000	0.020707
1010.000000	0.020247
1009.000000	0.019804
1008.000000	0.019402
1007.000000	0.019015
1006.000000	0.018614
1005.000000	0.018224
1004.000000	0.017879
1003.000000	0.017558
1002.000000	0.017230
1001.000000	0.016907
1000.000000	0.016619
999.000000	0.016353
998.000000	0.016083
997.000000	0.015817
996.000000	0.015564
995.000000	0.015304
994.000000	0.015021
993.000000	0.014739
992.000000	0.014483
991.000000	0.014237
990.000000	0.013984
989.000000	0.013741
988.000000	0.013515
987.000000	0.013272
986.000000	0.012997
985.000000	0.012733
984.000000	0.012523
983.000000	0.012355
982.000000	0.012201
981.000000	0.012075
980.000000	0.011988
979.000000	0.011910
978.000000	0.011811
977.000000	0.011713
976.000000	0.011642
975.000000	0.011573
974.000000	0.011466
973.000000	0.011330
972.000000	0.011189
971.000000	0.011038
970.000000	0.010875
969.000000	0.010726
968.000000	0.010606
967.000000	0.010476
966.000000	0.010310
965.000000	0.010133
964.000000	0.009973
963.000000	0.009812
962.000000	0.009630
961.000000	0.009451
960.000000	0.009301
959.000000	0.009155
958.000000	0.008995
957.000000	0.008846
956.000000	0.008730
955.000000	0.008615
954.000000	0.008476
953.000000	0.008344
952.000000	0.008249
951.000000	0.008174
950.000000	0.008101
949.000000	0.008065
948.000000	0.008087
947.000000	0.008123
946.000000	0.008124
945.000000	0.008107
944.000000	0.008112
943.000000	0.008127
942.000000	0.008127
941.000000	0.008122
940.000000	0.008133
939.000000	0.008134
938.000000	0.008096
937.000000	0.008035
936.000000	0.007984
935.000000	0.007936
934.000000	0.007883
933.000000	0.007844
932.000000	0.007824
931.000000	0.007784
930.000000	0.007710
929.000000	0.007652
928.000000	0.007644
927.000000	0.007640
926.000000	0.007588
925.000000	0.007518
924.000000	0.007485
923.000000	0.007484
922.000000	0.007471
921.000000	0.007430
920.000000	0.007366
919.000000	0.007266
918.000000	0.007130
917.000000	0.006998
916.000000	0.006898
915.000000	0.006798
914.000000	0.006671
913.000000	0.006544
912.000000	0.006451
911.000000	0.006368
910.000000	0.006272
909.000000	0.006197
908.000000	0.006172
907.000000	0.006163
906.000000	0.006121
905.000000	0.006065
904.000000	0.006034
903.000000	0.006017
902.000000	0.005988
901.000000	0.005958
900.000000	0.005937
899.000000	0.005891
898.000000	0.005795
897.000000	0.005689
896.000000	0.005625
895.000000	0.005598
894.000000	0.005591
893.000000	0.005620
892.000000	0.005691
891.000000	0.005753
890.000000	0.005763
889.000000	0.005748
888.000000	0.005752
887.000000	0.005774
886.000000	0.005803
885.000000	0.005873
884.000000	0.006007
883.000000	0.006181
882.000000	0.006385
881.000000	0.006662
880.000000	0.007034
879.000000	0.007430
878.000000	0.007776
877.000000	0.008054
876.000000	0.008252
875.000000	0.008311
874.000000	0.008206
873.000000	0.008008
872.000000	0.007784
871.000000	0.007527
870.000000	0.007223
869.000000	0.006932
868.000000	0.006710
867.000000	0.006539
866.000000	0.006394
865.000000	0.006301
864.000000	0.006273
863.000000	0.006254
862.000000	0.006209
861.000000	0.006185
860.000000	0.006216
859.000000	0.006244
858.000000	0.006214
857.000000	0.006171
856.000000	0.006182
855.000000	0.006239
854.000000	0.006308
853.000000	0.006397
852.000000	0.006494
851.000000	0.006517
850.000000	0.006420
849.000000	0.006277
848.000000	0.006178
847.000000	0.006115
846.000000	0.006043
845.000000	0.005985
844.000000	0.005975
843.000000	0.005981
842.000000	0.005958
841.000000	0.005927
840.000000	0.005919
839.000000	0.005909
838.000000	0.005871
837.000000	0.005843
836.000000	0.005844
835.000000	0.005820
834.000000	0.005741
833.000000	0.005677
832.000000	0.005688
831.000000	0.005715
830.000000	0.005685
829.000000	0.005628
828.000000	0.005616
827.000000	0.005632
826.000000	0.005630
825.000000	0.005636
824.000000	0.005691
823.000000	0.005749
822.000000	0.005752
821.000000	0.005732
820.000000	0.005744
819.000000	0.005767
818.000000	0.005769
817.000000	0.005788
816.000000	0.005864
815.000000	0.005947
814.000000	0.005974
813.000000	0.005963
812.000000	0.005958
811.000000	0.005947
810.000000	0.005910
809.000000	0.005879
808.000000	0.005873
807.000000	0.005849
806.000000	0.005784
805.000000	0.005735
804.000000	0.005740
803.000000	0.005739
802.000000	0.005681
801.000000	0.005625
800.000000	0.005631
799.000000	0.005661
798.000000	0.005668
797.000000	0.005694
796.000000	0.005781
795.000000	0.005872
794.000000	0.005905
793.000000	0.005921
792.000000	0.005984
791.000000	0.006063
790.000000	0.006103
789.000000	0.006123
788.000000	0.006160
787.000000	0.006188
786.000000	0.006188
785.000000	0.006220
784.000000	0.006328
783.000000	0.006447
782.000000	0.006499
781.000000	0.006502
780.000000	0.006512
779.000000	0.006525
778.000000	0.006526
777.000000	0.006557
776.000000	0.006639
775.000000	0.006702
774.000000	0.006682
773.000000	0.006625
772.000000	0.006605
771.000000	0.006623
770.000000	0.006653
769.000000	0.006717
768.000000	0.006831
767.000000	0.006935
766.000000	0.006984
765.000000	0.007024
764.000000	0.007098
763.000000	0.007160
762.000000	0.007154
761.000000	0.007110
760.000000	0.007079
759.000000	0.007045
758.000000	0.006997
757.000000	0.007000
756.000000	0.007093
755.000000	0.007200
754.000000	0.007230
753.000000	0.007205
752.000000	0.007192
751.000000	0.007195
750.000000	0.007202
749.000000	0.007255
748.000000	0.007377
747.000000	0.007505
746.000000	0.007581
745.000000	0.007647
744.000000	0.007755
743.000000	0.007869
742.000000	0.007940
741.000000	0.008005
740.000000	0.008113
739.000000	0.008234
738.000000	0.008315
737.000000	0.008380
736.000000	0.008468
735.000000	0.008551
734.000000	0.008601
733.000000	0.008672
732.000000	0.008825
731.000000	0.009029
730.000000	0.009221
729.000000	0.009403
728.000000	0.009593
727.000000	0.009758
726.000000	0.009884
725.000000	0.010034
724.000000	0.010252
723.000000	0.010488
722.000000	0.010684
721.000000	0.010845
720.000000	0.010971
719.000000	0.011004
718.000000	0.010937
717.000000	0.010867
716.000000	0.010868
715.000000	0.010909
714.000000	0.010960
713.000000	0.011061
712.000000	0.011208
711.000000	0.011289
710.000000	0.011249
709.000000	0.011203
708.000000	0.011279
707.000000	0.011441
706.000000	0.011582
705.000000	0.011692
704.000000	0.011803
703.000000	0.011880
702.000000	0.011895
701.000000	0.011911
700.000000	0.011988
699.000000	0.012065
698.000000	0.012067
697.000000	0.012020
696.000000	0.011980
695.000000	0.011925
694.000000	0.011837
693.000000	0.011783
692.000000	0.011826
691.000000	0.011914
690.000000	0.011979
689.000000	0.012038
688.000000	0.012114
687.000000	0.012153
686.000000	0.012123
685.000000	0.012111
684.000000	0.012205
683.000000	0.012358
682.000000	0.012487
681.000000	0.012592
680.000000	0.012693
679.000000	0.012733
678.000000	0.012680
677.000000	0.012641
676.000000	0.012721
675.000000	0.012889
674.000000	0.013054
673.000000	0.013202
672.000000	0.013339
671.000000	0.013400
670.000000	0.013321
669.000000	0.013135
668.000000	0.013042
667.000000	0.013188
666.000000	0.013318
665.000000	0.013421
664.000000	0.013569
663.000000	0.013678
662.000000	0.013661
661.000000	0.013574
660.000000	0.013497
659.000000	0.013410
658.000000	0.013306
657.000000	0.013287
656.000000	0.013379
655.000000	0.013462
654.000000	0.013463
653.000000	0.013467
652.000000	0.013521
651.000000	0.013544
650.000000	0.013530
649.000000	0.013622
648.000000	0.013842
647.000000	0.013977
646.000000	0.013887
645.000000	0.013701
644.000000	0.013575
643.000000	0.013489
642.000000	0.013383
641.000000	0.013306
640.000000	0.013286
639.000000	0.013243
638.000000	0.013180
637.000000	0.013237
636.000000	0.013429
635.000000	0.013543
634.000000	0.013454
633.000000	0.013327
632.000000	0.013345
631.000000	0.013443
630.000000	0.013489
629.000000	0.013510
628.000000	0.013568
627.000000	0.013593
626.000000	0.013538
625.000000	0.013509
624.000000	0.013571
623.000000	0.013608
622.000000	0.013540
621.000000	0.013497
620.000000	0.013591
619.000000	0.013726
618.000000	0.013790
617.000000	0.013855
616.000000	0.013987
615.000000	0.014062
614.000000	0.013975
613.000000	0.013839
612.000000	0.013786
611.000000	0.013753
610.000000	0.013650
609.000000	0.013567
608.000000	0.013605
607.000000	0.013676
606.000000	0.013665
605.000000	0.013625
604.000000	0.013632
603.000000	0.013623
602.000000	0.013557
601.000000	0.013530
600.000000	0.013577
599.000000	0.013573
598.000000	0.013495
597.000000	0.013544
596.000000	0.013807
595.000000	0.014045
594.000000	0.014027
593.000000	0.013861
592.000000	0.013773
591.000000	0.013773
590.000000	0.013762
589.000000	0.013774
588.000000	0.013848
587.000000	0.013869
586.000000	0.013770
585.000000	0.013704
584.000000	0.013794
583.000000	0.013906
582.000000	0.013891
581.000000	0.013858
580.000000	0.013957
579.000000	0.014095
578.000000	0.014114
577.000000	0.014058
576.000000	0.014044
575.000000	0.014050
574.000000	0.014048
573.000000	0.014134
572.000000	0.014312
571.000000	0.014385
570.000000	0.014271
569.000000	0.014200
568.000000	0.014355
567.000000	0.014578
566.000000	0.014661
565.000000	0.014684
564.000000	0.014798
563.000000	0.014937
562.000000	0.015005
561.000000	0.015096
560.000000	0.015268
559.000000	0.015334
558.000000	0.015152
557.000000	0.014894
556.000000	0.014751
555.000000	0.014638
554.000000	0.014437
553.000000	0.014276
552.000000	0.014301
551.000000	0.014410
550.000000	0.014465
549.000000	0.014532
548.000000	0.014635
547.000000	0.014580
546.000000	0.014283
545.000000	0.014017
544.000000	0.014009
543.000000	0.014108
542.000000	0.014099
541.000000	0.014060
540.000000	0.014114
539.000000	0.014146
538.000000	0.014071
537.000000	0.014088
536.000000	0.014344
535.000000	0.014604
534.000000	0.014616
533.000000	0.014522
532.000000	0.014556
531.000000	0.014607
530.000000	0.014442
529.000000	0.014133
528.000000	0.013899
527.000000	0.013770
526.000000	0.013686
525.000000	0.013717
524.000000	0.013872
523.000000	0.013944
522.000000	0.013829
521.000000	0.013727
520.000000	0.013771
519.000000	0.013721
518.000000	0.013324
517.000000	0.012763
516.000000	0.012370
515.000000	0.012176
514.000000	0.012084
513.000000	0.012141
512.000000	0.012316
511.000000	0.012330
510.000000	0.012038
509.000000	0.011703
508.000000	0.011590
507.000000	0.011544
506.000000	0.011314
505.000000	0.010993
504.000000	0.010778
503.000000	0.010593
502.000000	0.010302
501.000000	0.010036
500.000000	0.009931
499.000000	0.009839
498.000000	0.009617
497.000000	0.009408
496.000000	0.009361
495.000000	0.009332
494.000000	0.009176
493.000000	0.009034
492.000000	0.009042
491.000000	0.009030
490.000000	0.008853
489.000000	0.008696
488.000000	0.008714
487.000000	0.008706
486.000000	0.008486
485.000000	0.008268
484.000000	0.008316
483.000000	0.008464
482.000000	0.008401
481.000000	0.008134
480.000000	0.007822
479.000000	0.007491
478.000000	0.007242
477.000000	0.007359
476.000000	0.007840
475.000000	0.008197
474.000000	0.008076
473.000000	0.007786
472.000000	0.007801
471.000000	0.008025
470.000000	0.008145
469.000000	0.008236
468.000000	0.008427
467.000000	0.008469
466.000000	0.008160
465.000000	0.007829
464.000000	0.007795
463.000000	0.007788
462.000000	0.007406
461.000000	0.006826
460.000000	0.006490
459.000000	0.006401
458.000000	0.006259
457.000000	0.006069
456.000000	0.006012
455.000000	0.006010
454.000000	0.005974
453.000000	0.006050
452.000000	0.006232
451.000000	0.006149
450.000000	0.005649
