PE IR       SUBTECH     SPECTRUM    ASCII       PEDS        4.00        
   -1
3C-N10-F007_1.ASC
22/02/16
15:23:16.00
22/02/16
15:56:00.00
uco
Sample 007 By uco Date Wednesday, February 16 2022
450.000000
#HDR
-1
-1
#GR
cm-1
A
1.0
0.0
4000.000000
-1.000000
3551
8
0.050595
0.004137
#DATA
4000.000000	0.004435
3999.000000	0.004440
3998.000000	0.004446
3997.000000	0.004452
3996.000000	0.004460
3995.000000	0.004471
3994.000000	0.004485
3993.000000	0.004500
3992.000000	0.004513
3991.000000	0.004516
3990.000000	0.004507
3989.000000	0.004486
3988.000000	0.004462
3987.000000	0.004444
3986.000000	0.004439
3985.000000	0.004449
3984.000000	0.004468
3983.000000	0.004485
3982.000000	0.004491
3981.000000	0.004481
3980.000000	0.004460
3979.000000	0.004441
3978.000000	0.004432
3977.000000	0.004435
3976.000000	0.004441
3975.000000	0.004441
3974.000000	0.004433
3973.000000	0.004425
3972.000000	0.004426
3971.000000	0.004437
3970.000000	0.004450
3969.000000	0.004457
3968.000000	0.004455
3967.000000	0.004452
3966.000000	0.004453
3965.000000	0.004461
3964.000000	0.004474
3963.000000	0.004492
3962.000000	0.004512
3961.000000	0.004532
3960.000000	0.004549
3959.000000	0.004561
3958.000000	0.004571
3957.000000	0.004582
3956.000000	0.004594
3955.000000	0.004604
3954.000000	0.004605
3953.000000	0.004594
3952.000000	0.004571
3951.000000	0.004537
3950.000000	0.004501
3949.000000	0.004471
3948.000000	0.004458
3947.000000	0.004467
3946.000000	0.004494
3945.000000	0.004529
3944.000000	0.004560
3943.000000	0.004581
3942.000000	0.004590
3941.000000	0.004590
3940.000000	0.004587
3939.000000	0.004583
3938.000000	0.004582
3937.000000	0.004590
3936.000000	0.004605
3935.000000	0.004623
3934.000000	0.004632
3933.000000	0.004625
3932.000000	0.004603
3931.000000	0.004573
3930.000000	0.004549
3929.000000	0.004536
3928.000000	0.004535
3927.000000	0.004543
3926.000000	0.004553
3925.000000	0.004564
3924.000000	0.004577
3923.000000	0.004588
3922.000000	0.004592
3921.000000	0.004583
3920.000000	0.004566
3919.000000	0.004556
3918.000000	0.004559
3917.000000	0.004570
3916.000000	0.004576
3915.000000	0.004573
3914.000000	0.004564
3913.000000	0.004555
3912.000000	0.004553
3911.000000	0.004557
3910.000000	0.004567
3909.000000	0.004579
3908.000000	0.004588
3907.000000	0.004586
3906.000000	0.004567
3905.000000	0.004533
3904.000000	0.004502
3903.000000	0.004493
3902.000000	0.004506
3901.000000	0.004523
3900.000000	0.004530
3899.000000	0.004535
3898.000000	0.004551
3897.000000	0.004583
3896.000000	0.004622
3895.000000	0.004656
3894.000000	0.004678
3893.000000	0.004685
3892.000000	0.004678
3891.000000	0.004666
3890.000000	0.004661
3889.000000	0.004661
3888.000000	0.004655
3887.000000	0.004631
3886.000000	0.004593
3885.000000	0.004559
3884.000000	0.004544
3883.000000	0.004544
3882.000000	0.004542
3881.000000	0.004531
3880.000000	0.004525
3879.000000	0.004536
3878.000000	0.004558
3877.000000	0.004574
3876.000000	0.004573
3875.000000	0.004562
3874.000000	0.004558
3873.000000	0.004572
3872.000000	0.004598
3871.000000	0.004616
3870.000000	0.004620
3869.000000	0.004623
3868.000000	0.004634
3867.000000	0.004640
3866.000000	0.004624
3865.000000	0.004592
3864.000000	0.004571
3863.000000	0.004577
3862.000000	0.004604
3861.000000	0.004635
3860.000000	0.004661
3859.000000	0.004681
3858.000000	0.004701
3857.000000	0.004725
3856.000000	0.004749
3855.000000	0.004760
3854.000000	0.004747
3853.000000	0.004714
3852.000000	0.004681
3851.000000	0.004657
3850.000000	0.004633
3849.000000	0.004615
3848.000000	0.004614
3847.000000	0.004630
3846.000000	0.004652
3845.000000	0.004663
3844.000000	0.004655
3843.000000	0.004634
3842.000000	0.004612
3841.000000	0.004599
3840.000000	0.004593
3839.000000	0.004590
3838.000000	0.004592
3837.000000	0.004601
3836.000000	0.004618
3835.000000	0.004637
3834.000000	0.004656
3833.000000	0.004679
3832.000000	0.004702
3831.000000	0.004716
3830.000000	0.004706
3829.000000	0.004666
3828.000000	0.004603
3827.000000	0.004540
3826.000000	0.004503
3825.000000	0.004507
3824.000000	0.004546
3823.000000	0.004593
3822.000000	0.004620
3821.000000	0.004615
3820.000000	0.004600
3819.000000	0.004590
3818.000000	0.004577
3817.000000	0.004555
3816.000000	0.004536
3815.000000	0.004535
3814.000000	0.004547
3813.000000	0.004547
3812.000000	0.004528
3811.000000	0.004510
3810.000000	0.004514
3809.000000	0.004535
3808.000000	0.004549
3807.000000	0.004541
3806.000000	0.004525
3805.000000	0.004523
3804.000000	0.004536
3803.000000	0.004548
3802.000000	0.004549
3801.000000	0.004541
3800.000000	0.004535
3799.000000	0.004530
3798.000000	0.004517
3797.000000	0.004505
3796.000000	0.004511
3795.000000	0.004538
3794.000000	0.004568
3793.000000	0.004580
3792.000000	0.004573
3791.000000	0.004560
3790.000000	0.004552
3789.000000	0.004549
3788.000000	0.004545
3787.000000	0.004534
3786.000000	0.004521
3785.000000	0.004511
3784.000000	0.004512
3783.000000	0.004522
3782.000000	0.004535
3781.000000	0.004541
3780.000000	0.004535
3779.000000	0.004525
3778.000000	0.004518
3777.000000	0.004516
3776.000000	0.004510
3775.000000	0.004497
3774.000000	0.004481
3773.000000	0.004472
3772.000000	0.004477
3771.000000	0.004494
3770.000000	0.004517
3769.000000	0.004542
3768.000000	0.004557
3767.000000	0.004549
3766.000000	0.004517
3765.000000	0.004481
3764.000000	0.004465
3763.000000	0.004474
3762.000000	0.004492
3761.000000	0.004500
3760.000000	0.004491
3759.000000	0.004478
3758.000000	0.004479
3757.000000	0.004499
3756.000000	0.004529
3755.000000	0.004553
3754.000000	0.004556
3753.000000	0.004529
3752.000000	0.004480
3751.000000	0.004433
3750.000000	0.004411
3749.000000	0.004420
3748.000000	0.004444
3747.000000	0.004463
3746.000000	0.004465
3745.000000	0.004450
3744.000000	0.004446
3743.000000	0.004464
3742.000000	0.004483
3741.000000	0.004478
3740.000000	0.004459
3739.000000	0.004445
3738.000000	0.004450
3737.000000	0.004468
3736.000000	0.004481
3735.000000	0.004483
3734.000000	0.004486
3733.000000	0.004498
3732.000000	0.004508
3731.000000	0.004506
3730.000000	0.004498
3729.000000	0.004490
3728.000000	0.004483
3727.000000	0.004469
3726.000000	0.004447
3725.000000	0.004424
3724.000000	0.004412
3723.000000	0.004415
3722.000000	0.004432
3721.000000	0.004454
3720.000000	0.004466
3719.000000	0.004457
3718.000000	0.004432
3717.000000	0.004407
3716.000000	0.004401
3715.000000	0.004418
3714.000000	0.004449
3713.000000	0.004483
3712.000000	0.004513
3711.000000	0.004541
3710.000000	0.004562
3709.000000	0.004563
3708.000000	0.004537
3707.000000	0.004494
3706.000000	0.004460
3705.000000	0.004456
3704.000000	0.004476
3703.000000	0.004497
3702.000000	0.004496
3701.000000	0.004478
3700.000000	0.004456
3699.000000	0.004442
3698.000000	0.004433
3697.000000	0.004427
3696.000000	0.004424
3695.000000	0.004423
3694.000000	0.004423
3693.000000	0.004425
3692.000000	0.004434
3691.000000	0.004452
3690.000000	0.004471
3689.000000	0.004481
3688.000000	0.004481
3687.000000	0.004476
3686.000000	0.004470
3685.000000	0.004472
3684.000000	0.004490
3683.000000	0.004522
3682.000000	0.004556
3681.000000	0.004577
3680.000000	0.004582
3679.000000	0.004586
3678.000000	0.004598
3677.000000	0.004606
3676.000000	0.004591
3675.000000	0.004567
3674.000000	0.004563
3673.000000	0.004578
3672.000000	0.004591
3671.000000	0.004598
3670.000000	0.004616
3669.000000	0.004656
3668.000000	0.004710
3667.000000	0.004754
3666.000000	0.004780
3665.000000	0.004799
3664.000000	0.004822
3663.000000	0.004850
3662.000000	0.004871
3661.000000	0.004878
3660.000000	0.004878
3659.000000	0.004883
3658.000000	0.004900
3657.000000	0.004928
3656.000000	0.004961
3655.000000	0.004996
3654.000000	0.005029
3653.000000	0.005056
3652.000000	0.005066
3651.000000	0.005057
3650.000000	0.005044
3649.000000	0.005061
3648.000000	0.005136
3647.000000	0.005254
3646.000000	0.005374
3645.000000	0.005459
3644.000000	0.005491
3643.000000	0.005474
3642.000000	0.005430
3641.000000	0.005389
3640.000000	0.005369
3639.000000	0.005373
3638.000000	0.005397
3637.000000	0.005436
3636.000000	0.005488
3635.000000	0.005545
3634.000000	0.005599
3633.000000	0.005645
3632.000000	0.005682
3631.000000	0.005709
3630.000000	0.005732
3629.000000	0.005769
3628.000000	0.005830
3627.000000	0.005899
3626.000000	0.005945
3625.000000	0.005959
3624.000000	0.005956
3623.000000	0.005958
3622.000000	0.005970
3621.000000	0.005988
3620.000000	0.006007
3619.000000	0.006036
3618.000000	0.006086
3617.000000	0.006158
3616.000000	0.006240
3615.000000	0.006314
3614.000000	0.006371
3613.000000	0.006413
3612.000000	0.006453
3611.000000	0.006504
3610.000000	0.006570
3609.000000	0.006642
3608.000000	0.006704
3607.000000	0.006747
3606.000000	0.006770
3605.000000	0.006782
3604.000000	0.006795
3603.000000	0.006821
3602.000000	0.006870
3601.000000	0.006933
3600.000000	0.006997
3599.000000	0.007056
3598.000000	0.007110
3597.000000	0.007160
3596.000000	0.007210
3595.000000	0.007257
3594.000000	0.007305
3593.000000	0.007353
3592.000000	0.007396
3591.000000	0.007430
3590.000000	0.007465
3589.000000	0.007520
3588.000000	0.007609
3587.000000	0.007724
3586.000000	0.007841
3585.000000	0.007932
3584.000000	0.007983
3583.000000	0.008007
3582.000000	0.008030
3581.000000	0.008070
3580.000000	0.008131
3579.000000	0.008205
3578.000000	0.008284
3577.000000	0.008361
3576.000000	0.008428
3575.000000	0.008483
3574.000000	0.008530
3573.000000	0.008580
3572.000000	0.008633
3571.000000	0.008679
3570.000000	0.008712
3569.000000	0.008740
3568.000000	0.008780
3567.000000	0.008844
3566.000000	0.008932
3565.000000	0.009026
3564.000000	0.009109
3563.000000	0.009170
3562.000000	0.009221
3561.000000	0.009276
3560.000000	0.009345
3559.000000	0.009429
3558.000000	0.009519
3557.000000	0.009609
3556.000000	0.009694
3555.000000	0.009772
3554.000000	0.009844
3553.000000	0.009916
3552.000000	0.009984
3551.000000	0.010042
3550.000000	0.010087
3549.000000	0.010127
3548.000000	0.010174
3547.000000	0.010239
3546.000000	0.010321
3545.000000	0.010411
3544.000000	0.010497
3543.000000	0.010571
3542.000000	0.010631
3541.000000	0.010682
3540.000000	0.010735
3539.000000	0.010797
3538.000000	0.010863
3537.000000	0.010925
3536.000000	0.010982
3535.000000	0.011044
3534.000000	0.011119
3533.000000	0.011203
3532.000000	0.011287
3531.000000	0.011359
3530.000000	0.011418
3529.000000	0.011467
3528.000000	0.011513
3527.000000	0.011562
3526.000000	0.011621
3525.000000	0.011688
3524.000000	0.011758
3523.000000	0.011827
3522.000000	0.011892
3521.000000	0.011958
3520.000000	0.012026
3519.000000	0.012094
3518.000000	0.012161
3517.000000	0.012225
3516.000000	0.012285
3515.000000	0.012341
3514.000000	0.012395
3513.000000	0.012455
3512.000000	0.012527
3511.000000	0.012604
3510.000000	0.012677
3509.000000	0.012737
3508.000000	0.012782
3507.000000	0.012822
3506.000000	0.012864
3505.000000	0.012916
3504.000000	0.012980
3503.000000	0.013052
3502.000000	0.013122
3501.000000	0.013187
3500.000000	0.013246
3499.000000	0.013306
3498.000000	0.013372
3497.000000	0.013444
3496.000000	0.013509
3495.000000	0.013557
3494.000000	0.013586
3493.000000	0.013609
3492.000000	0.013639
3491.000000	0.013682
3490.000000	0.013731
3489.000000	0.013777
3488.000000	0.013818
3487.000000	0.013855
3486.000000	0.013895
3485.000000	0.013938
3484.000000	0.013981
3483.000000	0.014020
3482.000000	0.014059
3481.000000	0.014109
3480.000000	0.014171
3479.000000	0.014237
3478.000000	0.014294
3477.000000	0.014336
3476.000000	0.014367
3475.000000	0.014400
3474.000000	0.014437
3473.000000	0.014480
3472.000000	0.014528
3471.000000	0.014583
3470.000000	0.014647
3469.000000	0.014712
3468.000000	0.014770
3467.000000	0.014816
3466.000000	0.014847
3465.000000	0.014865
3464.000000	0.014879
3463.000000	0.014902
3462.000000	0.014944
3461.000000	0.015004
3460.000000	0.015072
3459.000000	0.015137
3458.000000	0.015197
3457.000000	0.015255
3456.000000	0.015311
3455.000000	0.015365
3454.000000	0.015415
3453.000000	0.015461
3452.000000	0.015499
3451.000000	0.015529
3450.000000	0.015553
3449.000000	0.015577
3448.000000	0.015607
3447.000000	0.015648
3446.000000	0.015703
3445.000000	0.015768
3444.000000	0.015834
3443.000000	0.015889
3442.000000	0.015933
3441.000000	0.015970
3440.000000	0.016008
3439.000000	0.016054
3438.000000	0.016110
3437.000000	0.016174
3436.000000	0.016245
3435.000000	0.016320
3434.000000	0.016387
3433.000000	0.016437
3432.000000	0.016467
3431.000000	0.016488
3430.000000	0.016509
3429.000000	0.016535
3428.000000	0.016563
3427.000000	0.016598
3426.000000	0.016647
3425.000000	0.016714
3424.000000	0.016786
3423.000000	0.016846
3422.000000	0.016890
3421.000000	0.016924
3420.000000	0.016960
3419.000000	0.016999
3418.000000	0.017039
3417.000000	0.017078
3416.000000	0.017120
3415.000000	0.017170
3414.000000	0.017232
3413.000000	0.017304
3412.000000	0.017377
3411.000000	0.017443
3410.000000	0.017496
3409.000000	0.017538
3408.000000	0.017575
3407.000000	0.017609
3406.000000	0.017642
3405.000000	0.017672
3404.000000	0.017701
3403.000000	0.017733
3402.000000	0.017774
3401.000000	0.017825
3400.000000	0.017881
3399.000000	0.017935
3398.000000	0.017980
3397.000000	0.018018
3396.000000	0.018052
3395.000000	0.018091
3394.000000	0.018140
3393.000000	0.018195
3392.000000	0.018250
3391.000000	0.018295
3390.000000	0.018330
3389.000000	0.018360
3388.000000	0.018394
3387.000000	0.018437
3386.000000	0.018492
3385.000000	0.018555
3384.000000	0.018623
3383.000000	0.018691
3382.000000	0.018757
3381.000000	0.018818
3380.000000	0.018877
3379.000000	0.018937
3378.000000	0.019004
3377.000000	0.019079
3376.000000	0.019154
3375.000000	0.019219
3374.000000	0.019270
3373.000000	0.019314
3372.000000	0.019363
3371.000000	0.019429
3370.000000	0.019509
3369.000000	0.019595
3368.000000	0.019675
3367.000000	0.019746
3366.000000	0.019813
3365.000000	0.019881
3364.000000	0.019950
3363.000000	0.020017
3362.000000	0.020079
3361.000000	0.020140
3360.000000	0.020208
3359.000000	0.020289
3358.000000	0.020382
3357.000000	0.020479
3356.000000	0.020578
3355.000000	0.020679
3354.000000	0.020776
3353.000000	0.020861
3352.000000	0.020931
3351.000000	0.020991
3350.000000	0.021057
3349.000000	0.021135
3348.000000	0.021221
3347.000000	0.021311
3346.000000	0.021402
3345.000000	0.021494
3344.000000	0.021591
3343.000000	0.021691
3342.000000	0.021791
3341.000000	0.021887
3340.000000	0.021975
3339.000000	0.022057
3338.000000	0.022136
3337.000000	0.022215
3336.000000	0.022287
3335.000000	0.022350
3334.000000	0.022406
3333.000000	0.022469
3332.000000	0.022551
3331.000000	0.022648
3330.000000	0.022745
3329.000000	0.022824
3328.000000	0.022881
3327.000000	0.022925
3326.000000	0.022972
3325.000000	0.023028
3324.000000	0.023092
3323.000000	0.023158
3322.000000	0.023223
3321.000000	0.023286
3320.000000	0.023343
3319.000000	0.023393
3318.000000	0.023433
3317.000000	0.023464
3316.000000	0.023491
3315.000000	0.023522
3314.000000	0.023563
3313.000000	0.023614
3312.000000	0.023667
3311.000000	0.023715
3310.000000	0.023763
3309.000000	0.023814
3308.000000	0.023868
3307.000000	0.023912
3306.000000	0.023939
3305.000000	0.023956
3304.000000	0.023985
3303.000000	0.024036
3302.000000	0.024102
3301.000000	0.024163
3300.000000	0.024207
3299.000000	0.024235
3298.000000	0.024253
3297.000000	0.024266
3296.000000	0.024272
3295.000000	0.024274
3294.000000	0.024276
3293.000000	0.024279
3292.000000	0.024285
3291.000000	0.024297
3290.000000	0.024320
3289.000000	0.024353
3288.000000	0.024384
3287.000000	0.024403
3286.000000	0.024408
3285.000000	0.024402
3284.000000	0.024390
3283.000000	0.024379
3282.000000	0.024372
3281.000000	0.024369
3280.000000	0.024365
3279.000000	0.024350
3278.000000	0.024323
3277.000000	0.024284
3276.000000	0.024238
3275.000000	0.024193
3274.000000	0.024157
3273.000000	0.024135
3272.000000	0.024127
3271.000000	0.024125
3270.000000	0.024119
3269.000000	0.024100
3268.000000	0.024063
3267.000000	0.024009
3266.000000	0.023943
3265.000000	0.023878
3264.000000	0.023825
3263.000000	0.023794
3262.000000	0.023782
3261.000000	0.023775
3260.000000	0.023748
3259.000000	0.023688
3258.000000	0.023603
3257.000000	0.023518
3256.000000	0.023456
3255.000000	0.023420
3254.000000	0.023391
3253.000000	0.023352
3252.000000	0.023299
3251.000000	0.023239
3250.000000	0.023178
3249.000000	0.023118
3248.000000	0.023063
3247.000000	0.023014
3246.000000	0.022972
3245.000000	0.022932
3244.000000	0.022892
3243.000000	0.022855
3242.000000	0.022821
3241.000000	0.022785
3240.000000	0.022743
3239.000000	0.022696
3238.000000	0.022649
3237.000000	0.022604
3236.000000	0.022557
3235.000000	0.022507
3234.000000	0.022453
3233.000000	0.022400
3232.000000	0.022354
3231.000000	0.022322
3230.000000	0.022300
3229.000000	0.022275
3228.000000	0.022234
3227.000000	0.022180
3226.000000	0.022129
3225.000000	0.022095
3224.000000	0.022075
3223.000000	0.022056
3222.000000	0.022028
3221.000000	0.021985
3220.000000	0.021927
3219.000000	0.021860
3218.000000	0.021794
3217.000000	0.021740
3216.000000	0.021698
3215.000000	0.021663
3214.000000	0.021628
3213.000000	0.021592
3212.000000	0.021557
3211.000000	0.021524
3210.000000	0.021487
3209.000000	0.021437
3208.000000	0.021373
3207.000000	0.021300
3206.000000	0.021231
3205.000000	0.021176
3204.000000	0.021137
3203.000000	0.021113
3202.000000	0.021095
3201.000000	0.021070
3200.000000	0.021027
3199.000000	0.020963
3198.000000	0.020886
3197.000000	0.020812
3196.000000	0.020749
3195.000000	0.020701
3194.000000	0.020658
3193.000000	0.020603
3192.000000	0.020530
3191.000000	0.020448
3190.000000	0.020372
3189.000000	0.020311
3188.000000	0.020256
3187.000000	0.020195
3186.000000	0.020124
3185.000000	0.020050
3184.000000	0.019988
3183.000000	0.019945
3182.000000	0.019911
3181.000000	0.019867
3180.000000	0.019800
3179.000000	0.019717
3178.000000	0.019636
3177.000000	0.019568
3176.000000	0.019510
3175.000000	0.019454
3174.000000	0.019399
3173.000000	0.019341
3172.000000	0.019277
3171.000000	0.019202
3170.000000	0.019118
3169.000000	0.019033
3168.000000	0.018955
3167.000000	0.018881
3166.000000	0.018805
3165.000000	0.018728
3164.000000	0.018660
3163.000000	0.018608
3162.000000	0.018566
3161.000000	0.018512
3160.000000	0.018434
3159.000000	0.018336
3158.000000	0.018240
3157.000000	0.018158
3156.000000	0.018091
3155.000000	0.018030
3154.000000	0.017967
3153.000000	0.017902
3152.000000	0.017843
3151.000000	0.017797
3150.000000	0.017765
3149.000000	0.017741
3148.000000	0.017711
3147.000000	0.017672
3146.000000	0.017630
3145.000000	0.017590
3144.000000	0.017546
3143.000000	0.017491
3142.000000	0.017427
3141.000000	0.017363
3140.000000	0.017304
3139.000000	0.017246
3138.000000	0.017185
3137.000000	0.017128
3136.000000	0.017084
3135.000000	0.017059
3134.000000	0.017045
3133.000000	0.017030
3132.000000	0.017004
3131.000000	0.016966
3130.000000	0.016924
3129.000000	0.016886
3128.000000	0.016860
3127.000000	0.016846
3126.000000	0.016843
3125.000000	0.016836
3124.000000	0.016806
3123.000000	0.016746
3122.000000	0.016667
3121.000000	0.016601
3120.000000	0.016568
3119.000000	0.016569
3118.000000	0.016586
3117.000000	0.016601
3116.000000	0.016606
3115.000000	0.016605
3114.000000	0.016606
3113.000000	0.016612
3112.000000	0.016619
3111.000000	0.016618
3110.000000	0.016605
3109.000000	0.016583
3108.000000	0.016562
3107.000000	0.016556
3106.000000	0.016574
3105.000000	0.016609
3104.000000	0.016644
3103.000000	0.016665
3102.000000	0.016676
3101.000000	0.016690
3100.000000	0.016719
3099.000000	0.016759
3098.000000	0.016803
3097.000000	0.016841
3096.000000	0.016868
3095.000000	0.016883
3094.000000	0.016893
3093.000000	0.016908
3092.000000	0.016938
3091.000000	0.016982
3090.000000	0.017030
3089.000000	0.017073
3088.000000	0.017100
3087.000000	0.017110
3086.000000	0.017106
3085.000000	0.017098
3084.000000	0.017091
3083.000000	0.017085
3082.000000	0.017076
3081.000000	0.017065
3080.000000	0.017054
3079.000000	0.017047
3078.000000	0.017053
3077.000000	0.017078
3076.000000	0.017119
3075.000000	0.017159
3074.000000	0.017182
3073.000000	0.017184
3072.000000	0.017173
3071.000000	0.017159
3070.000000	0.017147
3069.000000	0.017133
3068.000000	0.017113
3067.000000	0.017089
3066.000000	0.017064
3065.000000	0.017039
3064.000000	0.017013
3063.000000	0.016983
3062.000000	0.016946
3061.000000	0.016897
3060.000000	0.016837
3059.000000	0.016768
3058.000000	0.016697
3057.000000	0.016633
3056.000000	0.016582
3055.000000	0.016540
3054.000000	0.016497
3053.000000	0.016442
3052.000000	0.016374
3051.000000	0.016303
3050.000000	0.016241
3049.000000	0.016187
3048.000000	0.016139
3047.000000	0.016094
3046.000000	0.016054
3045.000000	0.016015
3044.000000	0.015969
3043.000000	0.015912
3042.000000	0.015845
3041.000000	0.015778
3040.000000	0.015714
3039.000000	0.015654
3038.000000	0.015593
3037.000000	0.015524
3036.000000	0.015445
3035.000000	0.015368
3034.000000	0.015303
3033.000000	0.015253
3032.000000	0.015211
3031.000000	0.015170
3030.000000	0.015134
3029.000000	0.015102
3028.000000	0.015069
3027.000000	0.015029
3026.000000	0.014986
3025.000000	0.014947
3024.000000	0.014911
3023.000000	0.014862
3022.000000	0.014795
3021.000000	0.014718
3020.000000	0.014647
3019.000000	0.014594
3018.000000	0.014559
3017.000000	0.014540
3016.000000	0.014533
3015.000000	0.014537
3014.000000	0.014549
3013.000000	0.014565
3012.000000	0.014581
3011.000000	0.014598
3010.000000	0.014618
3009.000000	0.014640
3008.000000	0.014657
3007.000000	0.014657
3006.000000	0.014642
3005.000000	0.014620
3004.000000	0.014607
3003.000000	0.014606
3002.000000	0.014611
3001.000000	0.014609
3000.000000	0.014595
2999.000000	0.014575
2998.000000	0.014560
2997.000000	0.014557
2996.000000	0.014570
2995.000000	0.014604
2994.000000	0.014658
2993.000000	0.014722
2992.000000	0.014785
2991.000000	0.014842
2990.000000	0.014897
2989.000000	0.014957
2988.000000	0.015020
2987.000000	0.015081
2986.000000	0.015139
2985.000000	0.015198
2984.000000	0.015261
2983.000000	0.015331
2982.000000	0.015408
2981.000000	0.015493
2980.000000	0.015585
2979.000000	0.015679
2978.000000	0.015773
2977.000000	0.015865
2976.000000	0.015961
2975.000000	0.016065
2974.000000	0.016182
2973.000000	0.016312
2972.000000	0.016449
2971.000000	0.016587
2970.000000	0.016723
2969.000000	0.016862
2968.000000	0.017019
2967.000000	0.017206
2966.000000	0.017423
2965.000000	0.017656
2964.000000	0.017883
2963.000000	0.018093
2962.000000	0.018283
2961.000000	0.018458
2960.000000	0.018621
2959.000000	0.018774
2958.000000	0.018915
2957.000000	0.019039
2956.000000	0.019138
2955.000000	0.019203
2954.000000	0.019233
2953.000000	0.019241
2952.000000	0.019244
2951.000000	0.019259
2950.000000	0.019290
2949.000000	0.019333
2948.000000	0.019388
2947.000000	0.019470
2946.000000	0.019599
2945.000000	0.019779
2944.000000	0.019994
2943.000000	0.020231
2942.000000	0.020501
2941.000000	0.020817
2940.000000	0.021180
2939.000000	0.021576
2938.000000	0.021986
2937.000000	0.022405
2936.000000	0.022835
2935.000000	0.023277
2934.000000	0.023732
2933.000000	0.024194
2932.000000	0.024647
2931.000000	0.025076
2930.000000	0.025471
2929.000000	0.025841
2928.000000	0.026194
2927.000000	0.026526
2926.000000	0.026811
2925.000000	0.027016
2924.000000	0.027115
2923.000000	0.027093
2922.000000	0.026953
2921.000000	0.026706
2920.000000	0.026375
2919.000000	0.025983
2918.000000	0.025546
2917.000000	0.025071
2916.000000	0.024560
2915.000000	0.024024
2914.000000	0.023485
2913.000000	0.022962
2912.000000	0.022470
2911.000000	0.022013
2910.000000	0.021587
2909.000000	0.021191
2908.000000	0.020824
2907.000000	0.020494
2906.000000	0.020204
2905.000000	0.019951
2904.000000	0.019722
2903.000000	0.019503
2902.000000	0.019285
2901.000000	0.019075
2900.000000	0.018882
2899.000000	0.018709
2898.000000	0.018550
2897.000000	0.018389
2896.000000	0.018220
2895.000000	0.018048
2894.000000	0.017882
2893.000000	0.017730
2892.000000	0.017595
2891.000000	0.017478
2890.000000	0.017381
2889.000000	0.017298
2888.000000	0.017214
2887.000000	0.017120
2886.000000	0.017019
2885.000000	0.016926
2884.000000	0.016852
2883.000000	0.016799
2882.000000	0.016769
2881.000000	0.016757
2880.000000	0.016759
2879.000000	0.016771
2878.000000	0.016797
2877.000000	0.016844
2876.000000	0.016910
2875.000000	0.016981
2874.000000	0.017033
2873.000000	0.017053
2872.000000	0.017038
2871.000000	0.017002
2870.000000	0.016967
2869.000000	0.016948
2868.000000	0.016950
2867.000000	0.016979
2866.000000	0.017039
2865.000000	0.017139
2864.000000	0.017281
2863.000000	0.017472
2862.000000	0.017719
2861.000000	0.018031
2860.000000	0.018396
2859.000000	0.018788
2858.000000	0.019177
2857.000000	0.019544
2856.000000	0.019873
2855.000000	0.020142
2854.000000	0.020316
2853.000000	0.020363
2852.000000	0.020267
2851.000000	0.020027
2850.000000	0.019657
2849.000000	0.019183
2848.000000	0.018637
2847.000000	0.018052
2846.000000	0.017463
2845.000000	0.016903
2844.000000	0.016396
2843.000000	0.015955
2842.000000	0.015576
2841.000000	0.015247
2840.000000	0.014955
2839.000000	0.014697
2838.000000	0.014479
2837.000000	0.014301
2836.000000	0.014154
2835.000000	0.014027
2834.000000	0.013910
2833.000000	0.013805
2832.000000	0.013709
2831.000000	0.013619
2830.000000	0.013526
2829.000000	0.013431
2828.000000	0.013335
2827.000000	0.013246
2826.000000	0.013169
2825.000000	0.013104
2824.000000	0.013047
2823.000000	0.012989
2822.000000	0.012927
2821.000000	0.012865
2820.000000	0.012808
2819.000000	0.012758
2818.000000	0.012713
2817.000000	0.012674
2816.000000	0.012642
2815.000000	0.012610
2814.000000	0.012572
2813.000000	0.012525
2812.000000	0.012477
2811.000000	0.012437
2810.000000	0.012405
2809.000000	0.012374
2808.000000	0.012340
2807.000000	0.012303
2806.000000	0.012266
2805.000000	0.012229
2804.000000	0.012188
2803.000000	0.012142
2802.000000	0.012099
2801.000000	0.012065
2800.000000	0.012038
2799.000000	0.012013
2798.000000	0.011986
2797.000000	0.011959
2796.000000	0.011935
2795.000000	0.011914
2794.000000	0.011892
2793.000000	0.011870
2792.000000	0.011847
2791.000000	0.011819
2790.000000	0.011786
2789.000000	0.011750
2788.000000	0.011718
2787.000000	0.011692
2786.000000	0.011670
2785.000000	0.011646
2784.000000	0.011614
2783.000000	0.011572
2782.000000	0.011528
2781.000000	0.011492
2780.000000	0.011469
2779.000000	0.011452
2778.000000	0.011434
2777.000000	0.011414
2776.000000	0.011394
2775.000000	0.011375
2774.000000	0.011355
2773.000000	0.011332
2772.000000	0.011310
2771.000000	0.011286
2770.000000	0.011258
2769.000000	0.011223
2768.000000	0.011185
2767.000000	0.011151
2766.000000	0.011123
2765.000000	0.011099
2764.000000	0.011077
2763.000000	0.011054
2762.000000	0.011029
2761.000000	0.011004
2760.000000	0.010980
2759.000000	0.010967
2758.000000	0.010968
2757.000000	0.010978
2756.000000	0.010983
2755.000000	0.010975
2754.000000	0.010955
2753.000000	0.010926
2752.000000	0.010892
2751.000000	0.010855
2750.000000	0.010824
2749.000000	0.010805
2748.000000	0.010793
2747.000000	0.010777
2746.000000	0.010754
2745.000000	0.010730
2744.000000	0.010711
2743.000000	0.010697
2742.000000	0.010680
2741.000000	0.010662
2740.000000	0.010645
2739.000000	0.010635
2738.000000	0.010626
2737.000000	0.010612
2736.000000	0.010592
2735.000000	0.010569
2734.000000	0.010547
2733.000000	0.010531
2732.000000	0.010520
2731.000000	0.010509
2730.000000	0.010493
2729.000000	0.010468
2728.000000	0.010435
2727.000000	0.010398
2726.000000	0.010365
2725.000000	0.010339
2724.000000	0.010320
2723.000000	0.010304
2722.000000	0.010289
2721.000000	0.010275
2720.000000	0.010260
2719.000000	0.010242
2718.000000	0.010217
2717.000000	0.010188
2716.000000	0.010159
2715.000000	0.010134
2714.000000	0.010120
2713.000000	0.010117
2712.000000	0.010120
2711.000000	0.010118
2710.000000	0.010109
2709.000000	0.010097
2708.000000	0.010089
2707.000000	0.010081
2706.000000	0.010067
2705.000000	0.010048
2704.000000	0.010028
2703.000000	0.010013
2702.000000	0.010001
2701.000000	0.009992
2700.000000	0.009986
2699.000000	0.009979
2698.000000	0.009965
2697.000000	0.009944
2696.000000	0.009922
2695.000000	0.009905
2694.000000	0.009896
2693.000000	0.009893
2692.000000	0.009898
2691.000000	0.009907
2690.000000	0.009915
2689.000000	0.009917
2688.000000	0.009912
2687.000000	0.009901
2686.000000	0.009884
2685.000000	0.009864
2684.000000	0.009849
2683.000000	0.009845
2682.000000	0.009855
2681.000000	0.009870
2680.000000	0.009879
2679.000000	0.009871
2678.000000	0.009840
2677.000000	0.009793
2676.000000	0.009753
2675.000000	0.009740
2674.000000	0.009755
2673.000000	0.009778
2672.000000	0.009790
2671.000000	0.009785
2670.000000	0.009771
2669.000000	0.009759
2668.000000	0.009752
2667.000000	0.009751
2666.000000	0.009756
2665.000000	0.009761
2664.000000	0.009760
2663.000000	0.009752
2662.000000	0.009736
2661.000000	0.009712
2660.000000	0.009681
2659.000000	0.009645
2658.000000	0.009605
2657.000000	0.009569
2656.000000	0.009541
2655.000000	0.009522
2654.000000	0.009504
2653.000000	0.009476
2652.000000	0.009437
2651.000000	0.009398
2650.000000	0.009374
2649.000000	0.009361
2648.000000	0.009342
2647.000000	0.009305
2646.000000	0.009260
2645.000000	0.009226
2644.000000	0.009209
2643.000000	0.009198
2642.000000	0.009183
2641.000000	0.009159
2640.000000	0.009128
2639.000000	0.009093
2638.000000	0.009059
2637.000000	0.009035
2636.000000	0.009026
2635.000000	0.009023
2634.000000	0.009012
2633.000000	0.008985
2632.000000	0.008946
2631.000000	0.008909
2630.000000	0.008881
2629.000000	0.008861
2628.000000	0.008841
2627.000000	0.008815
2626.000000	0.008786
2625.000000	0.008759
2624.000000	0.008735
2623.000000	0.008707
2622.000000	0.008673
2621.000000	0.008638
2620.000000	0.008610
2619.000000	0.008589
2618.000000	0.008567
2617.000000	0.008539
2616.000000	0.008505
2615.000000	0.008475
2614.000000	0.008455
2613.000000	0.008437
2612.000000	0.008411
2611.000000	0.008376
2610.000000	0.008343
2609.000000	0.008322
2608.000000	0.008308
2607.000000	0.008290
2606.000000	0.008260
2605.000000	0.008224
2604.000000	0.008196
2603.000000	0.008192
2602.000000	0.008219
2601.000000	0.008263
2600.000000	0.008295
2599.000000	0.008288
2598.000000	0.008243
2597.000000	0.008187
2596.000000	0.008149
2595.000000	0.008139
2594.000000	0.008144
2593.000000	0.008147
2592.000000	0.008139
2591.000000	0.008119
2590.000000	0.008094
2589.000000	0.008068
2588.000000	0.008041
2587.000000	0.008013
2586.000000	0.007988
2585.000000	0.007976
2584.000000	0.007975
2583.000000	0.007970
2582.000000	0.007946
2581.000000	0.007907
2580.000000	0.007871
2579.000000	0.007847
2578.000000	0.007834
2577.000000	0.007827
2576.000000	0.007827
2575.000000	0.007834
2574.000000	0.007839
2573.000000	0.007825
2572.000000	0.007789
2571.000000	0.007750
2570.000000	0.007737
2569.000000	0.007762
2568.000000	0.007802
2567.000000	0.007825
2566.000000	0.007808
2565.000000	0.007757
2564.000000	0.007697
2563.000000	0.007656
2562.000000	0.007646
2561.000000	0.007662
2560.000000	0.007686
2559.000000	0.007707
2558.000000	0.007713
2557.000000	0.007697
2556.000000	0.007655
2555.000000	0.007602
2554.000000	0.007558
2553.000000	0.007536
2552.000000	0.007535
2551.000000	0.007548
2550.000000	0.007569
2549.000000	0.007588
2548.000000	0.007586
2547.000000	0.007555
2546.000000	0.007515
2545.000000	0.007498
2544.000000	0.007520
2543.000000	0.007565
2542.000000	0.007600
2541.000000	0.007604
2540.000000	0.007576
2539.000000	0.007528
2538.000000	0.007479
2537.000000	0.007446
2536.000000	0.007438
2535.000000	0.007452
2534.000000	0.007477
2533.000000	0.007496
2532.000000	0.007498
2531.000000	0.007482
2530.000000	0.007461
2529.000000	0.007449
2528.000000	0.007457
2527.000000	0.007487
2526.000000	0.007526
2525.000000	0.007555
2524.000000	0.007554
2523.000000	0.007520
2522.000000	0.007476
2521.000000	0.007444
2520.000000	0.007433
2519.000000	0.007429
2518.000000	0.007412
2517.000000	0.007377
2516.000000	0.007340
2515.000000	0.007322
2514.000000	0.007330
2513.000000	0.007350
2512.000000	0.007361
2511.000000	0.007357
2510.000000	0.007346
2509.000000	0.007332
2508.000000	0.007310
2507.000000	0.007283
2506.000000	0.007269
2505.000000	0.007278
2504.000000	0.007291
2503.000000	0.007290
2502.000000	0.007284
2501.000000	0.007301
2500.000000	0.007343
2499.000000	0.007386
2498.000000	0.007401
2497.000000	0.007387
2496.000000	0.007356
2495.000000	0.007322
2494.000000	0.007297
2493.000000	0.007283
2492.000000	0.007271
2491.000000	0.007244
2490.000000	0.007204
2489.000000	0.007174
2488.000000	0.007177
2487.000000	0.007207
2486.000000	0.007236
2485.000000	0.007238
2484.000000	0.007208
2483.000000	0.007160
2482.000000	0.007117
2481.000000	0.007097
2480.000000	0.007098
2479.000000	0.007105
2478.000000	0.007111
2477.000000	0.007117
2476.000000	0.007129
2475.000000	0.007137
2474.000000	0.007127
2473.000000	0.007095
2472.000000	0.007052
2471.000000	0.007019
2470.000000	0.007008
2469.000000	0.007019
2468.000000	0.007047
2467.000000	0.007085
2466.000000	0.007128
2465.000000	0.007165
2464.000000	0.007184
2463.000000	0.007183
2462.000000	0.007170
2461.000000	0.007159
2460.000000	0.007149
2459.000000	0.007131
2458.000000	0.007101
2457.000000	0.007065
2456.000000	0.007028
2455.000000	0.006999
2454.000000	0.006984
2453.000000	0.006992
2452.000000	0.007018
2451.000000	0.007047
2450.000000	0.007066
2449.000000	0.007072
2448.000000	0.007068
2447.000000	0.007060
2446.000000	0.007052
2445.000000	0.007045
2444.000000	0.007037
2443.000000	0.007036
2442.000000	0.007048
2441.000000	0.007071
2440.000000	0.007087
2439.000000	0.007081
2438.000000	0.007055
2437.000000	0.007025
2436.000000	0.007000
2435.000000	0.006973
2434.000000	0.006937
2433.000000	0.006906
2432.000000	0.006896
2431.000000	0.006905
2430.000000	0.006912
2429.000000	0.006901
2428.000000	0.006879
2427.000000	0.006859
2426.000000	0.006848
2425.000000	0.006838
2424.000000	0.006834
2423.000000	0.006854
2422.000000	0.006908
2421.000000	0.006972
2420.000000	0.007010
2419.000000	0.007008
2418.000000	0.006985
2417.000000	0.006963
2416.000000	0.006942
2415.000000	0.006915
2414.000000	0.006890
2413.000000	0.006889
2412.000000	0.006916
2411.000000	0.006949
2410.000000	0.006960
2409.000000	0.006932
2408.000000	0.006876
2407.000000	0.006822
2406.000000	0.006803
2405.000000	0.006824
2404.000000	0.006857
2403.000000	0.006871
2402.000000	0.006858
2401.000000	0.006836
2400.000000	0.006816
2399.000000	0.006801
2398.000000	0.006794
2397.000000	0.006806
2396.000000	0.006837
2395.000000	0.006872
2394.000000	0.006887
2393.000000	0.006877
2392.000000	0.006858
2391.000000	0.006854
2390.000000	0.006878
2389.000000	0.006922
2388.000000	0.006961
2387.000000	0.006974
2386.000000	0.006963
2385.000000	0.006946
2384.000000	0.006943
2383.000000	0.006956
2382.000000	0.006972
2381.000000	0.006974
2380.000000	0.006956
2379.000000	0.006934
2378.000000	0.006927
2377.000000	0.006935
2376.000000	0.006940
2375.000000	0.006932
2374.000000	0.006930
2373.000000	0.006953
2372.000000	0.006983
2371.000000	0.006986
2370.000000	0.006955
2369.000000	0.006915
2368.000000	0.006896
2367.000000	0.006906
2366.000000	0.006938
2365.000000	0.006974
2364.000000	0.006989
2363.000000	0.006978
2362.000000	0.006967
2361.000000	0.006984
2360.000000	0.007017
2359.000000	0.007036
2358.000000	0.007025
2357.000000	0.007010
2356.000000	0.007011
2355.000000	0.007023
2354.000000	0.007021
2353.000000	0.006982
2352.000000	0.006915
2351.000000	0.006864
2350.000000	0.006882
2349.000000	0.006987
2348.000000	0.007142
2347.000000	0.007270
2346.000000	0.007294
2345.000000	0.007213
2344.000000	0.007107
2343.000000	0.007050
2342.000000	0.007049
2341.000000	0.007066
2340.000000	0.007086
2339.000000	0.007109
2338.000000	0.007132
2337.000000	0.007145
2336.000000	0.007136
2335.000000	0.007107
2334.000000	0.007071
2333.000000	0.007041
2332.000000	0.007020
2331.000000	0.007001
2330.000000	0.006987
2329.000000	0.006993
2328.000000	0.007042
2327.000000	0.007152
2326.000000	0.007307
2325.000000	0.007460
2324.000000	0.007535
2323.000000	0.007491
2322.000000	0.007350
2321.000000	0.007183
2320.000000	0.007061
2319.000000	0.007006
2318.000000	0.007006
2317.000000	0.007029
2316.000000	0.007041
2315.000000	0.007021
2314.000000	0.006970
2313.000000	0.006910
2312.000000	0.006855
2311.000000	0.006808
2310.000000	0.006773
2309.000000	0.006759
2308.000000	0.006762
2307.000000	0.006767
2306.000000	0.006763
2305.000000	0.006765
2304.000000	0.006788
2303.000000	0.006827
2302.000000	0.006857
2301.000000	0.006855
2300.000000	0.006821
2299.000000	0.006781
2298.000000	0.006760
2297.000000	0.006759
2296.000000	0.006757
2295.000000	0.006736
2294.000000	0.006703
2293.000000	0.006681
2292.000000	0.006683
2291.000000	0.006701
2290.000000	0.006724
2289.000000	0.006746
2288.000000	0.006761
2287.000000	0.006763
2286.000000	0.006756
2285.000000	0.006749
2284.000000	0.006743
2283.000000	0.006733
2282.000000	0.006728
2281.000000	0.006740
2280.000000	0.006760
2279.000000	0.006761
2278.000000	0.006732
2277.000000	0.006688
2276.000000	0.006652
2275.000000	0.006633
2274.000000	0.006631
2273.000000	0.006642
2272.000000	0.006645
2271.000000	0.006617
2270.000000	0.006561
2269.000000	0.006517
2268.000000	0.006514
2267.000000	0.006541
2266.000000	0.006567
2265.000000	0.006578
2264.000000	0.006578
2263.000000	0.006569
2262.000000	0.006548
2261.000000	0.006521
2260.000000	0.006498
2259.000000	0.006477
2258.000000	0.006445
2257.000000	0.006388
2256.000000	0.006306
2255.000000	0.006214
2254.000000	0.006148
2253.000000	0.006133
2252.000000	0.006165
2251.000000	0.006216
2250.000000	0.006260
2249.000000	0.006286
2248.000000	0.006284
2247.000000	0.006256
2246.000000	0.006225
2245.000000	0.006217
2244.000000	0.006223
2243.000000	0.006210
2242.000000	0.006167
2241.000000	0.006122
2240.000000	0.006099
2239.000000	0.006101
2238.000000	0.006120
2237.000000	0.006147
2236.000000	0.006158
2235.000000	0.006125
2234.000000	0.006068
2233.000000	0.006062
2232.000000	0.006153
2231.000000	0.006302
2230.000000	0.006409
2229.000000	0.006412
2228.000000	0.006331
2227.000000	0.006247
2226.000000	0.006217
2225.000000	0.006224
2224.000000	0.006191
2223.000000	0.006078
2222.000000	0.005945
2221.000000	0.005898
2220.000000	0.005963
2219.000000	0.006068
2218.000000	0.006141
2217.000000	0.006183
2216.000000	0.006221
2215.000000	0.006240
2214.000000	0.006199
2213.000000	0.006108
2212.000000	0.006026
2211.000000	0.005984
2210.000000	0.005955
2209.000000	0.005907
2208.000000	0.005870
2207.000000	0.005909
2206.000000	0.006027
2205.000000	0.006127
2204.000000	0.006102
2203.000000	0.005970
2202.000000	0.005875
2201.000000	0.005931
2200.000000	0.006092
2199.000000	0.006218
2198.000000	0.006230
2197.000000	0.006174
2196.000000	0.006147
2195.000000	0.006189
2194.000000	0.006266
2193.000000	0.006298
2192.000000	0.006235
2191.000000	0.006121
2190.000000	0.006057
2189.000000	0.006079
2188.000000	0.006093
2187.000000	0.006014
2186.000000	0.005904
2185.000000	0.005902
2184.000000	0.006033
2183.000000	0.006171
2182.000000	0.006215
2181.000000	0.006187
2180.000000	0.006143
2179.000000	0.006092
2178.000000	0.006027
2177.000000	0.005974
2176.000000	0.005932
2175.000000	0.005859
2174.000000	0.005751
2173.000000	0.005677
2172.000000	0.005692
2171.000000	0.005767
2170.000000	0.005849
2169.000000	0.005942
2168.000000	0.006059
2167.000000	0.006146
2166.000000	0.006123
2165.000000	0.005989
2164.000000	0.005838
2163.000000	0.005762
2162.000000	0.005759
2161.000000	0.005712
2160.000000	0.005472
2159.000000	0.005010
2158.000000	0.004508
2157.000000	0.004225
2156.000000	0.004267
2155.000000	0.004559
2154.000000	0.004979
2153.000000	0.005415
2152.000000	0.005751
2151.000000	0.005890
2150.000000	0.005820
2149.000000	0.005630
2148.000000	0.005447
2147.000000	0.005359
2146.000000	0.005388
2145.000000	0.005488
2144.000000	0.005565
2143.000000	0.005561
2142.000000	0.005506
2141.000000	0.005479
2140.000000	0.005506
2139.000000	0.005538
2138.000000	0.005517
2137.000000	0.005432
2136.000000	0.005315
2135.000000	0.005218
2134.000000	0.005192
2133.000000	0.005252
2132.000000	0.005362
2131.000000	0.005463
2130.000000	0.005530
2129.000000	0.005563
2128.000000	0.005554
2127.000000	0.005501
2126.000000	0.005438
2125.000000	0.005430
2124.000000	0.005508
2123.000000	0.005639
2122.000000	0.005765
2121.000000	0.005855
2120.000000	0.005914
2119.000000	0.005957
2118.000000	0.005994
2117.000000	0.006028
2116.000000	0.006059
2115.000000	0.006097
2114.000000	0.006156
2113.000000	0.006231
2112.000000	0.006288
2111.000000	0.006295
2110.000000	0.006274
2109.000000	0.006263
2108.000000	0.006265
2107.000000	0.006239
2106.000000	0.006166
2105.000000	0.006078
2104.000000	0.006026
2103.000000	0.006033
2102.000000	0.006084
2101.000000	0.006145
2100.000000	0.006171
2099.000000	0.006142
2098.000000	0.006078
2097.000000	0.006008
2096.000000	0.005932
2095.000000	0.005835
2094.000000	0.005744
2093.000000	0.005720
2092.000000	0.005784
2091.000000	0.005884
2090.000000	0.005955
2089.000000	0.005980
2088.000000	0.005998
2087.000000	0.006044
2086.000000	0.006120
2085.000000	0.006186
2084.000000	0.006195
2083.000000	0.006144
2082.000000	0.006083
2081.000000	0.006071
2080.000000	0.006115
2079.000000	0.006173
2078.000000	0.006204
2077.000000	0.006191
2076.000000	0.006124
2075.000000	0.006003
2074.000000	0.005858
2073.000000	0.005743
2072.000000	0.005699
2071.000000	0.005730
2070.000000	0.005807
2069.000000	0.005873
2068.000000	0.005863
2067.000000	0.005772
2066.000000	0.005674
2065.000000	0.005648
2064.000000	0.005690
2063.000000	0.005736
2062.000000	0.005750
2061.000000	0.005739
2060.000000	0.005699
2059.000000	0.005614
2058.000000	0.005509
2057.000000	0.005427
2056.000000	0.005364
2055.000000	0.005299
2054.000000	0.005275
2053.000000	0.005373
2052.000000	0.005572
2051.000000	0.005723
2050.000000	0.005699
2049.000000	0.005523
2048.000000	0.005335
2047.000000	0.005241
2046.000000	0.005259
2045.000000	0.005350
2044.000000	0.005447
2043.000000	0.005499
2042.000000	0.005523
2041.000000	0.005567
2040.000000	0.005615
2039.000000	0.005589
2038.000000	0.005455
2037.000000	0.005272
2036.000000	0.005109
2035.000000	0.004994
2034.000000	0.004959
2033.000000	0.005020
2032.000000	0.005086
2031.000000	0.005012
2030.000000	0.004823
2029.000000	0.004730
2028.000000	0.004870
2027.000000	0.005121
2026.000000	0.005260
2025.000000	0.005229
2024.000000	0.005130
2023.000000	0.005039
2022.000000	0.004937
2021.000000	0.004785
2020.000000	0.004607
2019.000000	0.004481
2018.000000	0.004472
2017.000000	0.004547
2016.000000	0.004571
2015.000000	0.004441
2014.000000	0.004229
2013.000000	0.004137
2012.000000	0.004273
2011.000000	0.004547
2010.000000	0.004783
2009.000000	0.004883
2008.000000	0.004859
2007.000000	0.004789
2006.000000	0.004769
2005.000000	0.004843
2004.000000	0.004952
2003.000000	0.004988
2002.000000	0.004917
2001.000000	0.004800
2000.000000	0.004695
1999.000000	0.004605
1998.000000	0.004530
1997.000000	0.004508
1996.000000	0.004550
1995.000000	0.004603
1994.000000	0.004616
1993.000000	0.004597
1992.000000	0.004589
1991.000000	0.004596
1990.000000	0.004593
1989.000000	0.004564
1988.000000	0.004510
1987.000000	0.004450
1986.000000	0.004416
1985.000000	0.004447
1984.000000	0.004555
1983.000000	0.004715
1982.000000	0.004892
1981.000000	0.005040
1980.000000	0.005108
1979.000000	0.005087
1978.000000	0.005038
1977.000000	0.005014
1976.000000	0.004959
1975.000000	0.004791
1974.000000	0.004559
1973.000000	0.004421
1972.000000	0.004458
1971.000000	0.004595
1970.000000	0.004716
1969.000000	0.004783
1968.000000	0.004814
1967.000000	0.004819
1966.000000	0.004794
1965.000000	0.004735
1964.000000	0.004651
1963.000000	0.004577
1962.000000	0.004564
1961.000000	0.004631
1960.000000	0.004730
1959.000000	0.004796
1958.000000	0.004815
1957.000000	0.004799
1956.000000	0.004744
1955.000000	0.004659
1954.000000	0.004589
1953.000000	0.004565
1952.000000	0.004546
1951.000000	0.004485
1950.000000	0.004416
1949.000000	0.004426
1948.000000	0.004537
1947.000000	0.004661
1946.000000	0.004691
1945.000000	0.004589
1944.000000	0.004402
1943.000000	0.004241
1942.000000	0.004221
1941.000000	0.004369
1940.000000	0.004587
1939.000000	0.004755
1938.000000	0.004820
1937.000000	0.004789
1936.000000	0.004682
1935.000000	0.004538
1934.000000	0.004434
1933.000000	0.004431
1932.000000	0.004512
1931.000000	0.004604
1930.000000	0.004652
1929.000000	0.004661
1928.000000	0.004651
1927.000000	0.004639
1926.000000	0.004651
1925.000000	0.004709
1924.000000	0.004796
1923.000000	0.004863
1922.000000	0.004871
1921.000000	0.004825
1920.000000	0.004755
1919.000000	0.004692
1918.000000	0.004662
1917.000000	0.004663
1916.000000	0.004665
1915.000000	0.004654
1914.000000	0.004648
1913.000000	0.004668
1912.000000	0.004700
1911.000000	0.004726
1910.000000	0.004749
1909.000000	0.004770
1908.000000	0.004764
1907.000000	0.004720
1906.000000	0.004670
1905.000000	0.004653
1904.000000	0.004673
1903.000000	0.004709
1902.000000	0.004758
1901.000000	0.004824
1900.000000	0.004881
1899.000000	0.004892
1898.000000	0.004869
1897.000000	0.004851
1896.000000	0.004852
1895.000000	0.004850
1894.000000	0.004831
1893.000000	0.004799
1892.000000	0.004754
1891.000000	0.004697
1890.000000	0.004648
1889.000000	0.004637
1888.000000	0.004662
1887.000000	0.004691
1886.000000	0.004709
1885.000000	0.004720
1884.000000	0.004712
1883.000000	0.004673
1882.000000	0.004619
1881.000000	0.004585
1880.000000	0.004578
1879.000000	0.004588
1878.000000	0.004619
1877.000000	0.004675
1876.000000	0.004722
1875.000000	0.004721
1874.000000	0.004673
1873.000000	0.004610
1872.000000	0.004551
1871.000000	0.004499
1870.000000	0.004458
1869.000000	0.004434
1868.000000	0.004414
1867.000000	0.004393
1866.000000	0.004392
1865.000000	0.004426
1864.000000	0.004478
1863.000000	0.004520
1862.000000	0.004552
1861.000000	0.004594
1860.000000	0.004643
1859.000000	0.004671
1858.000000	0.004681
1857.000000	0.004691
1856.000000	0.004693
1855.000000	0.004663
1854.000000	0.004608
1853.000000	0.004562
1852.000000	0.004536
1851.000000	0.004513
1850.000000	0.004505
1849.000000	0.004517
1848.000000	0.004511
1847.000000	0.004455
1846.000000	0.004405
1845.000000	0.004447
1844.000000	0.004563
1843.000000	0.004633
1842.000000	0.004610
1841.000000	0.004576
1840.000000	0.004600
1839.000000	0.004650
1838.000000	0.004661
1837.000000	0.004625
1836.000000	0.004587
1835.000000	0.004575
1834.000000	0.004574
1833.000000	0.004562
1832.000000	0.004530
1831.000000	0.004475
1830.000000	0.004420
1829.000000	0.004390
1828.000000	0.004386
1827.000000	0.004391
1826.000000	0.004414
1825.000000	0.004463
1824.000000	0.004505
1823.000000	0.004507
1822.000000	0.004489
1821.000000	0.004486
1820.000000	0.004492
1819.000000	0.004480
1818.000000	0.004465
1817.000000	0.004483
1816.000000	0.004529
1815.000000	0.004557
1814.000000	0.004545
1813.000000	0.004517
1812.000000	0.004492
1811.000000	0.004478
1810.000000	0.004477
1809.000000	0.004492
1808.000000	0.004510
1807.000000	0.004510
1806.000000	0.004500
1805.000000	0.004509
1804.000000	0.004543
1803.000000	0.004571
1802.000000	0.004569
1801.000000	0.004548
1800.000000	0.004528
1799.000000	0.004520
1798.000000	0.004535
1797.000000	0.004564
1796.000000	0.004585
1795.000000	0.004572
1794.000000	0.004548
1793.000000	0.004546
1792.000000	0.004558
1791.000000	0.004552
1790.000000	0.004534
1789.000000	0.004531
1788.000000	0.004546
1787.000000	0.004567
1786.000000	0.004595
1785.000000	0.004637
1784.000000	0.004668
1783.000000	0.004641
1782.000000	0.004571
1781.000000	0.004527
1780.000000	0.004522
1779.000000	0.004518
1778.000000	0.004496
1777.000000	0.004475
1776.000000	0.004456
1775.000000	0.004409
1774.000000	0.004352
1773.000000	0.004335
1772.000000	0.004351
1771.000000	0.004360
1770.000000	0.004400
1769.000000	0.004526
1768.000000	0.004726
1767.000000	0.004894
1766.000000	0.004949
1765.000000	0.004937
1764.000000	0.004960
1763.000000	0.005061
1762.000000	0.005222
1761.000000	0.005411
1760.000000	0.005607
1759.000000	0.005823
1758.000000	0.006117
1757.000000	0.006525
1756.000000	0.006963
1755.000000	0.007310
1754.000000	0.007591
1753.000000	0.007945
1752.000000	0.008422
1751.000000	0.008891
1750.000000	0.009207
1749.000000	0.009395
1748.000000	0.009564
1747.000000	0.009726
1746.000000	0.009846
1745.000000	0.009904
1744.000000	0.009870
1743.000000	0.009721
1742.000000	0.009478
1741.000000	0.009198
1740.000000	0.008903
1739.000000	0.008564
1738.000000	0.008177
1737.000000	0.007813
1736.000000	0.007550
1735.000000	0.007364
1734.000000	0.007147
1733.000000	0.006835
1732.000000	0.006477
1731.000000	0.006187
1730.000000	0.006050
1729.000000	0.006044
1728.000000	0.006063
1727.000000	0.006013
1726.000000	0.005908
1725.000000	0.005809
1724.000000	0.005733
1723.000000	0.005665
1722.000000	0.005594
1721.000000	0.005547
1720.000000	0.005547
1719.000000	0.005560
1718.000000	0.005521
1717.000000	0.005444
1716.000000	0.005423
1715.000000	0.005500
1714.000000	0.005662
1713.000000	0.005883
1712.000000	0.006119
1711.000000	0.006338
1710.000000	0.006555
1709.000000	0.006802
1708.000000	0.007072
1707.000000	0.007364
1706.000000	0.007720
1705.000000	0.008133
1704.000000	0.008511
1703.000000	0.008838
1702.000000	0.009296
1701.000000	0.010114
1700.000000	0.011052
1699.000000	0.011517
1698.000000	0.011581
1697.000000	0.011862
1696.000000	0.012640
1695.000000	0.013597
1694.000000	0.014290
1693.000000	0.014725
1692.000000	0.015167
1691.000000	0.015714
1690.000000	0.016296
1689.000000	0.016835
1688.000000	0.017280
1687.000000	0.017649
1686.000000	0.018081
1685.000000	0.018795
1684.000000	0.019728
1683.000000	0.020525
1682.000000	0.021121
1681.000000	0.021700
1680.000000	0.022369
1679.000000	0.023054
1678.000000	0.023697
1677.000000	0.024433
1676.000000	0.025406
1675.000000	0.026462
1674.000000	0.027279
1673.000000	0.027838
1672.000000	0.028400
1671.000000	0.029172
1670.000000	0.030165
1669.000000	0.031257
1668.000000	0.032280
1667.000000	0.033116
1666.000000	0.033823
1665.000000	0.034575
1664.000000	0.035498
1663.000000	0.036512
1662.000000	0.037422
1661.000000	0.038184
1660.000000	0.038879
1659.000000	0.039548
1658.000000	0.040166
1657.000000	0.040693
1656.000000	0.041162
1655.000000	0.041706
1654.000000	0.042547
1653.000000	0.043576
1652.000000	0.044296
1651.000000	0.044508
1650.000000	0.044510
1649.000000	0.044709
1648.000000	0.045198
1647.000000	0.045819
1646.000000	0.046429
1645.000000	0.046982
1644.000000	0.047445
1643.000000	0.047811
1642.000000	0.048140
1641.000000	0.048474
1640.000000	0.048773
1639.000000	0.048977
1638.000000	0.049114
1637.000000	0.049336
1636.000000	0.049743
1635.000000	0.050199
1634.000000	0.050500
1633.000000	0.050590
1632.000000	0.050591
1631.000000	0.050595
1630.000000	0.050577
1629.000000	0.050493
1628.000000	0.050312
1627.000000	0.050011
1626.000000	0.049597
1625.000000	0.049104
1624.000000	0.048539
1623.000000	0.047885
1622.000000	0.047169
1621.000000	0.046448
1620.000000	0.045740
1619.000000	0.045011
1618.000000	0.044172
1617.000000	0.043150
1616.000000	0.042051
1615.000000	0.041058
1614.000000	0.040204
1613.000000	0.039412
1612.000000	0.038606
1611.000000	0.037744
1610.000000	0.036839
1609.000000	0.035942
1608.000000	0.035093
1607.000000	0.034310
1606.000000	0.033587
1605.000000	0.032897
1604.000000	0.032213
1603.000000	0.031547
1602.000000	0.030932
1601.000000	0.030375
1600.000000	0.029873
1599.000000	0.029435
1598.000000	0.029062
1597.000000	0.028726
1596.000000	0.028402
1595.000000	0.028109
1594.000000	0.027875
1593.000000	0.027693
1592.000000	0.027538
1591.000000	0.027417
1590.000000	0.027351
1589.000000	0.027337
1588.000000	0.027364
1587.000000	0.027440
1586.000000	0.027562
1585.000000	0.027700
1584.000000	0.027834
1583.000000	0.027985
1582.000000	0.028191
1581.000000	0.028420
1580.000000	0.028599
1579.000000	0.028730
1578.000000	0.028901
1577.000000	0.029190
1576.000000	0.029585
1575.000000	0.030009
1574.000000	0.030388
1573.000000	0.030726
1572.000000	0.031101
1571.000000	0.031602
1570.000000	0.032221
1569.000000	0.032817
1568.000000	0.033292
1567.000000	0.033705
1566.000000	0.034184
1565.000000	0.034755
1564.000000	0.035306
1563.000000	0.035720
1562.000000	0.036073
1561.000000	0.036522
1560.000000	0.037266
1559.000000	0.038132
1558.000000	0.038777
1557.000000	0.039262
1556.000000	0.039664
1555.000000	0.040127
1554.000000	0.040712
1553.000000	0.041254
1552.000000	0.041679
1551.000000	0.042079
1550.000000	0.042518
1549.000000	0.042910
1548.000000	0.043183
1547.000000	0.043379
1546.000000	0.043579
1545.000000	0.043764
1544.000000	0.043845
1543.000000	0.043841
1542.000000	0.043851
1541.000000	0.043915
1540.000000	0.043999
1539.000000	0.044137
1538.000000	0.044284
1537.000000	0.044298
1536.000000	0.044251
1535.000000	0.044252
1534.000000	0.044278
1533.000000	0.044239
1532.000000	0.044094
1531.000000	0.043885
1530.000000	0.043651
1529.000000	0.043418
1528.000000	0.043192
1527.000000	0.042960
1526.000000	0.042712
1525.000000	0.042426
1524.000000	0.042084
1523.000000	0.041710
1522.000000	0.041335
1521.000000	0.040990
1520.000000	0.040683
1519.000000	0.040369
1518.000000	0.040045
1517.000000	0.039732
1516.000000	0.039423
1515.000000	0.039105
1514.000000	0.038757
1513.000000	0.038372
1512.000000	0.037933
1511.000000	0.037404
1510.000000	0.036793
1509.000000	0.036121
1508.000000	0.035343
1507.000000	0.034372
1506.000000	0.033513
1505.000000	0.033010
1504.000000	0.032560
1503.000000	0.032046
1502.000000	0.031538
1501.000000	0.031016
1500.000000	0.030466
1499.000000	0.029866
1498.000000	0.029211
1497.000000	0.028512
1496.000000	0.027826
1495.000000	0.027188
1494.000000	0.026589
1493.000000	0.026045
1492.000000	0.025554
1491.000000	0.025035
1490.000000	0.024428
1489.000000	0.023835
1488.000000	0.023394
1487.000000	0.023097
1486.000000	0.022867
1485.000000	0.022697
1484.000000	0.022590
1483.000000	0.022521
1482.000000	0.022478
1481.000000	0.022468
1480.000000	0.022498
1479.000000	0.022568
1478.000000	0.022696
1477.000000	0.022891
1476.000000	0.023121
1475.000000	0.023360
1474.000000	0.023685
1473.000000	0.024206
1472.000000	0.024872
1471.000000	0.025512
1470.000000	0.026037
1469.000000	0.026502
1468.000000	0.026974
1467.000000	0.027458
1466.000000	0.027949
1465.000000	0.028454
1464.000000	0.028915
1463.000000	0.029268
1462.000000	0.029530
1461.000000	0.029784
1460.000000	0.030087
1459.000000	0.030455
1458.000000	0.030952
1457.000000	0.031610
1456.000000	0.032252
1455.000000	0.032630
1454.000000	0.032794
1453.000000	0.032958
1452.000000	0.033158
1451.000000	0.033316
1450.000000	0.033403
1449.000000	0.033459
1448.000000	0.033502
1447.000000	0.033497
1446.000000	0.033443
1445.000000	0.033373
1444.000000	0.033287
1443.000000	0.033175
1442.000000	0.033028
1441.000000	0.032839
1440.000000	0.032615
1439.000000	0.032388
1438.000000	0.032184
1437.000000	0.031963
1436.000000	0.031655
1435.000000	0.031238
1434.000000	0.030786
1433.000000	0.030391
1432.000000	0.030072
1431.000000	0.029772
1430.000000	0.029459
1429.000000	0.029167
1428.000000	0.028942
1427.000000	0.028766
1426.000000	0.028609
1425.000000	0.028476
1424.000000	0.028366
1423.000000	0.028279
1422.000000	0.028231
1421.000000	0.028246
1420.000000	0.028324
1419.000000	0.028393
1418.000000	0.028389
1417.000000	0.028341
1416.000000	0.028311
1415.000000	0.028312
1414.000000	0.028328
1413.000000	0.028350
1412.000000	0.028401
1411.000000	0.028500
1410.000000	0.028634
1409.000000	0.028768
1408.000000	0.028889
1407.000000	0.029000
1406.000000	0.029111
1405.000000	0.029235
1404.000000	0.029364
1403.000000	0.029467
1402.000000	0.029532
1401.000000	0.029584
1400.000000	0.029632
1399.000000	0.029627
1398.000000	0.029538
1397.000000	0.029400
1396.000000	0.029275
1395.000000	0.029182
1394.000000	0.029103
1393.000000	0.029006
1392.000000	0.028869
1391.000000	0.028714
1390.000000	0.028573
1389.000000	0.028452
1388.000000	0.028328
1387.000000	0.028173
1386.000000	0.027983
1385.000000	0.027784
1384.000000	0.027600
1383.000000	0.027436
1382.000000	0.027275
1381.000000	0.027105
1380.000000	0.026931
1379.000000	0.026754
1378.000000	0.026559
1377.000000	0.026325
1376.000000	0.026048
1375.000000	0.025731
1374.000000	0.025396
1373.000000	0.025086
1372.000000	0.024811
1371.000000	0.024545
1370.000000	0.024262
1369.000000	0.023952
1368.000000	0.023614
1367.000000	0.023268
1366.000000	0.022934
1365.000000	0.022614
1364.000000	0.022302
1363.000000	0.022003
1362.000000	0.021745
1361.000000	0.021550
1360.000000	0.021403
1359.000000	0.021281
1358.000000	0.021186
1357.000000	0.021125
1356.000000	0.021096
1355.000000	0.021101
1354.000000	0.021144
1353.000000	0.021229
1352.000000	0.021354
1351.000000	0.021508
1350.000000	0.021679
1349.000000	0.021863
1348.000000	0.022067
1347.000000	0.022296
1346.000000	0.022551
1345.000000	0.022818
1344.000000	0.023076
1343.000000	0.023302
1342.000000	0.023491
1341.000000	0.023649
1340.000000	0.023790
1339.000000	0.023928
1338.000000	0.024063
1337.000000	0.024172
1336.000000	0.024224
1335.000000	0.024203
1334.000000	0.024121
1333.000000	0.024000
1332.000000	0.023853
1331.000000	0.023682
1330.000000	0.023487
1329.000000	0.023281
1328.000000	0.023087
1327.000000	0.022920
1326.000000	0.022785
1325.000000	0.022678
1324.000000	0.022588
1323.000000	0.022508
1322.000000	0.022437
1321.000000	0.022378
1320.000000	0.022335
1319.000000	0.022301
1318.000000	0.022265
1317.000000	0.022217
1316.000000	0.022150
1315.000000	0.022063
1314.000000	0.021956
1313.000000	0.021832
1312.000000	0.021698
1311.000000	0.021560
1310.000000	0.021429
1309.000000	0.021312
1308.000000	0.021205
1307.000000	0.021094
1306.000000	0.020964
1305.000000	0.020818
1304.000000	0.020669
1303.000000	0.020531
1302.000000	0.020403
1301.000000	0.020278
1300.000000	0.020158
1299.000000	0.020051
1298.000000	0.019959
1297.000000	0.019881
1296.000000	0.019824
1295.000000	0.019809
1294.000000	0.019851
1293.000000	0.019947
1292.000000	0.020073
1291.000000	0.020213
1290.000000	0.020366
1289.000000	0.020536
1288.000000	0.020716
1287.000000	0.020889
1286.000000	0.021053
1285.000000	0.021219
1284.000000	0.021392
1283.000000	0.021551
1282.000000	0.021672
1281.000000	0.021750
1280.000000	0.021801
1279.000000	0.021833
1278.000000	0.021848
1277.000000	0.021848
1276.000000	0.021838
1275.000000	0.021815
1274.000000	0.021775
1273.000000	0.021729
1272.000000	0.021703
1271.000000	0.021721
1270.000000	0.021779
1269.000000	0.021857
1268.000000	0.021937
1267.000000	0.022017
1266.000000	0.022100
1265.000000	0.022199
1264.000000	0.022321
1263.000000	0.022473
1262.000000	0.022645
1261.000000	0.022826
1260.000000	0.023014
1259.000000	0.023217
1258.000000	0.023440
1257.000000	0.023672
1256.000000	0.023896
1255.000000	0.024110
1254.000000	0.024335
1253.000000	0.024594
1252.000000	0.024895
1251.000000	0.025225
1250.000000	0.025567
1249.000000	0.025911
1248.000000	0.026251
1247.000000	0.026588
1246.000000	0.026923
1245.000000	0.027247
1244.000000	0.027545
1243.000000	0.027812
1242.000000	0.028062
1241.000000	0.028314
1240.000000	0.028562
1239.000000	0.028780
1238.000000	0.028951
1237.000000	0.029073
1236.000000	0.029148
1235.000000	0.029169
1234.000000	0.029132
1233.000000	0.029040
1232.000000	0.028892
1231.000000	0.028686
1230.000000	0.028435
1229.000000	0.028157
1228.000000	0.027845
1227.000000	0.027479
1226.000000	0.027050
1225.000000	0.026578
1224.000000	0.026087
1223.000000	0.025584
1222.000000	0.025070
1221.000000	0.024554
1220.000000	0.024058
1219.000000	0.023601
1218.000000	0.023194
1217.000000	0.022841
1216.000000	0.022550
1215.000000	0.022324
1214.000000	0.022162
1213.000000	0.022053
1212.000000	0.021989
1211.000000	0.021973
1210.000000	0.022012
1209.000000	0.022105
1208.000000	0.022229
1207.000000	0.022348
1206.000000	0.022444
1205.000000	0.022520
1204.000000	0.022582
1203.000000	0.022627
1202.000000	0.022637
1201.000000	0.022595
1200.000000	0.022488
1199.000000	0.022313
1198.000000	0.022084
1197.000000	0.021819
1196.000000	0.021534
1195.000000	0.021237
1194.000000	0.020936
1193.000000	0.020647
1192.000000	0.020372
1191.000000	0.020096
1190.000000	0.019806
1189.000000	0.019514
1188.000000	0.019248
1187.000000	0.019022
1186.000000	0.018830
1185.000000	0.018654
1184.000000	0.018486
1183.000000	0.018328
1182.000000	0.018192
1181.000000	0.018096
1180.000000	0.018050
1179.000000	0.018045
1178.000000	0.018057
1177.000000	0.018069
1176.000000	0.018079
1175.000000	0.018097
1174.000000	0.018130
1173.000000	0.018185
1172.000000	0.018269
1171.000000	0.018375
1170.000000	0.018492
1169.000000	0.018613
1168.000000	0.018739
1167.000000	0.018867
1166.000000	0.018985
1165.000000	0.019083
1164.000000	0.019164
1163.000000	0.019239
1162.000000	0.019305
1161.000000	0.019346
1160.000000	0.019343
1159.000000	0.019289
1158.000000	0.019184
1157.000000	0.019031
1156.000000	0.018841
1155.000000	0.018621
1154.000000	0.018382
1153.000000	0.018135
1152.000000	0.017893
1151.000000	0.017664
1150.000000	0.017446
1149.000000	0.017221
1148.000000	0.016982
1147.000000	0.016736
1146.000000	0.016505
1145.000000	0.016295
1144.000000	0.016091
1143.000000	0.015867
1142.000000	0.015616
1141.000000	0.015354
1140.000000	0.015103
1139.000000	0.014870
1138.000000	0.014648
1137.000000	0.014434
1136.000000	0.014234
1135.000000	0.014049
1134.000000	0.013876
1133.000000	0.013720
1132.000000	0.013592
1131.000000	0.013490
1130.000000	0.013406
1129.000000	0.013339
1128.000000	0.013308
1127.000000	0.013328
1126.000000	0.013381
1125.000000	0.013439
1124.000000	0.013494
1123.000000	0.013552
1122.000000	0.013613
1121.000000	0.013665
1120.000000	0.013703
1119.000000	0.013740
1118.000000	0.013784
1117.000000	0.013824
1116.000000	0.013848
1115.000000	0.013865
1114.000000	0.013888
1113.000000	0.013921
1112.000000	0.013951
1111.000000	0.013966
1110.000000	0.013977
1109.000000	0.014004
1108.000000	0.014059
1107.000000	0.014130
1106.000000	0.014206
1105.000000	0.014293
1104.000000	0.014406
1103.000000	0.014544
1102.000000	0.014676
1101.000000	0.014771
1100.000000	0.014826
1099.000000	0.014855
1098.000000	0.014878
1097.000000	0.014907
1096.000000	0.014957
1095.000000	0.015050
1094.000000	0.015194
1093.000000	0.015383
1092.000000	0.015601
1091.000000	0.015828
1090.000000	0.016050
1089.000000	0.016266
1088.000000	0.016495
1087.000000	0.016763
1086.000000	0.017083
1085.000000	0.017435
1084.000000	0.017775
1083.000000	0.018056
1082.000000	0.018242
1081.000000	0.018322
1080.000000	0.018294
1079.000000	0.018165
1078.000000	0.017955
1077.000000	0.017685
1076.000000	0.017381
1075.000000	0.017065
1074.000000	0.016762
1073.000000	0.016495
1072.000000	0.016276
1071.000000	0.016100
1070.000000	0.015952
1069.000000	0.015823
1068.000000	0.015727
1067.000000	0.015682
1066.000000	0.015690
1065.000000	0.015730
1064.000000	0.015778
1063.000000	0.015815
1062.000000	0.015825
1061.000000	0.015793
1060.000000	0.015715
1059.000000	0.015616
1058.000000	0.015528
1057.000000	0.015460
1056.000000	0.015389
1055.000000	0.015297
1054.000000	0.015194
1053.000000	0.015106
1052.000000	0.015051
1051.000000	0.015022
1050.000000	0.015006
1049.000000	0.014998
1048.000000	0.014999
1047.000000	0.015005
1046.000000	0.015006
1045.000000	0.014993
1044.000000	0.014971
1043.000000	0.014959
1042.000000	0.014975
1041.000000	0.015028
1040.000000	0.015116
1039.000000	0.015235
1038.000000	0.015393
1037.000000	0.015591
1036.000000	0.015810
1035.000000	0.016021
1034.000000	0.016202
1033.000000	0.016357
1032.000000	0.016495
1031.000000	0.016604
1030.000000	0.016661
1029.000000	0.016642
1028.000000	0.016546
1027.000000	0.016396
1026.000000	0.016226
1025.000000	0.016066
1024.000000	0.015924
1023.000000	0.015784
1022.000000	0.015629
1021.000000	0.015457
1020.000000	0.015284
1019.000000	0.015130
1018.000000	0.015004
1017.000000	0.014895
1016.000000	0.014772
1015.000000	0.014609
1014.000000	0.014402
1013.000000	0.014174
1012.000000	0.013945
1011.000000	0.013717
1010.000000	0.013478
1009.000000	0.013230
1008.000000	0.012987
1007.000000	0.012760
1006.000000	0.012542
1005.000000	0.012323
1004.000000	0.012100
1003.000000	0.011876
1002.000000	0.011654
1001.000000	0.011441
1000.000000	0.011241
999.000000	0.011053
998.000000	0.010870
997.000000	0.010690
996.000000	0.010515
995.000000	0.010348
994.000000	0.010185
993.000000	0.010016
992.000000	0.009838
991.000000	0.009657
990.000000	0.009487
989.000000	0.009340
988.000000	0.009222
987.000000	0.009125
986.000000	0.009033
985.000000	0.008936
984.000000	0.008840
983.000000	0.008761
982.000000	0.008707
981.000000	0.008678
980.000000	0.008671
979.000000	0.008682
978.000000	0.008708
977.000000	0.008741
976.000000	0.008770
975.000000	0.008784
974.000000	0.008771
973.000000	0.008733
972.000000	0.008679
971.000000	0.008621
970.000000	0.008555
969.000000	0.008467
968.000000	0.008349
967.000000	0.008204
966.000000	0.008044
965.000000	0.007883
964.000000	0.007733
963.000000	0.007603
962.000000	0.007490
961.000000	0.007382
960.000000	0.007273
959.000000	0.007163
958.000000	0.007057
957.000000	0.006966
956.000000	0.006889
955.000000	0.006813
954.000000	0.006721
953.000000	0.006609
952.000000	0.006494
951.000000	0.006405
950.000000	0.006354
949.000000	0.006336
948.000000	0.006338
947.000000	0.006343
946.000000	0.006338
945.000000	0.006323
944.000000	0.006316
943.000000	0.006332
942.000000	0.006369
941.000000	0.006403
940.000000	0.006412
939.000000	0.006397
938.000000	0.006371
937.000000	0.006341
936.000000	0.006302
935.000000	0.006247
934.000000	0.006184
933.000000	0.006130
932.000000	0.006097
931.000000	0.006082
930.000000	0.006076
929.000000	0.006069
928.000000	0.006055
927.000000	0.006021
926.000000	0.005965
925.000000	0.005902
924.000000	0.005862
923.000000	0.005858
922.000000	0.005868
921.000000	0.005859
920.000000	0.005817
919.000000	0.005745
918.000000	0.005645
917.000000	0.005516
916.000000	0.005370
915.000000	0.005230
914.000000	0.005114
913.000000	0.005026
912.000000	0.004965
911.000000	0.004930
910.000000	0.004915
909.000000	0.004909
908.000000	0.004897
907.000000	0.004869
906.000000	0.004823
905.000000	0.004767
904.000000	0.004717
903.000000	0.004692
902.000000	0.004692
901.000000	0.004699
900.000000	0.004689
899.000000	0.004650
898.000000	0.004583
897.000000	0.004499
896.000000	0.004418
895.000000	0.004358
894.000000	0.004331
893.000000	0.004333
892.000000	0.004349
891.000000	0.004369
890.000000	0.004399
889.000000	0.004447
888.000000	0.004519
887.000000	0.004610
886.000000	0.004710
885.000000	0.004814
884.000000	0.004919
883.000000	0.005029
882.000000	0.005150
881.000000	0.005296
880.000000	0.005483
879.000000	0.005707
878.000000	0.005941
877.000000	0.006147
876.000000	0.006286
875.000000	0.006346
874.000000	0.006332
873.000000	0.006253
872.000000	0.006115
871.000000	0.005927
870.000000	0.005710
869.000000	0.005502
868.000000	0.005338
867.000000	0.005226
866.000000	0.005154
865.000000	0.005103
864.000000	0.005059
863.000000	0.005018
862.000000	0.004981
861.000000	0.004957
860.000000	0.004942
859.000000	0.004930
858.000000	0.004914
857.000000	0.004903
856.000000	0.004914
855.000000	0.004957
854.000000	0.005031
853.000000	0.005117
852.000000	0.005181
851.000000	0.005191
850.000000	0.005137
849.000000	0.005048
848.000000	0.004968
847.000000	0.004908
846.000000	0.004854
845.000000	0.004795
844.000000	0.004740
843.000000	0.004697
842.000000	0.004661
841.000000	0.004618
840.000000	0.004572
839.000000	0.004541
838.000000	0.004540
837.000000	0.004566
836.000000	0.004601
835.000000	0.004620
834.000000	0.004604
833.000000	0.004550
832.000000	0.004477
831.000000	0.004404
830.000000	0.004348
829.000000	0.004315
828.000000	0.004300
827.000000	0.004303
826.000000	0.004324
825.000000	0.004375
824.000000	0.004449
823.000000	0.004515
822.000000	0.004538
821.000000	0.004514
820.000000	0.004481
819.000000	0.004479
818.000000	0.004518
817.000000	0.004583
816.000000	0.004654
815.000000	0.004708
814.000000	0.004724
813.000000	0.004693
812.000000	0.004638
811.000000	0.004596
810.000000	0.004587
809.000000	0.004595
808.000000	0.004597
807.000000	0.004582
806.000000	0.004560
805.000000	0.004535
804.000000	0.004492
803.000000	0.004423
802.000000	0.004352
801.000000	0.004326
800.000000	0.004361
799.000000	0.004418
798.000000	0.004440
797.000000	0.004415
796.000000	0.004390
795.000000	0.004414
794.000000	0.004486
793.000000	0.004563
792.000000	0.004623
791.000000	0.004684
790.000000	0.004768
789.000000	0.004863
788.000000	0.004927
787.000000	0.004936
786.000000	0.004905
785.000000	0.004869
784.000000	0.004849
783.000000	0.004845
782.000000	0.004850
781.000000	0.004852
780.000000	0.004845
779.000000	0.004839
778.000000	0.004859
777.000000	0.004930
776.000000	0.005045
775.000000	0.005161
774.000000	0.005228
773.000000	0.005223
772.000000	0.005168
771.000000	0.005112
770.000000	0.005095
769.000000	0.005115
768.000000	0.005138
767.000000	0.005147
766.000000	0.005158
765.000000	0.005193
764.000000	0.005233
763.000000	0.005239
762.000000	0.005200
761.000000	0.005149
760.000000	0.005124
759.000000	0.005132
758.000000	0.005170
757.000000	0.005235
756.000000	0.005307
755.000000	0.005346
754.000000	0.005329
753.000000	0.005285
752.000000	0.005268
751.000000	0.005305
750.000000	0.005378
749.000000	0.005456
748.000000	0.005521
747.000000	0.005576
746.000000	0.005641
745.000000	0.005728
744.000000	0.005823
743.000000	0.005896
742.000000	0.005940
741.000000	0.005990
740.000000	0.006082
739.000000	0.006206
738.000000	0.006321
737.000000	0.006406
736.000000	0.006470
735.000000	0.006521
734.000000	0.006546
733.000000	0.006545
732.000000	0.006559
731.000000	0.006642
730.000000	0.006802
729.000000	0.006997
728.000000	0.007188
727.000000	0.007369
726.000000	0.007551
725.000000	0.007718
724.000000	0.007841
723.000000	0.007920
722.000000	0.007991
721.000000	0.008074
720.000000	0.008144
719.000000	0.008178
718.000000	0.008196
717.000000	0.008232
716.000000	0.008280
715.000000	0.008313
714.000000	0.008340
713.000000	0.008399
712.000000	0.008492
711.000000	0.008570
710.000000	0.008611
709.000000	0.008667
708.000000	0.008793
707.000000	0.008970
706.000000	0.009130
705.000000	0.009242
704.000000	0.009318
703.000000	0.009367
702.000000	0.009378
701.000000	0.009360
700.000000	0.009355
699.000000	0.009402
698.000000	0.009498
697.000000	0.009601
696.000000	0.009661
695.000000	0.009656
694.000000	0.009608
693.000000	0.009570
692.000000	0.009588
691.000000	0.009669
690.000000	0.009778
689.000000	0.009873
688.000000	0.009922
687.000000	0.009918
686.000000	0.009894
685.000000	0.009903
684.000000	0.009983
683.000000	0.010120
682.000000	0.010255
681.000000	0.010324
680.000000	0.010300
679.000000	0.010215
678.000000	0.010149
677.000000	0.010188
676.000000	0.010352
675.000000	0.010570
674.000000	0.010746
673.000000	0.010826
672.000000	0.010829
671.000000	0.010806
670.000000	0.010807
669.000000	0.010834
668.000000	0.010872
667.000000	0.010959
666.000000	0.011036
665.000000	0.011096
664.000000	0.011195
663.000000	0.011301
662.000000	0.011337
661.000000	0.011286
660.000000	0.011201
659.000000	0.011137
658.000000	0.011118
657.000000	0.011160
656.000000	0.011263
655.000000	0.011392
654.000000	0.011499
653.000000	0.011562
652.000000	0.011596
651.000000	0.011632
650.000000	0.011701
649.000000	0.011811
648.000000	0.011921
647.000000	0.011959
646.000000	0.011886
645.000000	0.011722
644.000000	0.011524
643.000000	0.011358
642.000000	0.011290
641.000000	0.011343
640.000000	0.011459
639.000000	0.011545
638.000000	0.011583
637.000000	0.011624
636.000000	0.011675
635.000000	0.011662
634.000000	0.011545
633.000000	0.011413
632.000000	0.011377
631.000000	0.011437
630.000000	0.011505
629.000000	0.011537
628.000000	0.011570
627.000000	0.011630
626.000000	0.011703
625.000000	0.011778
624.000000	0.011870
623.000000	0.011971
622.000000	0.012038
621.000000	0.012049
620.000000	0.012028
619.000000	0.011999
618.000000	0.011963
617.000000	0.011918
616.000000	0.011885
615.000000	0.011880
614.000000	0.011892
613.000000	0.011897
612.000000	0.011883
611.000000	0.011850
610.000000	0.011810
609.000000	0.011796
608.000000	0.011843
607.000000	0.011953
606.000000	0.012071
605.000000	0.012116
604.000000	0.012049
603.000000	0.011931
602.000000	0.011895
601.000000	0.012023
600.000000	0.012246
599.000000	0.012392
598.000000	0.012363
597.000000	0.012241
596.000000	0.012179
595.000000	0.012226
594.000000	0.012296
593.000000	0.012301
592.000000	0.012255
591.000000	0.012239
590.000000	0.012295
589.000000	0.012383
588.000000	0.012430
587.000000	0.012392
586.000000	0.012287
585.000000	0.012160
584.000000	0.012034
583.000000	0.011923
582.000000	0.011871
581.000000	0.011940
580.000000	0.012125
579.000000	0.012323
578.000000	0.012430
577.000000	0.012446
576.000000	0.012439
575.000000	0.012464
574.000000	0.012542
573.000000	0.012684
572.000000	0.012874
571.000000	0.013045
570.000000	0.013143
569.000000	0.013212
568.000000	0.013338
567.000000	0.013522
566.000000	0.013668
565.000000	0.013708
564.000000	0.013666
563.000000	0.013607
562.000000	0.013578
561.000000	0.013604
560.000000	0.013678
559.000000	0.013738
558.000000	0.013712
557.000000	0.013588
556.000000	0.013440
555.000000	0.013348
554.000000	0.013340
553.000000	0.013394
552.000000	0.013475
551.000000	0.013553
550.000000	0.013615
549.000000	0.013662
548.000000	0.013686
547.000000	0.013676
546.000000	0.013647
545.000000	0.013642
544.000000	0.013666
543.000000	0.013664
542.000000	0.013590
541.000000	0.013465
540.000000	0.013329
539.000000	0.013215
538.000000	0.013175
537.000000	0.013295
536.000000	0.013576
535.000000	0.013863
534.000000	0.014003
533.000000	0.014020
532.000000	0.014059
531.000000	0.014150
530.000000	0.014172
529.000000	0.014033
528.000000	0.013797
527.000000	0.013611
526.000000	0.013564
525.000000	0.013625
524.000000	0.013689
523.000000	0.013663
522.000000	0.013541
521.000000	0.013383
520.000000	0.013219
519.000000	0.012987
518.000000	0.012614
517.000000	0.012158
516.000000	0.011779
515.000000	0.011589
514.000000	0.011591
513.000000	0.011719
512.000000	0.011876
511.000000	0.011942
510.000000	0.011849
509.000000	0.011640
508.000000	0.011404
507.000000	0.011167
506.000000	0.010899
505.000000	0.010609
504.000000	0.010348
503.000000	0.010154
502.000000	0.010038
501.000000	0.010000
500.000000	0.009998
499.000000	0.009961
498.000000	0.009867
497.000000	0.009780
496.000000	0.009761
495.000000	0.009750
494.000000	0.009640
493.000000	0.009421
492.000000	0.009189
491.000000	0.009019
490.000000	0.008919
489.000000	0.008888
488.000000	0.008885
487.000000	0.008783
486.000000	0.008504
485.000000	0.008193
484.000000	0.008114
483.000000	0.008301
482.000000	0.008484
481.000000	0.008427
480.000000	0.008164
479.000000	0.007840
478.000000	0.007515
477.000000	0.007197
476.000000	0.006975
475.000000	0.006973
474.000000	0.007201
473.000000	0.007498
472.000000	0.007635
471.000000	0.007482
470.000000	0.007129
469.000000	0.006842
468.000000	0.006856
467.000000	0.007150
466.000000	0.007435
465.000000	0.007433
464.000000	0.007103
463.000000	0.006578
462.000000	0.006042
461.000000	0.005641
460.000000	0.005399
459.000000	0.005180
458.000000	0.004831
457.000000	0.004452
456.000000	0.004305
455.000000	0.004454
454.000000	0.004709
453.000000	0.004838
452.000000	0.004761
451.000000	0.004592
450.000000	0.004503
