PE IR       SUBTECH     SPECTRUM    ASCII       PEDS        4.00        
   -1
3C-N10-F022_1.ASC
22/02/16
15:38:28.00
22/02/16
15:56:00.00
uco
Sample 022 By uco Date Wednesday, February 16 2022
450.000000
#HDR
-1
-1
#GR
cm-1
A
1.0
0.0
4000.000000
-1.000000
3551
8
0.059445
0.005445
#DATA
4000.000000	0.005681
3999.000000	0.005706
3998.000000	0.005739
3997.000000	0.005785
3996.000000	0.005817
3995.000000	0.005834
3994.000000	0.005833
3993.000000	0.005820
3992.000000	0.005806
3991.000000	0.005797
3990.000000	0.005794
3989.000000	0.005792
3988.000000	0.005788
3987.000000	0.005783
3986.000000	0.005780
3985.000000	0.005781
3984.000000	0.005782
3983.000000	0.005782
3982.000000	0.005780
3981.000000	0.005778
3980.000000	0.005777
3979.000000	0.005780
3978.000000	0.005785
3977.000000	0.005791
3976.000000	0.005798
3975.000000	0.005808
3974.000000	0.005820
3973.000000	0.005826
3972.000000	0.005821
3971.000000	0.005807
3970.000000	0.005793
3969.000000	0.005790
3968.000000	0.005803
3967.000000	0.005827
3966.000000	0.005850
3965.000000	0.005864
3964.000000	0.005868
3963.000000	0.005866
3962.000000	0.005864
3961.000000	0.005866
3960.000000	0.005873
3959.000000	0.005887
3958.000000	0.005907
3957.000000	0.005930
3956.000000	0.005951
3955.000000	0.005964
3954.000000	0.005967
3953.000000	0.005963
3952.000000	0.005952
3951.000000	0.005935
3950.000000	0.005913
3949.000000	0.005891
3948.000000	0.005877
3947.000000	0.005874
3946.000000	0.005880
3945.000000	0.005897
3944.000000	0.005925
3943.000000	0.005963
3942.000000	0.006001
3941.000000	0.006024
3940.000000	0.006023
3939.000000	0.006004
3938.000000	0.005979
3937.000000	0.005963
3936.000000	0.005959
3935.000000	0.005964
3934.000000	0.005967
3933.000000	0.005962
3932.000000	0.005943
3931.000000	0.005918
3930.000000	0.005894
3929.000000	0.005879
3928.000000	0.005877
3927.000000	0.005887
3926.000000	0.005910
3925.000000	0.005940
3924.000000	0.005967
3923.000000	0.005981
3922.000000	0.005983
3921.000000	0.005976
3920.000000	0.005968
3919.000000	0.005960
3918.000000	0.005948
3917.000000	0.005926
3916.000000	0.005895
3915.000000	0.005863
3914.000000	0.005843
3913.000000	0.005839
3912.000000	0.005846
3911.000000	0.005855
3910.000000	0.005863
3909.000000	0.005872
3908.000000	0.005884
3907.000000	0.005898
3906.000000	0.005907
3905.000000	0.005908
3904.000000	0.005903
3903.000000	0.005897
3902.000000	0.005891
3901.000000	0.005882
3900.000000	0.005879
3899.000000	0.005886
3898.000000	0.005907
3897.000000	0.005935
3896.000000	0.005965
3895.000000	0.005992
3894.000000	0.006003
3893.000000	0.005990
3892.000000	0.005959
3891.000000	0.005933
3890.000000	0.005920
3889.000000	0.005910
3888.000000	0.005889
3887.000000	0.005864
3886.000000	0.005848
3885.000000	0.005849
3884.000000	0.005860
3883.000000	0.005871
3882.000000	0.005879
3881.000000	0.005885
3880.000000	0.005890
3879.000000	0.005895
3878.000000	0.005894
3877.000000	0.005888
3876.000000	0.005885
3875.000000	0.005899
3874.000000	0.005930
3873.000000	0.005958
3872.000000	0.005967
3871.000000	0.005959
3870.000000	0.005956
3869.000000	0.005963
3868.000000	0.005969
3867.000000	0.005965
3866.000000	0.005954
3865.000000	0.005944
3864.000000	0.005934
3863.000000	0.005927
3862.000000	0.005931
3861.000000	0.005953
3860.000000	0.005991
3859.000000	0.006037
3858.000000	0.006077
3857.000000	0.006098
3856.000000	0.006090
3855.000000	0.006059
3854.000000	0.006016
3853.000000	0.005973
3852.000000	0.005940
3851.000000	0.005916
3850.000000	0.005903
3849.000000	0.005906
3848.000000	0.005922
3847.000000	0.005942
3846.000000	0.005956
3845.000000	0.005962
3844.000000	0.005964
3843.000000	0.005965
3842.000000	0.005969
3841.000000	0.005976
3840.000000	0.005990
3839.000000	0.006014
3838.000000	0.006036
3837.000000	0.006038
3836.000000	0.006013
3835.000000	0.005973
3834.000000	0.005944
3833.000000	0.005943
3832.000000	0.005970
3831.000000	0.006002
3830.000000	0.006011
3829.000000	0.005986
3828.000000	0.005940
3827.000000	0.005905
3826.000000	0.005902
3825.000000	0.005926
3824.000000	0.005957
3823.000000	0.005978
3822.000000	0.005984
3821.000000	0.005976
3820.000000	0.005964
3819.000000	0.005951
3818.000000	0.005937
3817.000000	0.005927
3816.000000	0.005923
3815.000000	0.005912
3814.000000	0.005883
3813.000000	0.005845
3812.000000	0.005823
3811.000000	0.005830
3810.000000	0.005851
3809.000000	0.005865
3808.000000	0.005864
3807.000000	0.005869
3806.000000	0.005895
3805.000000	0.005930
3804.000000	0.005960
3803.000000	0.005981
3802.000000	0.006001
3801.000000	0.006018
3800.000000	0.006017
3799.000000	0.005992
3798.000000	0.005947
3797.000000	0.005897
3796.000000	0.005853
3795.000000	0.005822
3794.000000	0.005804
3793.000000	0.005800
3792.000000	0.005809
3791.000000	0.005827
3790.000000	0.005848
3789.000000	0.005863
3788.000000	0.005872
3787.000000	0.005874
3786.000000	0.005875
3785.000000	0.005876
3784.000000	0.005879
3783.000000	0.005883
3782.000000	0.005881
3781.000000	0.005869
3780.000000	0.005847
3779.000000	0.005824
3778.000000	0.005810
3777.000000	0.005802
3776.000000	0.005794
3775.000000	0.005787
3774.000000	0.005783
3773.000000	0.005783
3772.000000	0.005785
3771.000000	0.005788
3770.000000	0.005792
3769.000000	0.005798
3768.000000	0.005801
3767.000000	0.005797
3766.000000	0.005787
3765.000000	0.005778
3764.000000	0.005777
3763.000000	0.005781
3762.000000	0.005782
3761.000000	0.005777
3760.000000	0.005767
3759.000000	0.005762
3758.000000	0.005774
3757.000000	0.005800
3756.000000	0.005826
3755.000000	0.005844
3754.000000	0.005860
3753.000000	0.005879
3752.000000	0.005894
3751.000000	0.005899
3750.000000	0.005907
3749.000000	0.005926
3748.000000	0.005941
3747.000000	0.005935
3746.000000	0.005912
3745.000000	0.005900
3744.000000	0.005913
3743.000000	0.005933
3742.000000	0.005938
3741.000000	0.005929
3740.000000	0.005924
3739.000000	0.005933
3738.000000	0.005961
3737.000000	0.005997
3736.000000	0.006005
3735.000000	0.005956
3734.000000	0.005865
3733.000000	0.005783
3732.000000	0.005747
3731.000000	0.005749
3730.000000	0.005756
3729.000000	0.005747
3728.000000	0.005726
3727.000000	0.005712
3726.000000	0.005711
3725.000000	0.005718
3724.000000	0.005727
3723.000000	0.005740
3722.000000	0.005753
3721.000000	0.005762
3720.000000	0.005765
3719.000000	0.005765
3718.000000	0.005772
3717.000000	0.005788
3716.000000	0.005810
3715.000000	0.005836
3714.000000	0.005869
3713.000000	0.005908
3712.000000	0.005937
3711.000000	0.005941
3710.000000	0.005919
3709.000000	0.005877
3708.000000	0.005825
3707.000000	0.005777
3706.000000	0.005741
3705.000000	0.005723
3704.000000	0.005715
3703.000000	0.005708
3702.000000	0.005694
3701.000000	0.005682
3700.000000	0.005682
3699.000000	0.005694
3698.000000	0.005712
3697.000000	0.005728
3696.000000	0.005742
3695.000000	0.005757
3694.000000	0.005774
3693.000000	0.005792
3692.000000	0.005805
3691.000000	0.005811
3690.000000	0.005818
3689.000000	0.005841
3688.000000	0.005881
3687.000000	0.005914
3686.000000	0.005926
3685.000000	0.005926
3684.000000	0.005934
3683.000000	0.005958
3682.000000	0.005994
3681.000000	0.006036
3680.000000	0.006088
3679.000000	0.006150
3678.000000	0.006207
3677.000000	0.006241
3676.000000	0.006241
3675.000000	0.006224
3674.000000	0.006210
3673.000000	0.006193
3672.000000	0.006166
3671.000000	0.006139
3670.000000	0.006124
3669.000000	0.006124
3668.000000	0.006134
3667.000000	0.006146
3666.000000	0.006160
3665.000000	0.006177
3664.000000	0.006202
3663.000000	0.006234
3662.000000	0.006267
3661.000000	0.006295
3660.000000	0.006318
3659.000000	0.006339
3658.000000	0.006364
3657.000000	0.006392
3656.000000	0.006427
3655.000000	0.006465
3654.000000	0.006504
3653.000000	0.006545
3652.000000	0.006595
3651.000000	0.006660
3650.000000	0.006728
3649.000000	0.006786
3648.000000	0.006838
3647.000000	0.006893
3646.000000	0.006949
3645.000000	0.006992
3644.000000	0.007015
3643.000000	0.007019
3642.000000	0.007012
3641.000000	0.007011
3640.000000	0.007028
3639.000000	0.007068
3638.000000	0.007124
3637.000000	0.007177
3636.000000	0.007220
3635.000000	0.007261
3634.000000	0.007307
3633.000000	0.007355
3632.000000	0.007398
3631.000000	0.007436
3630.000000	0.007479
3629.000000	0.007528
3628.000000	0.007576
3627.000000	0.007620
3626.000000	0.007657
3625.000000	0.007691
3624.000000	0.007729
3623.000000	0.007773
3622.000000	0.007823
3621.000000	0.007879
3620.000000	0.007944
3619.000000	0.008022
3618.000000	0.008109
3617.000000	0.008195
3616.000000	0.008268
3615.000000	0.008325
3614.000000	0.008368
3613.000000	0.008399
3612.000000	0.008426
3611.000000	0.008463
3610.000000	0.008524
3609.000000	0.008606
3608.000000	0.008695
3607.000000	0.008772
3606.000000	0.008829
3605.000000	0.008870
3604.000000	0.008909
3603.000000	0.008961
3602.000000	0.009030
3601.000000	0.009107
3600.000000	0.009181
3599.000000	0.009248
3598.000000	0.009315
3597.000000	0.009383
3596.000000	0.009450
3595.000000	0.009511
3594.000000	0.009563
3593.000000	0.009601
3592.000000	0.009627
3591.000000	0.009648
3590.000000	0.009685
3589.000000	0.009756
3588.000000	0.009862
3587.000000	0.009985
3586.000000	0.010100
3585.000000	0.010190
3584.000000	0.010253
3583.000000	0.010306
3582.000000	0.010368
3581.000000	0.010448
3580.000000	0.010545
3579.000000	0.010648
3578.000000	0.010743
3577.000000	0.010818
3576.000000	0.010871
3575.000000	0.010913
3574.000000	0.010959
3573.000000	0.011020
3572.000000	0.011094
3571.000000	0.011176
3570.000000	0.011263
3569.000000	0.011359
3568.000000	0.011468
3567.000000	0.011584
3566.000000	0.011693
3565.000000	0.011783
3564.000000	0.011855
3563.000000	0.011915
3562.000000	0.011966
3561.000000	0.012012
3560.000000	0.012062
3559.000000	0.012130
3558.000000	0.012225
3557.000000	0.012339
3556.000000	0.012458
3555.000000	0.012576
3554.000000	0.012690
3553.000000	0.012800
3552.000000	0.012900
3551.000000	0.012980
3550.000000	0.013037
3549.000000	0.013080
3548.000000	0.013128
3547.000000	0.013202
3546.000000	0.013301
3545.000000	0.013410
3544.000000	0.013509
3543.000000	0.013593
3542.000000	0.013668
3541.000000	0.013738
3540.000000	0.013808
3539.000000	0.013881
3538.000000	0.013961
3537.000000	0.014052
3536.000000	0.014154
3535.000000	0.014260
3534.000000	0.014360
3533.000000	0.014448
3532.000000	0.014533
3531.000000	0.014622
3530.000000	0.014715
3529.000000	0.014804
3528.000000	0.014884
3527.000000	0.014960
3526.000000	0.015040
3525.000000	0.015122
3524.000000	0.015198
3523.000000	0.015264
3522.000000	0.015323
3521.000000	0.015384
3520.000000	0.015453
3519.000000	0.015532
3518.000000	0.015615
3517.000000	0.015695
3516.000000	0.015770
3515.000000	0.015839
3514.000000	0.015905
3513.000000	0.015971
3512.000000	0.016042
3511.000000	0.016124
3510.000000	0.016215
3509.000000	0.016305
3508.000000	0.016385
3507.000000	0.016456
3506.000000	0.016525
3505.000000	0.016598
3504.000000	0.016677
3503.000000	0.016763
3502.000000	0.016851
3501.000000	0.016928
3500.000000	0.016993
3499.000000	0.017054
3498.000000	0.017120
3497.000000	0.017186
3496.000000	0.017242
3495.000000	0.017285
3494.000000	0.017321
3493.000000	0.017365
3492.000000	0.017421
3491.000000	0.017489
3490.000000	0.017564
3489.000000	0.017638
3488.000000	0.017711
3487.000000	0.017783
3486.000000	0.017848
3485.000000	0.017905
3484.000000	0.017957
3483.000000	0.018014
3482.000000	0.018085
3481.000000	0.018166
3480.000000	0.018245
3479.000000	0.018316
3478.000000	0.018379
3477.000000	0.018439
3476.000000	0.018499
3475.000000	0.018558
3474.000000	0.018609
3473.000000	0.018649
3472.000000	0.018686
3471.000000	0.018738
3470.000000	0.018810
3469.000000	0.018892
3468.000000	0.018965
3467.000000	0.019024
3466.000000	0.019073
3465.000000	0.019114
3464.000000	0.019150
3463.000000	0.019179
3462.000000	0.019202
3461.000000	0.019225
3460.000000	0.019260
3459.000000	0.019320
3458.000000	0.019407
3457.000000	0.019503
3456.000000	0.019584
3455.000000	0.019642
3454.000000	0.019692
3453.000000	0.019750
3452.000000	0.019818
3451.000000	0.019886
3450.000000	0.019940
3449.000000	0.019982
3448.000000	0.020026
3447.000000	0.020086
3446.000000	0.020160
3445.000000	0.020236
3444.000000	0.020300
3443.000000	0.020352
3442.000000	0.020401
3441.000000	0.020455
3440.000000	0.020516
3439.000000	0.020586
3438.000000	0.020667
3437.000000	0.020754
3436.000000	0.020843
3435.000000	0.020923
3434.000000	0.020984
3433.000000	0.021023
3432.000000	0.021048
3431.000000	0.021080
3430.000000	0.021133
3429.000000	0.021206
3428.000000	0.021281
3427.000000	0.021348
3426.000000	0.021402
3425.000000	0.021451
3424.000000	0.021498
3423.000000	0.021548
3422.000000	0.021604
3421.000000	0.021665
3420.000000	0.021728
3419.000000	0.021785
3418.000000	0.021831
3417.000000	0.021868
3416.000000	0.021907
3415.000000	0.021957
3414.000000	0.022020
3413.000000	0.022092
3412.000000	0.022166
3411.000000	0.022242
3410.000000	0.022318
3409.000000	0.022395
3408.000000	0.022473
3407.000000	0.022549
3406.000000	0.022620
3405.000000	0.022679
3404.000000	0.022725
3403.000000	0.022762
3402.000000	0.022793
3401.000000	0.022824
3400.000000	0.022861
3399.000000	0.022912
3398.000000	0.022980
3397.000000	0.023061
3396.000000	0.023141
3395.000000	0.023212
3394.000000	0.023272
3393.000000	0.023325
3392.000000	0.023378
3391.000000	0.023434
3390.000000	0.023488
3389.000000	0.023531
3388.000000	0.023564
3387.000000	0.023603
3386.000000	0.023659
3385.000000	0.023739
3384.000000	0.023837
3383.000000	0.023939
3382.000000	0.024034
3381.000000	0.024109
3380.000000	0.024169
3379.000000	0.024227
3378.000000	0.024295
3377.000000	0.024376
3376.000000	0.024462
3375.000000	0.024542
3374.000000	0.024614
3373.000000	0.024686
3372.000000	0.024769
3371.000000	0.024870
3370.000000	0.024977
3369.000000	0.025070
3368.000000	0.025138
3367.000000	0.025191
3366.000000	0.025247
3365.000000	0.025319
3364.000000	0.025405
3363.000000	0.025497
3362.000000	0.025585
3361.000000	0.025664
3360.000000	0.025742
3359.000000	0.025829
3358.000000	0.025931
3357.000000	0.026042
3356.000000	0.026157
3355.000000	0.026270
3354.000000	0.026378
3353.000000	0.026476
3352.000000	0.026566
3351.000000	0.026659
3350.000000	0.026762
3349.000000	0.026874
3348.000000	0.026992
3347.000000	0.027110
3346.000000	0.027221
3345.000000	0.027316
3344.000000	0.027399
3343.000000	0.027490
3342.000000	0.027603
3341.000000	0.027732
3340.000000	0.027856
3339.000000	0.027966
3338.000000	0.028062
3337.000000	0.028152
3336.000000	0.028242
3335.000000	0.028331
3334.000000	0.028416
3333.000000	0.028494
3332.000000	0.028569
3331.000000	0.028652
3330.000000	0.028744
3329.000000	0.028834
3328.000000	0.028911
3327.000000	0.028980
3326.000000	0.029052
3325.000000	0.029129
3324.000000	0.029209
3323.000000	0.029289
3322.000000	0.029370
3321.000000	0.029450
3320.000000	0.029527
3319.000000	0.029599
3318.000000	0.029666
3317.000000	0.029725
3316.000000	0.029773
3315.000000	0.029818
3314.000000	0.029868
3313.000000	0.029920
3312.000000	0.029966
3311.000000	0.030003
3310.000000	0.030034
3309.000000	0.030061
3308.000000	0.030090
3307.000000	0.030126
3306.000000	0.030177
3305.000000	0.030245
3304.000000	0.030321
3303.000000	0.030396
3302.000000	0.030456
3301.000000	0.030491
3300.000000	0.030499
3299.000000	0.030496
3298.000000	0.030504
3297.000000	0.030532
3296.000000	0.030571
3295.000000	0.030604
3294.000000	0.030621
3293.000000	0.030621
3292.000000	0.030617
3291.000000	0.030621
3290.000000	0.030643
3289.000000	0.030677
3288.000000	0.030707
3287.000000	0.030724
3286.000000	0.030727
3285.000000	0.030720
3284.000000	0.030708
3283.000000	0.030688
3282.000000	0.030662
3281.000000	0.030629
3280.000000	0.030595
3279.000000	0.030564
3278.000000	0.030534
3277.000000	0.030500
3276.000000	0.030457
3275.000000	0.030401
3274.000000	0.030333
3273.000000	0.030260
3272.000000	0.030198
3271.000000	0.030161
3270.000000	0.030149
3269.000000	0.030147
3268.000000	0.030131
3267.000000	0.030088
3266.000000	0.030015
3265.000000	0.029927
3264.000000	0.029849
3263.000000	0.029798
3262.000000	0.029774
3261.000000	0.029758
3260.000000	0.029728
3259.000000	0.029671
3258.000000	0.029587
3257.000000	0.029487
3256.000000	0.029390
3255.000000	0.029308
3254.000000	0.029239
3253.000000	0.029170
3252.000000	0.029094
3251.000000	0.029015
3250.000000	0.028943
3249.000000	0.028880
3248.000000	0.028814
3247.000000	0.028742
3246.000000	0.028665
3245.000000	0.028590
3244.000000	0.028524
3243.000000	0.028470
3242.000000	0.028427
3241.000000	0.028387
3240.000000	0.028347
3239.000000	0.028307
3238.000000	0.028262
3237.000000	0.028205
3236.000000	0.028133
3235.000000	0.028053
3234.000000	0.027978
3233.000000	0.027913
3232.000000	0.027857
3231.000000	0.027809
3230.000000	0.027762
3229.000000	0.027706
3228.000000	0.027633
3227.000000	0.027550
3226.000000	0.027478
3225.000000	0.027430
3224.000000	0.027402
3223.000000	0.027376
3222.000000	0.027334
3221.000000	0.027271
3220.000000	0.027197
3219.000000	0.027126
3218.000000	0.027061
3217.000000	0.026999
3216.000000	0.026941
3215.000000	0.026893
3214.000000	0.026859
3213.000000	0.026828
3212.000000	0.026786
3211.000000	0.026725
3210.000000	0.026651
3209.000000	0.026570
3208.000000	0.026487
3207.000000	0.026410
3206.000000	0.026342
3205.000000	0.026286
3204.000000	0.026237
3203.000000	0.026184
3202.000000	0.026122
3201.000000	0.026048
3200.000000	0.025967
3199.000000	0.025885
3198.000000	0.025803
3197.000000	0.025721
3196.000000	0.025639
3195.000000	0.025558
3194.000000	0.025473
3193.000000	0.025381
3192.000000	0.025287
3191.000000	0.025200
3190.000000	0.025124
3189.000000	0.025053
3188.000000	0.024985
3187.000000	0.024916
3186.000000	0.024841
3185.000000	0.024754
3184.000000	0.024660
3183.000000	0.024572
3182.000000	0.024500
3181.000000	0.024441
3180.000000	0.024381
3179.000000	0.024312
3178.000000	0.024235
3177.000000	0.024150
3176.000000	0.024055
3175.000000	0.023956
3174.000000	0.023855
3173.000000	0.023751
3172.000000	0.023641
3171.000000	0.023531
3170.000000	0.023437
3169.000000	0.023362
3168.000000	0.023293
3167.000000	0.023216
3166.000000	0.023127
3165.000000	0.023036
3164.000000	0.022955
3163.000000	0.022886
3162.000000	0.022823
3161.000000	0.022755
3160.000000	0.022673
3159.000000	0.022578
3158.000000	0.022478
3157.000000	0.022384
3156.000000	0.022298
3155.000000	0.022217
3154.000000	0.022134
3153.000000	0.022043
3152.000000	0.021951
3151.000000	0.021868
3150.000000	0.021801
3149.000000	0.021753
3148.000000	0.021717
3147.000000	0.021684
3146.000000	0.021648
3145.000000	0.021599
3144.000000	0.021535
3143.000000	0.021456
3142.000000	0.021371
3141.000000	0.021290
3140.000000	0.021214
3139.000000	0.021140
3138.000000	0.021065
3137.000000	0.020991
3136.000000	0.020928
3135.000000	0.020886
3134.000000	0.020865
3133.000000	0.020850
3132.000000	0.020822
3131.000000	0.020775
3130.000000	0.020716
3129.000000	0.020661
3128.000000	0.020625
3127.000000	0.020611
3126.000000	0.020610
3125.000000	0.020600
3124.000000	0.020563
3123.000000	0.020498
3122.000000	0.020421
3121.000000	0.020355
3120.000000	0.020315
3119.000000	0.020301
3118.000000	0.020303
3117.000000	0.020310
3116.000000	0.020319
3115.000000	0.020331
3114.000000	0.020347
3113.000000	0.020358
3112.000000	0.020357
3111.000000	0.020341
3110.000000	0.020321
3109.000000	0.020302
3108.000000	0.020286
3107.000000	0.020273
3106.000000	0.020269
3105.000000	0.020282
3104.000000	0.020314
3103.000000	0.020359
3102.000000	0.020407
3101.000000	0.020450
3100.000000	0.020489
3099.000000	0.020522
3098.000000	0.020546
3097.000000	0.020563
3096.000000	0.020576
3095.000000	0.020587
3094.000000	0.020602
3093.000000	0.020622
3092.000000	0.020648
3091.000000	0.020678
3090.000000	0.020709
3089.000000	0.020734
3088.000000	0.020750
3087.000000	0.020757
3086.000000	0.020759
3085.000000	0.020765
3084.000000	0.020779
3083.000000	0.020798
3082.000000	0.020809
3081.000000	0.020802
3080.000000	0.020778
3079.000000	0.020753
3078.000000	0.020744
3077.000000	0.020759
3076.000000	0.020793
3075.000000	0.020830
3074.000000	0.020854
3073.000000	0.020864
3072.000000	0.020863
3071.000000	0.020857
3070.000000	0.020847
3069.000000	0.020825
3068.000000	0.020792
3067.000000	0.020757
3066.000000	0.020725
3065.000000	0.020690
3064.000000	0.020641
3063.000000	0.020576
3062.000000	0.020508
3061.000000	0.020452
3060.000000	0.020410
3059.000000	0.020366
3058.000000	0.020303
3057.000000	0.020219
3056.000000	0.020129
3055.000000	0.020049
3054.000000	0.019986
3053.000000	0.019937
3052.000000	0.019896
3051.000000	0.019855
3050.000000	0.019804
3049.000000	0.019737
3048.000000	0.019657
3047.000000	0.019571
3046.000000	0.019488
3045.000000	0.019410
3044.000000	0.019338
3043.000000	0.019269
3042.000000	0.019197
3041.000000	0.019123
3040.000000	0.019047
3039.000000	0.018970
3038.000000	0.018892
3037.000000	0.018809
3036.000000	0.018725
3035.000000	0.018647
3034.000000	0.018582
3033.000000	0.018528
3032.000000	0.018477
3031.000000	0.018425
3030.000000	0.018373
3029.000000	0.018321
3028.000000	0.018264
3027.000000	0.018203
3026.000000	0.018144
3025.000000	0.018096
3024.000000	0.018057
3023.000000	0.018016
3022.000000	0.017964
3021.000000	0.017906
3020.000000	0.017854
3019.000000	0.017816
3018.000000	0.017791
3017.000000	0.017778
3016.000000	0.017781
3015.000000	0.017804
3014.000000	0.017842
3013.000000	0.017888
3012.000000	0.017937
3011.000000	0.017986
3010.000000	0.018031
3009.000000	0.018064
3008.000000	0.018079
3007.000000	0.018078
3006.000000	0.018067
3005.000000	0.018053
3004.000000	0.018038
3003.000000	0.018025
3002.000000	0.018013
3001.000000	0.018005
3000.000000	0.017998
2999.000000	0.017989
2998.000000	0.017977
2997.000000	0.017968
2996.000000	0.017973
2995.000000	0.017998
2994.000000	0.018038
2993.000000	0.018084
2992.000000	0.018133
2991.000000	0.018190
2990.000000	0.018258
2989.000000	0.018336
2988.000000	0.018421
2987.000000	0.018511
2986.000000	0.018601
2985.000000	0.018690
2984.000000	0.018789
2983.000000	0.018908
2982.000000	0.019053
2981.000000	0.019214
2980.000000	0.019378
2979.000000	0.019538
2978.000000	0.019693
2977.000000	0.019849
2976.000000	0.020010
2975.000000	0.020182
2974.000000	0.020368
2973.000000	0.020574
2972.000000	0.020799
2971.000000	0.021044
2970.000000	0.021305
2969.000000	0.021579
2968.000000	0.021868
2967.000000	0.022177
2966.000000	0.022513
2965.000000	0.022873
2964.000000	0.023246
2963.000000	0.023615
2962.000000	0.023964
2961.000000	0.024286
2960.000000	0.024579
2959.000000	0.024844
2958.000000	0.025074
2957.000000	0.025260
2956.000000	0.025398
2955.000000	0.025494
2954.000000	0.025559
2953.000000	0.025606
2952.000000	0.025650
2951.000000	0.025702
2950.000000	0.025765
2949.000000	0.025840
2948.000000	0.025940
2947.000000	0.026092
2946.000000	0.026321
2945.000000	0.026635
2944.000000	0.027017
2943.000000	0.027451
2942.000000	0.027935
2941.000000	0.028475
2940.000000	0.029073
2939.000000	0.029725
2938.000000	0.030426
2937.000000	0.031172
2936.000000	0.031957
2935.000000	0.032772
2934.000000	0.033608
2933.000000	0.034452
2932.000000	0.035291
2931.000000	0.036102
2930.000000	0.036867
2929.000000	0.037579
2928.000000	0.038232
2927.000000	0.038817
2926.000000	0.039306
2925.000000	0.039665
2924.000000	0.039866
2923.000000	0.039892
2922.000000	0.039736
2921.000000	0.039401
2920.000000	0.038900
2919.000000	0.038250
2918.000000	0.037480
2917.000000	0.036625
2916.000000	0.035719
2915.000000	0.034790
2914.000000	0.033859
2913.000000	0.032949
2912.000000	0.032084
2911.000000	0.031282
2910.000000	0.030544
2909.000000	0.029861
2908.000000	0.029229
2907.000000	0.028658
2906.000000	0.028158
2905.000000	0.027721
2904.000000	0.027329
2903.000000	0.026957
2902.000000	0.026595
2901.000000	0.026247
2900.000000	0.025921
2899.000000	0.025616
2898.000000	0.025324
2897.000000	0.025039
2896.000000	0.024755
2895.000000	0.024470
2894.000000	0.024181
2893.000000	0.023894
2892.000000	0.023623
2891.000000	0.023385
2890.000000	0.023181
2889.000000	0.023000
2888.000000	0.022828
2887.000000	0.022657
2886.000000	0.022489
2885.000000	0.022330
2884.000000	0.022191
2883.000000	0.022085
2882.000000	0.022017
2881.000000	0.021986
2880.000000	0.021989
2879.000000	0.022022
2878.000000	0.022081
2877.000000	0.022163
2876.000000	0.022261
2875.000000	0.022368
2874.000000	0.022470
2873.000000	0.022550
2872.000000	0.022595
2871.000000	0.022611
2870.000000	0.022618
2869.000000	0.022636
2868.000000	0.022682
2867.000000	0.022772
2866.000000	0.022927
2865.000000	0.023166
2864.000000	0.023497
2863.000000	0.023914
2862.000000	0.024414
2861.000000	0.025001
2860.000000	0.025670
2859.000000	0.026395
2858.000000	0.027136
2857.000000	0.027848
2856.000000	0.028487
2855.000000	0.028996
2854.000000	0.029316
2853.000000	0.029398
2852.000000	0.029223
2851.000000	0.028792
2850.000000	0.028129
2849.000000	0.027275
2848.000000	0.026292
2847.000000	0.025254
2846.000000	0.024227
2845.000000	0.023257
2844.000000	0.022373
2843.000000	0.021586
2842.000000	0.020894
2841.000000	0.020291
2840.000000	0.019767
2839.000000	0.019318
2838.000000	0.018938
2837.000000	0.018618
2836.000000	0.018347
2835.000000	0.018116
2834.000000	0.017917
2833.000000	0.017745
2832.000000	0.017588
2831.000000	0.017435
2830.000000	0.017278
2829.000000	0.017116
2828.000000	0.016954
2827.000000	0.016803
2826.000000	0.016670
2825.000000	0.016557
2824.000000	0.016461
2823.000000	0.016375
2822.000000	0.016288
2821.000000	0.016198
2820.000000	0.016108
2819.000000	0.016024
2818.000000	0.015953
2817.000000	0.015891
2816.000000	0.015830
2815.000000	0.015760
2814.000000	0.015681
2813.000000	0.015602
2812.000000	0.015531
2811.000000	0.015471
2810.000000	0.015418
2809.000000	0.015369
2808.000000	0.015323
2807.000000	0.015280
2806.000000	0.015235
2805.000000	0.015181
2804.000000	0.015117
2803.000000	0.015047
2802.000000	0.014979
2801.000000	0.014922
2800.000000	0.014881
2799.000000	0.014848
2798.000000	0.014818
2797.000000	0.014784
2796.000000	0.014748
2795.000000	0.014711
2794.000000	0.014674
2793.000000	0.014638
2792.000000	0.014601
2791.000000	0.014561
2790.000000	0.014518
2789.000000	0.014480
2788.000000	0.014451
2787.000000	0.014425
2786.000000	0.014395
2785.000000	0.014355
2784.000000	0.014309
2783.000000	0.014260
2782.000000	0.014211
2781.000000	0.014164
2780.000000	0.014122
2779.000000	0.014085
2778.000000	0.014051
2777.000000	0.014023
2776.000000	0.013997
2775.000000	0.013968
2774.000000	0.013926
2773.000000	0.013876
2772.000000	0.013830
2771.000000	0.013799
2770.000000	0.013782
2769.000000	0.013766
2768.000000	0.013742
2767.000000	0.013706
2766.000000	0.013657
2765.000000	0.013603
2764.000000	0.013549
2763.000000	0.013499
2762.000000	0.013452
2761.000000	0.013410
2760.000000	0.013382
2759.000000	0.013376
2758.000000	0.013383
2757.000000	0.013384
2756.000000	0.013370
2755.000000	0.013348
2754.000000	0.013333
2753.000000	0.013327
2752.000000	0.013318
2751.000000	0.013299
2750.000000	0.013271
2749.000000	0.013240
2748.000000	0.013210
2747.000000	0.013178
2746.000000	0.013147
2745.000000	0.013125
2744.000000	0.013116
2743.000000	0.013112
2742.000000	0.013103
2741.000000	0.013088
2740.000000	0.013068
2739.000000	0.013044
2738.000000	0.013013
2737.000000	0.012975
2736.000000	0.012937
2735.000000	0.012901
2734.000000	0.012868
2733.000000	0.012843
2732.000000	0.012828
2731.000000	0.012820
2730.000000	0.012804
2729.000000	0.012773
2728.000000	0.012729
2727.000000	0.012684
2726.000000	0.012644
2725.000000	0.012609
2724.000000	0.012582
2723.000000	0.012565
2722.000000	0.012559
2721.000000	0.012560
2720.000000	0.012558
2719.000000	0.012548
2718.000000	0.012527
2717.000000	0.012499
2716.000000	0.012473
2715.000000	0.012455
2714.000000	0.012444
2713.000000	0.012434
2712.000000	0.012419
2711.000000	0.012397
2710.000000	0.012370
2709.000000	0.012344
2708.000000	0.012322
2707.000000	0.012302
2706.000000	0.012283
2705.000000	0.012268
2704.000000	0.012257
2703.000000	0.012247
2702.000000	0.012233
2701.000000	0.012216
2700.000000	0.012201
2699.000000	0.012187
2698.000000	0.012170
2697.000000	0.012150
2696.000000	0.012134
2695.000000	0.012125
2694.000000	0.012121
2693.000000	0.012115
2692.000000	0.012109
2691.000000	0.012105
2690.000000	0.012102
2689.000000	0.012094
2688.000000	0.012081
2687.000000	0.012067
2686.000000	0.012053
2685.000000	0.012039
2684.000000	0.012027
2683.000000	0.012021
2682.000000	0.012028
2681.000000	0.012044
2680.000000	0.012058
2679.000000	0.012054
2678.000000	0.012025
2677.000000	0.011980
2676.000000	0.011941
2675.000000	0.011926
2674.000000	0.011937
2673.000000	0.011958
2672.000000	0.011972
2671.000000	0.011968
2670.000000	0.011949
2669.000000	0.011924
2668.000000	0.011899
2667.000000	0.011878
2666.000000	0.011863
2665.000000	0.011853
2664.000000	0.011846
2663.000000	0.011837
2662.000000	0.011823
2661.000000	0.011805
2660.000000	0.011785
2659.000000	0.011759
2658.000000	0.011724
2657.000000	0.011682
2656.000000	0.011640
2655.000000	0.011603
2654.000000	0.011570
2653.000000	0.011535
2652.000000	0.011501
2651.000000	0.011470
2650.000000	0.011447
2649.000000	0.011427
2648.000000	0.011405
2647.000000	0.011380
2646.000000	0.011356
2645.000000	0.011336
2644.000000	0.011316
2643.000000	0.011287
2642.000000	0.011243
2641.000000	0.011190
2640.000000	0.011138
2639.000000	0.011101
2638.000000	0.011082
2637.000000	0.011079
2636.000000	0.011080
2635.000000	0.011069
2634.000000	0.011038
2633.000000	0.010986
2632.000000	0.010923
2631.000000	0.010861
2630.000000	0.010811
2629.000000	0.010779
2628.000000	0.010762
2627.000000	0.010753
2626.000000	0.010744
2625.000000	0.010731
2624.000000	0.010712
2623.000000	0.010687
2622.000000	0.010657
2621.000000	0.010626
2620.000000	0.010594
2619.000000	0.010556
2618.000000	0.010510
2617.000000	0.010462
2616.000000	0.010421
2615.000000	0.010388
2614.000000	0.010359
2613.000000	0.010328
2612.000000	0.010295
2611.000000	0.010263
2610.000000	0.010231
2609.000000	0.010204
2608.000000	0.010185
2607.000000	0.010173
2606.000000	0.010163
2605.000000	0.010152
2604.000000	0.010142
2603.000000	0.010137
2602.000000	0.010142
2601.000000	0.010153
2600.000000	0.010157
2599.000000	0.010140
2598.000000	0.010098
2597.000000	0.010046
2596.000000	0.010007
2595.000000	0.009994
2594.000000	0.009998
2593.000000	0.010001
2592.000000	0.009989
2591.000000	0.009962
2590.000000	0.009930
2589.000000	0.009903
2588.000000	0.009881
2587.000000	0.009862
2586.000000	0.009854
2585.000000	0.009865
2584.000000	0.009886
2583.000000	0.009891
2582.000000	0.009866
2581.000000	0.009823
2580.000000	0.009787
2579.000000	0.009768
2578.000000	0.009756
2577.000000	0.009743
2576.000000	0.009730
2575.000000	0.009717
2574.000000	0.009696
2573.000000	0.009662
2572.000000	0.009618
2571.000000	0.009582
2570.000000	0.009570
2569.000000	0.009581
2568.000000	0.009595
2567.000000	0.009585
2566.000000	0.009548
2565.000000	0.009500
2564.000000	0.009464
2563.000000	0.009445
2562.000000	0.009439
2561.000000	0.009442
2560.000000	0.009451
2559.000000	0.009467
2558.000000	0.009485
2557.000000	0.009492
2556.000000	0.009480
2555.000000	0.009446
2554.000000	0.009402
2553.000000	0.009365
2552.000000	0.009342
2551.000000	0.009333
2550.000000	0.009339
2549.000000	0.009366
2548.000000	0.009402
2547.000000	0.009417
2546.000000	0.009400
2545.000000	0.009369
2544.000000	0.009356
2543.000000	0.009374
2542.000000	0.009403
2541.000000	0.009417
2540.000000	0.009399
2539.000000	0.009349
2538.000000	0.009283
2537.000000	0.009228
2536.000000	0.009207
2535.000000	0.009227
2534.000000	0.009270
2533.000000	0.009313
2532.000000	0.009340
2531.000000	0.009343
2530.000000	0.009329
2529.000000	0.009314
2528.000000	0.009320
2527.000000	0.009350
2526.000000	0.009386
2525.000000	0.009398
2524.000000	0.009372
2523.000000	0.009322
2522.000000	0.009276
2521.000000	0.009252
2520.000000	0.009242
2519.000000	0.009222
2518.000000	0.009186
2517.000000	0.009150
2516.000000	0.009128
2515.000000	0.009116
2514.000000	0.009100
2513.000000	0.009077
2512.000000	0.009057
2511.000000	0.009051
2510.000000	0.009055
2509.000000	0.009054
2508.000000	0.009032
2507.000000	0.008990
2506.000000	0.008950
2505.000000	0.008937
2504.000000	0.008956
2503.000000	0.008989
2502.000000	0.009019
2501.000000	0.009042
2500.000000	0.009062
2499.000000	0.009075
2498.000000	0.009072
2497.000000	0.009053
2496.000000	0.009028
2495.000000	0.009004
2494.000000	0.008983
2493.000000	0.008966
2492.000000	0.008948
2491.000000	0.008922
2490.000000	0.008890
2489.000000	0.008866
2488.000000	0.008865
2487.000000	0.008887
2486.000000	0.008911
2485.000000	0.008917
2484.000000	0.008890
2483.000000	0.008838
2482.000000	0.008783
2481.000000	0.008756
2480.000000	0.008768
2479.000000	0.008811
2478.000000	0.008858
2477.000000	0.008888
2476.000000	0.008886
2475.000000	0.008848
2474.000000	0.008784
2473.000000	0.008724
2472.000000	0.008692
2471.000000	0.008690
2470.000000	0.008700
2469.000000	0.008706
2468.000000	0.008707
2467.000000	0.008714
2466.000000	0.008731
2465.000000	0.008756
2464.000000	0.008774
2463.000000	0.008769
2462.000000	0.008743
2461.000000	0.008712
2460.000000	0.008695
2459.000000	0.008698
2458.000000	0.008710
2457.000000	0.008718
2456.000000	0.008714
2455.000000	0.008700
2454.000000	0.008689
2453.000000	0.008688
2452.000000	0.008695
2451.000000	0.008698
2450.000000	0.008695
2449.000000	0.008691
2448.000000	0.008686
2447.000000	0.008672
2446.000000	0.008648
2445.000000	0.008628
2444.000000	0.008628
2443.000000	0.008648
2442.000000	0.008671
2441.000000	0.008678
2440.000000	0.008660
2439.000000	0.008619
2438.000000	0.008575
2437.000000	0.008553
2436.000000	0.008564
2435.000000	0.008588
2434.000000	0.008598
2433.000000	0.008586
2432.000000	0.008563
2431.000000	0.008538
2430.000000	0.008520
2429.000000	0.008509
2428.000000	0.008508
2427.000000	0.008511
2426.000000	0.008511
2425.000000	0.008501
2424.000000	0.008484
2423.000000	0.008473
2422.000000	0.008484
2421.000000	0.008514
2420.000000	0.008543
2419.000000	0.008554
2418.000000	0.008547
2417.000000	0.008539
2416.000000	0.008539
2415.000000	0.008547
2414.000000	0.008564
2413.000000	0.008589
2412.000000	0.008609
2411.000000	0.008610
2410.000000	0.008592
2409.000000	0.008566
2408.000000	0.008533
2407.000000	0.008487
2406.000000	0.008432
2405.000000	0.008392
2404.000000	0.008386
2403.000000	0.008405
2402.000000	0.008429
2401.000000	0.008448
2400.000000	0.008465
2399.000000	0.008476
2398.000000	0.008481
2397.000000	0.008485
2396.000000	0.008499
2395.000000	0.008525
2394.000000	0.008555
2393.000000	0.008577
2392.000000	0.008580
2391.000000	0.008562
2390.000000	0.008531
2389.000000	0.008504
2388.000000	0.008489
2387.000000	0.008488
2386.000000	0.008499
2385.000000	0.008520
2384.000000	0.008538
2383.000000	0.008539
2382.000000	0.008520
2381.000000	0.008493
2380.000000	0.008471
2379.000000	0.008463
2378.000000	0.008467
2377.000000	0.008475
2376.000000	0.008471
2375.000000	0.008438
2374.000000	0.008381
2373.000000	0.008325
2372.000000	0.008288
2371.000000	0.008270
2370.000000	0.008266
2369.000000	0.008277
2368.000000	0.008312
2367.000000	0.008374
2366.000000	0.008445
2365.000000	0.008488
2364.000000	0.008471
2363.000000	0.008424
2362.000000	0.008412
2361.000000	0.008462
2360.000000	0.008539
2359.000000	0.008576
2358.000000	0.008549
2357.000000	0.008489
2356.000000	0.008447
2355.000000	0.008464
2354.000000	0.008511
2353.000000	0.008525
2352.000000	0.008486
2351.000000	0.008441
2350.000000	0.008439
2349.000000	0.008485
2348.000000	0.008543
2347.000000	0.008551
2346.000000	0.008489
2345.000000	0.008412
2344.000000	0.008384
2343.000000	0.008416
2342.000000	0.008471
2341.000000	0.008518
2340.000000	0.008554
2339.000000	0.008580
2338.000000	0.008597
2337.000000	0.008616
2336.000000	0.008637
2335.000000	0.008639
2334.000000	0.008594
2333.000000	0.008513
2332.000000	0.008448
2331.000000	0.008441
2330.000000	0.008492
2329.000000	0.008567
2328.000000	0.008658
2327.000000	0.008765
2326.000000	0.008881
2325.000000	0.008980
2324.000000	0.009022
2323.000000	0.008997
2322.000000	0.008927
2321.000000	0.008867
2320.000000	0.008850
2319.000000	0.008873
2318.000000	0.008911
2317.000000	0.008937
2316.000000	0.008917
2315.000000	0.008833
2314.000000	0.008711
2313.000000	0.008616
2312.000000	0.008587
2311.000000	0.008597
2310.000000	0.008600
2309.000000	0.008583
2308.000000	0.008562
2307.000000	0.008550
2306.000000	0.008544
2305.000000	0.008546
2304.000000	0.008550
2303.000000	0.008542
2302.000000	0.008512
2301.000000	0.008469
2300.000000	0.008433
2299.000000	0.008409
2298.000000	0.008395
2297.000000	0.008390
2296.000000	0.008394
2295.000000	0.008398
2294.000000	0.008397
2293.000000	0.008393
2292.000000	0.008387
2291.000000	0.008372
2290.000000	0.008352
2289.000000	0.008349
2288.000000	0.008375
2287.000000	0.008415
2286.000000	0.008443
2285.000000	0.008442
2284.000000	0.008400
2283.000000	0.008321
2282.000000	0.008234
2281.000000	0.008182
2280.000000	0.008179
2279.000000	0.008192
2278.000000	0.008190
2277.000000	0.008180
2276.000000	0.008172
2275.000000	0.008145
2274.000000	0.008088
2273.000000	0.008036
2272.000000	0.008023
2271.000000	0.008036
2270.000000	0.008038
2269.000000	0.008032
2268.000000	0.008044
2267.000000	0.008078
2266.000000	0.008108
2265.000000	0.008127
2264.000000	0.008153
2263.000000	0.008186
2262.000000	0.008203
2261.000000	0.008182
2260.000000	0.008127
2259.000000	0.008058
2258.000000	0.008000
2257.000000	0.007970
2256.000000	0.007960
2255.000000	0.007941
2254.000000	0.007894
2253.000000	0.007831
2252.000000	0.007773
2251.000000	0.007722
2250.000000	0.007686
2249.000000	0.007680
2248.000000	0.007696
2247.000000	0.007705
2246.000000	0.007709
2245.000000	0.007743
2244.000000	0.007809
2243.000000	0.007847
2242.000000	0.007810
2241.000000	0.007735
2240.000000	0.007686
2239.000000	0.007669
2238.000000	0.007648
2237.000000	0.007615
2236.000000	0.007595
2235.000000	0.007599
2234.000000	0.007618
2233.000000	0.007660
2232.000000	0.007730
2231.000000	0.007803
2230.000000	0.007832
2229.000000	0.007803
2228.000000	0.007742
2227.000000	0.007680
2226.000000	0.007640
2225.000000	0.007629
2224.000000	0.007629
2223.000000	0.007609
2222.000000	0.007578
2221.000000	0.007595
2220.000000	0.007685
2219.000000	0.007796
2218.000000	0.007864
2217.000000	0.007871
2216.000000	0.007827
2215.000000	0.007719
2214.000000	0.007554
2213.000000	0.007393
2212.000000	0.007311
2211.000000	0.007315
2210.000000	0.007364
2209.000000	0.007423
2208.000000	0.007467
2207.000000	0.007470
2206.000000	0.007423
2205.000000	0.007364
2204.000000	0.007336
2203.000000	0.007351
2202.000000	0.007415
2201.000000	0.007542
2200.000000	0.007707
2199.000000	0.007829
2198.000000	0.007851
2197.000000	0.007805
2196.000000	0.007761
2195.000000	0.007736
2194.000000	0.007695
2193.000000	0.007609
2192.000000	0.007487
2191.000000	0.007374
2190.000000	0.007335
2189.000000	0.007398
2188.000000	0.007493
2187.000000	0.007510
2186.000000	0.007443
2185.000000	0.007401
2184.000000	0.007456
2183.000000	0.007533
2182.000000	0.007533
2181.000000	0.007468
2180.000000	0.007411
2179.000000	0.007385
2178.000000	0.007366
2177.000000	0.007341
2176.000000	0.007282
2175.000000	0.007132
2174.000000	0.006892
2173.000000	0.006669
2172.000000	0.006575
2171.000000	0.006619
2170.000000	0.006749
2169.000000	0.006928
2168.000000	0.007120
2167.000000	0.007267
2166.000000	0.007331
2165.000000	0.007326
2164.000000	0.007253
2163.000000	0.007084
2162.000000	0.006849
2161.000000	0.006664
2160.000000	0.006573
2159.000000	0.006463
2158.000000	0.006249
2157.000000	0.006030
2156.000000	0.005942
2155.000000	0.006012
2154.000000	0.006219
2153.000000	0.006555
2152.000000	0.006945
2151.000000	0.007236
2150.000000	0.007343
2149.000000	0.007323
2148.000000	0.007267
2147.000000	0.007186
2146.000000	0.007061
2145.000000	0.006929
2144.000000	0.006841
2143.000000	0.006801
2142.000000	0.006806
2141.000000	0.006873
2140.000000	0.006983
2139.000000	0.007048
2138.000000	0.006997
2137.000000	0.006865
2136.000000	0.006738
2135.000000	0.006670
2134.000000	0.006673
2133.000000	0.006756
2132.000000	0.006899
2131.000000	0.007044
2130.000000	0.007137
2129.000000	0.007168
2128.000000	0.007156
2127.000000	0.007120
2126.000000	0.007093
2125.000000	0.007107
2124.000000	0.007161
2123.000000	0.007209
2122.000000	0.007228
2121.000000	0.007243
2120.000000	0.007291
2119.000000	0.007370
2118.000000	0.007461
2117.000000	0.007554
2116.000000	0.007637
2115.000000	0.007687
2114.000000	0.007693
2113.000000	0.007676
2112.000000	0.007656
2111.000000	0.007645
2110.000000	0.007663
2109.000000	0.007734
2108.000000	0.007822
2107.000000	0.007842
2106.000000	0.007754
2105.000000	0.007627
2104.000000	0.007556
2103.000000	0.007561
2102.000000	0.007590
2101.000000	0.007597
2100.000000	0.007564
2099.000000	0.007490
2098.000000	0.007395
2097.000000	0.007322
2096.000000	0.007291
2095.000000	0.007266
2094.000000	0.007210
2093.000000	0.007147
2092.000000	0.007128
2091.000000	0.007173
2090.000000	0.007260
2089.000000	0.007356
2088.000000	0.007436
2087.000000	0.007485
2086.000000	0.007516
2085.000000	0.007552
2084.000000	0.007591
2083.000000	0.007601
2082.000000	0.007570
2081.000000	0.007537
2080.000000	0.007539
2079.000000	0.007561
2078.000000	0.007551
2077.000000	0.007476
2076.000000	0.007330
2075.000000	0.007135
2074.000000	0.006946
2073.000000	0.006838
2072.000000	0.006843
2071.000000	0.006925
2070.000000	0.007018
2069.000000	0.007072
2068.000000	0.007070
2067.000000	0.007030
2066.000000	0.007011
2065.000000	0.007053
2064.000000	0.007110
2063.000000	0.007106
2062.000000	0.007048
2061.000000	0.007020
2060.000000	0.007056
2059.000000	0.007104
2058.000000	0.007113
2057.000000	0.007084
2056.000000	0.007018
2055.000000	0.006910
2054.000000	0.006822
2053.000000	0.006854
2052.000000	0.006987
2051.000000	0.007064
2050.000000	0.006987
2049.000000	0.006855
2048.000000	0.006823
2047.000000	0.006884
2046.000000	0.006926
2045.000000	0.006911
2044.000000	0.006874
2043.000000	0.006817
2042.000000	0.006729
2041.000000	0.006670
2040.000000	0.006697
2039.000000	0.006760
2038.000000	0.006748
2037.000000	0.006617
2036.000000	0.006415
2035.000000	0.006222
2034.000000	0.006116
2033.000000	0.006115
2032.000000	0.006105
2031.000000	0.005943
2030.000000	0.005671
2029.000000	0.005514
2028.000000	0.005603
2027.000000	0.005828
2026.000000	0.006044
2025.000000	0.006254
2024.000000	0.006503
2023.000000	0.006715
2022.000000	0.006750
2021.000000	0.006566
2020.000000	0.006247
2019.000000	0.005925
2018.000000	0.005725
2017.000000	0.005689
2016.000000	0.005721
2015.000000	0.005705
2014.000000	0.005684
2013.000000	0.005799
2012.000000	0.006045
2011.000000	0.006246
2010.000000	0.006292
2009.000000	0.006264
2008.000000	0.006253
2007.000000	0.006225
2006.000000	0.006134
2005.000000	0.006020
2004.000000	0.005916
2003.000000	0.005799
2002.000000	0.005687
2001.000000	0.005644
2000.000000	0.005658
1999.000000	0.005642
1998.000000	0.005600
1997.000000	0.005641
1996.000000	0.005781
1995.000000	0.005886
1994.000000	0.005884
1993.000000	0.005878
1992.000000	0.005972
1991.000000	0.006081
1990.000000	0.006061
1989.000000	0.005920
1988.000000	0.005783
1987.000000	0.005728
1986.000000	0.005774
1985.000000	0.005920
1984.000000	0.006124
1983.000000	0.006289
1982.000000	0.006365
1981.000000	0.006395
1980.000000	0.006405
1979.000000	0.006349
1978.000000	0.006212
1977.000000	0.006075
1976.000000	0.005976
1975.000000	0.005851
1974.000000	0.005687
1973.000000	0.005583
1972.000000	0.005593
1971.000000	0.005634
1970.000000	0.005650
1969.000000	0.005707
1968.000000	0.005859
1967.000000	0.006038
1966.000000	0.006147
1965.000000	0.006170
1964.000000	0.006137
1963.000000	0.006072
1962.000000	0.006032
1961.000000	0.006075
1960.000000	0.006155
1959.000000	0.006150
1958.000000	0.006034
1957.000000	0.005905
1956.000000	0.005834
1955.000000	0.005799
1954.000000	0.005787
1953.000000	0.005833
1952.000000	0.005922
1951.000000	0.005964
1950.000000	0.005912
1949.000000	0.005836
1948.000000	0.005807
1947.000000	0.005806
1946.000000	0.005790
1945.000000	0.005761
1944.000000	0.005736
1943.000000	0.005727
1942.000000	0.005785
1941.000000	0.005951
1940.000000	0.006154
1939.000000	0.006260
1938.000000	0.006215
1937.000000	0.006097
1936.000000	0.005990
1935.000000	0.005906
1934.000000	0.005842
1933.000000	0.005832
1932.000000	0.005887
1931.000000	0.005956
1930.000000	0.005997
1929.000000	0.006022
1928.000000	0.006033
1927.000000	0.006011
1926.000000	0.005978
1925.000000	0.006010
1924.000000	0.006123
1923.000000	0.006204
1922.000000	0.006175
1921.000000	0.006102
1920.000000	0.006089
1919.000000	0.006136
1918.000000	0.006163
1917.000000	0.006152
1916.000000	0.006150
1915.000000	0.006175
1914.000000	0.006197
1913.000000	0.006186
1912.000000	0.006145
1911.000000	0.006085
1910.000000	0.006018
1909.000000	0.005961
1908.000000	0.005928
1907.000000	0.005926
1906.000000	0.005961
1905.000000	0.006029
1904.000000	0.006106
1903.000000	0.006154
1902.000000	0.006182
1901.000000	0.006227
1900.000000	0.006279
1899.000000	0.006281
1898.000000	0.006214
1897.000000	0.006132
1896.000000	0.006097
1895.000000	0.006103
1894.000000	0.006112
1893.000000	0.006105
1892.000000	0.006080
1891.000000	0.006033
1890.000000	0.005980
1889.000000	0.005960
1888.000000	0.005979
1887.000000	0.006004
1886.000000	0.006024
1885.000000	0.006056
1884.000000	0.006094
1883.000000	0.006100
1882.000000	0.006070
1881.000000	0.006044
1880.000000	0.006049
1879.000000	0.006078
1878.000000	0.006123
1877.000000	0.006177
1876.000000	0.006220
1875.000000	0.006214
1874.000000	0.006143
1873.000000	0.006028
1872.000000	0.005902
1871.000000	0.005786
1870.000000	0.005701
1869.000000	0.005674
1868.000000	0.005700
1867.000000	0.005740
1866.000000	0.005781
1865.000000	0.005845
1864.000000	0.005921
1863.000000	0.005976
1862.000000	0.006007
1861.000000	0.006046
1860.000000	0.006088
1859.000000	0.006100
1858.000000	0.006085
1857.000000	0.006080
1856.000000	0.006086
1855.000000	0.006067
1854.000000	0.006024
1853.000000	0.006002
1852.000000	0.005995
1851.000000	0.005956
1850.000000	0.005879
1849.000000	0.005786
1848.000000	0.005705
1847.000000	0.005656
1846.000000	0.005683
1845.000000	0.005788
1844.000000	0.005872
1843.000000	0.005833
1842.000000	0.005741
1841.000000	0.005748
1840.000000	0.005865
1839.000000	0.005973
1838.000000	0.005986
1837.000000	0.005959
1836.000000	0.005975
1835.000000	0.006005
1834.000000	0.005983
1833.000000	0.005912
1832.000000	0.005834
1831.000000	0.005763
1830.000000	0.005690
1829.000000	0.005626
1828.000000	0.005603
1827.000000	0.005634
1826.000000	0.005703
1825.000000	0.005762
1824.000000	0.005777
1823.000000	0.005770
1822.000000	0.005790
1821.000000	0.005845
1820.000000	0.005884
1819.000000	0.005869
1818.000000	0.005833
1817.000000	0.005840
1816.000000	0.005893
1815.000000	0.005922
1814.000000	0.005896
1813.000000	0.005844
1812.000000	0.005797
1811.000000	0.005758
1810.000000	0.005722
1809.000000	0.005722
1808.000000	0.005770
1807.000000	0.005829
1806.000000	0.005866
1805.000000	0.005885
1804.000000	0.005884
1803.000000	0.005842
1802.000000	0.005773
1801.000000	0.005724
1800.000000	0.005722
1799.000000	0.005744
1798.000000	0.005756
1797.000000	0.005765
1796.000000	0.005775
1795.000000	0.005782
1794.000000	0.005798
1793.000000	0.005822
1792.000000	0.005813
1791.000000	0.005758
1790.000000	0.005710
1789.000000	0.005733
1788.000000	0.005810
1787.000000	0.005869
1786.000000	0.005869
1785.000000	0.005842
1784.000000	0.005814
1783.000000	0.005779
1782.000000	0.005766
1781.000000	0.005790
1780.000000	0.005817
1779.000000	0.005812
1778.000000	0.005785
1777.000000	0.005769
1776.000000	0.005736
1775.000000	0.005666
1774.000000	0.005613
1773.000000	0.005623
1772.000000	0.005641
1771.000000	0.005623
1770.000000	0.005633
1769.000000	0.005776
1768.000000	0.006033
1767.000000	0.006249
1766.000000	0.006353
1765.000000	0.006444
1764.000000	0.006637
1763.000000	0.006923
1762.000000	0.007223
1761.000000	0.007506
1760.000000	0.007820
1759.000000	0.008241
1758.000000	0.008843
1757.000000	0.009619
1756.000000	0.010398
1755.000000	0.011042
1754.000000	0.011630
1753.000000	0.012330
1752.000000	0.013158
1751.000000	0.013933
1750.000000	0.014523
1749.000000	0.015028
1748.000000	0.015524
1747.000000	0.015916
1746.000000	0.016134
1745.000000	0.016184
1744.000000	0.016072
1743.000000	0.015802
1742.000000	0.015429
1741.000000	0.015027
1740.000000	0.014548
1739.000000	0.013878
1738.000000	0.013095
1737.000000	0.012431
1736.000000	0.011977
1735.000000	0.011536
1734.000000	0.010856
1733.000000	0.010059
1732.000000	0.009479
1731.000000	0.009217
1730.000000	0.009151
1729.000000	0.009138
1728.000000	0.009083
1727.000000	0.008957
1726.000000	0.008794
1725.000000	0.008628
1724.000000	0.008479
1723.000000	0.008317
1722.000000	0.008123
1721.000000	0.007958
1720.000000	0.007855
1719.000000	0.007732
1718.000000	0.007478
1717.000000	0.007208
1716.000000	0.007154
1715.000000	0.007340
1714.000000	0.007648
1713.000000	0.007983
1712.000000	0.008303
1711.000000	0.008593
1710.000000	0.008865
1709.000000	0.009142
1708.000000	0.009441
1707.000000	0.009789
1706.000000	0.010186
1705.000000	0.010573
1704.000000	0.010888
1703.000000	0.011244
1702.000000	0.011922
1701.000000	0.013017
1700.000000	0.013922
1699.000000	0.014086
1698.000000	0.014053
1697.000000	0.014595
1696.000000	0.015769
1695.000000	0.016939
1694.000000	0.017661
1693.000000	0.018209
1692.000000	0.018863
1691.000000	0.019576
1690.000000	0.020229
1689.000000	0.020782
1688.000000	0.021230
1687.000000	0.021635
1686.000000	0.022181
1685.000000	0.023068
1684.000000	0.024143
1683.000000	0.024997
1682.000000	0.025654
1681.000000	0.026430
1680.000000	0.027369
1679.000000	0.028278
1678.000000	0.029113
1677.000000	0.030073
1676.000000	0.031275
1675.000000	0.032436
1674.000000	0.033231
1673.000000	0.033809
1672.000000	0.034539
1671.000000	0.035555
1670.000000	0.036769
1669.000000	0.038030
1668.000000	0.039165
1667.000000	0.040098
1666.000000	0.040932
1665.000000	0.041857
1664.000000	0.042978
1663.000000	0.044158
1662.000000	0.045200
1661.000000	0.046093
1660.000000	0.046941
1659.000000	0.047755
1658.000000	0.048441
1657.000000	0.048924
1656.000000	0.049306
1655.000000	0.049851
1654.000000	0.050857
1653.000000	0.052153
1652.000000	0.052917
1651.000000	0.052998
1650.000000	0.053069
1649.000000	0.053435
1648.000000	0.054055
1647.000000	0.054811
1646.000000	0.055519
1645.000000	0.056074
1644.000000	0.056515
1643.000000	0.056912
1642.000000	0.057281
1641.000000	0.057607
1640.000000	0.057832
1639.000000	0.057936
1638.000000	0.058011
1637.000000	0.058270
1636.000000	0.058790
1635.000000	0.059290
1634.000000	0.059445
1633.000000	0.059364
1632.000000	0.059302
1631.000000	0.059270
1630.000000	0.059185
1629.000000	0.058995
1628.000000	0.058677
1627.000000	0.058213
1626.000000	0.057636
1625.000000	0.057001
1624.000000	0.056303
1623.000000	0.055479
1622.000000	0.054546
1621.000000	0.053604
1620.000000	0.052719
1619.000000	0.051860
1618.000000	0.050899
1617.000000	0.049734
1616.000000	0.048460
1615.000000	0.047291
1614.000000	0.046318
1613.000000	0.045459
1612.000000	0.044573
1611.000000	0.043588
1610.000000	0.042553
1609.000000	0.041553
1608.000000	0.040615
1607.000000	0.039732
1606.000000	0.038909
1605.000000	0.038132
1604.000000	0.037374
1603.000000	0.036653
1602.000000	0.035995
1601.000000	0.035408
1600.000000	0.034883
1599.000000	0.034415
1598.000000	0.033993
1597.000000	0.033588
1596.000000	0.033195
1595.000000	0.032857
1594.000000	0.032613
1593.000000	0.032445
1592.000000	0.032309
1591.000000	0.032199
1590.000000	0.032140
1589.000000	0.032133
1588.000000	0.032169
1587.000000	0.032250
1586.000000	0.032384
1585.000000	0.032550
1584.000000	0.032717
1583.000000	0.032915
1582.000000	0.033175
1581.000000	0.033435
1580.000000	0.033612
1579.000000	0.033744
1578.000000	0.033964
1577.000000	0.034366
1576.000000	0.034882
1575.000000	0.035338
1574.000000	0.035696
1573.000000	0.036062
1572.000000	0.036519
1571.000000	0.037098
1570.000000	0.037750
1569.000000	0.038358
1568.000000	0.038858
1567.000000	0.039352
1566.000000	0.039966
1565.000000	0.040644
1564.000000	0.041189
1563.000000	0.041519
1562.000000	0.041771
1561.000000	0.042203
1560.000000	0.042964
1559.000000	0.043914
1558.000000	0.044766
1557.000000	0.045324
1556.000000	0.045800
1555.000000	0.046456
1554.000000	0.047168
1553.000000	0.047742
1552.000000	0.048169
1551.000000	0.048615
1550.000000	0.049112
1549.000000	0.049573
1548.000000	0.049919
1547.000000	0.050170
1546.000000	0.050365
1545.000000	0.050465
1544.000000	0.050464
1543.000000	0.050452
1542.000000	0.050512
1541.000000	0.050662
1540.000000	0.050923
1539.000000	0.051184
1538.000000	0.051237
1537.000000	0.051158
1536.000000	0.051133
1535.000000	0.051150
1534.000000	0.051109
1533.000000	0.050931
1532.000000	0.050677
1531.000000	0.050426
1530.000000	0.050177
1529.000000	0.049897
1528.000000	0.049557
1527.000000	0.049167
1526.000000	0.048762
1525.000000	0.048348
1524.000000	0.047930
1523.000000	0.047523
1522.000000	0.047111
1521.000000	0.046690
1520.000000	0.046283
1519.000000	0.045926
1518.000000	0.045629
1517.000000	0.045331
1516.000000	0.044990
1515.000000	0.044609
1514.000000	0.044203
1513.000000	0.043746
1512.000000	0.043148
1511.000000	0.042365
1510.000000	0.041454
1509.000000	0.040521
1508.000000	0.039572
1507.000000	0.038670
1506.000000	0.038052
1505.000000	0.037592
1504.000000	0.037080
1503.000000	0.036585
1502.000000	0.036071
1501.000000	0.035491
1500.000000	0.034836
1499.000000	0.034117
1498.000000	0.033348
1497.000000	0.032581
1496.000000	0.031878
1495.000000	0.031218
1494.000000	0.030593
1493.000000	0.030034
1492.000000	0.029485
1491.000000	0.028808
1490.000000	0.027998
1489.000000	0.027315
1488.000000	0.026945
1487.000000	0.026766
1486.000000	0.026625
1485.000000	0.026521
1484.000000	0.026465
1483.000000	0.026442
1482.000000	0.026431
1481.000000	0.026444
1480.000000	0.026500
1479.000000	0.026595
1478.000000	0.026727
1477.000000	0.026896
1476.000000	0.027093
1475.000000	0.027343
1474.000000	0.027788
1473.000000	0.028580
1472.000000	0.029629
1471.000000	0.030646
1470.000000	0.031504
1469.000000	0.032283
1468.000000	0.033024
1467.000000	0.033692
1466.000000	0.034299
1465.000000	0.034878
1464.000000	0.035375
1463.000000	0.035717
1462.000000	0.035945
1461.000000	0.036160
1460.000000	0.036398
1459.000000	0.036674
1458.000000	0.037097
1457.000000	0.037767
1456.000000	0.038434
1455.000000	0.038833
1454.000000	0.039113
1453.000000	0.039417
1452.000000	0.039685
1451.000000	0.039836
1450.000000	0.039881
1449.000000	0.039905
1448.000000	0.039922
1447.000000	0.039885
1446.000000	0.039808
1445.000000	0.039731
1444.000000	0.039655
1443.000000	0.039557
1442.000000	0.039394
1441.000000	0.039157
1440.000000	0.038863
1439.000000	0.038551
1438.000000	0.038227
1437.000000	0.037857
1436.000000	0.037415
1435.000000	0.036940
1434.000000	0.036517
1433.000000	0.036183
1432.000000	0.035892
1431.000000	0.035581
1430.000000	0.035253
1429.000000	0.034971
1428.000000	0.034748
1427.000000	0.034536
1426.000000	0.034333
1425.000000	0.034159
1424.000000	0.034010
1423.000000	0.033882
1422.000000	0.033785
1421.000000	0.033758
1420.000000	0.033783
1419.000000	0.033761
1418.000000	0.033681
1417.000000	0.033669
1416.000000	0.033783
1415.000000	0.033941
1414.000000	0.034035
1413.000000	0.034047
1412.000000	0.034048
1411.000000	0.034092
1410.000000	0.034167
1409.000000	0.034251
1408.000000	0.034341
1407.000000	0.034415
1406.000000	0.034479
1405.000000	0.034572
1404.000000	0.034697
1403.000000	0.034800
1402.000000	0.034835
1401.000000	0.034821
1400.000000	0.034755
1399.000000	0.034604
1398.000000	0.034386
1397.000000	0.034191
1396.000000	0.034078
1395.000000	0.034018
1394.000000	0.033954
1393.000000	0.033863
1392.000000	0.033756
1391.000000	0.033636
1390.000000	0.033481
1389.000000	0.033283
1388.000000	0.033063
1387.000000	0.032851
1386.000000	0.032685
1385.000000	0.032584
1384.000000	0.032521
1383.000000	0.032443
1382.000000	0.032311
1381.000000	0.032148
1380.000000	0.031983
1379.000000	0.031787
1378.000000	0.031516
1377.000000	0.031172
1376.000000	0.030785
1375.000000	0.030376
1374.000000	0.029990
1373.000000	0.029675
1372.000000	0.029420
1371.000000	0.029165
1370.000000	0.028874
1369.000000	0.028543
1368.000000	0.028186
1367.000000	0.027810
1366.000000	0.027404
1365.000000	0.026968
1364.000000	0.026513
1363.000000	0.026081
1362.000000	0.025748
1361.000000	0.025561
1360.000000	0.025482
1359.000000	0.025442
1358.000000	0.025402
1357.000000	0.025364
1356.000000	0.025342
1355.000000	0.025341
1354.000000	0.025365
1353.000000	0.025430
1352.000000	0.025549
1351.000000	0.025705
1350.000000	0.025879
1349.000000	0.026074
1348.000000	0.026291
1347.000000	0.026525
1346.000000	0.026767
1345.000000	0.027018
1344.000000	0.027263
1343.000000	0.027458
1342.000000	0.027568
1341.000000	0.027611
1340.000000	0.027654
1339.000000	0.027759
1338.000000	0.027935
1337.000000	0.028135
1336.000000	0.028289
1335.000000	0.028349
1334.000000	0.028307
1333.000000	0.028194
1332.000000	0.028035
1331.000000	0.027831
1330.000000	0.027597
1329.000000	0.027371
1328.000000	0.027184
1327.000000	0.027026
1326.000000	0.026878
1325.000000	0.026745
1324.000000	0.026634
1323.000000	0.026535
1322.000000	0.026436
1321.000000	0.026344
1320.000000	0.026275
1319.000000	0.026223
1318.000000	0.026178
1317.000000	0.026141
1316.000000	0.026105
1315.000000	0.026040
1314.000000	0.025929
1313.000000	0.025789
1312.000000	0.025648
1311.000000	0.025514
1310.000000	0.025381
1309.000000	0.025252
1308.000000	0.025129
1307.000000	0.024996
1306.000000	0.024842
1305.000000	0.024686
1304.000000	0.024546
1303.000000	0.024414
1302.000000	0.024273
1301.000000	0.024132
1300.000000	0.024009
1299.000000	0.023903
1298.000000	0.023805
1297.000000	0.023719
1296.000000	0.023663
1295.000000	0.023647
1294.000000	0.023679
1293.000000	0.023764
1292.000000	0.023897
1291.000000	0.024048
1290.000000	0.024203
1289.000000	0.024372
1288.000000	0.024568
1287.000000	0.024777
1286.000000	0.024983
1285.000000	0.025190
1284.000000	0.025393
1283.000000	0.025565
1282.000000	0.025689
1281.000000	0.025780
1280.000000	0.025855
1279.000000	0.025906
1278.000000	0.025918
1277.000000	0.025909
1276.000000	0.025900
1275.000000	0.025884
1274.000000	0.025849
1273.000000	0.025811
1272.000000	0.025794
1271.000000	0.025808
1270.000000	0.025854
1269.000000	0.025948
1268.000000	0.026089
1267.000000	0.026246
1266.000000	0.026387
1265.000000	0.026515
1264.000000	0.026646
1263.000000	0.026780
1262.000000	0.026917
1261.000000	0.027079
1260.000000	0.027282
1259.000000	0.027516
1258.000000	0.027758
1257.000000	0.028007
1256.000000	0.028260
1255.000000	0.028508
1254.000000	0.028753
1253.000000	0.029024
1252.000000	0.029340
1251.000000	0.029685
1250.000000	0.030045
1249.000000	0.030424
1248.000000	0.030822
1247.000000	0.031208
1246.000000	0.031569
1245.000000	0.031922
1244.000000	0.032278
1243.000000	0.032610
1242.000000	0.032898
1241.000000	0.033163
1240.000000	0.033419
1239.000000	0.033636
1238.000000	0.033783
1237.000000	0.033867
1236.000000	0.033907
1235.000000	0.033897
1234.000000	0.033830
1233.000000	0.033720
1232.000000	0.033569
1231.000000	0.033356
1230.000000	0.033070
1229.000000	0.032735
1228.000000	0.032365
1227.000000	0.031935
1226.000000	0.031430
1225.000000	0.030882
1224.000000	0.030327
1223.000000	0.029770
1222.000000	0.029208
1221.000000	0.028661
1220.000000	0.028149
1219.000000	0.027665
1218.000000	0.027208
1217.000000	0.026809
1216.000000	0.026501
1215.000000	0.026278
1214.000000	0.026114
1213.000000	0.026002
1212.000000	0.025946
1211.000000	0.025933
1210.000000	0.025959
1209.000000	0.026036
1208.000000	0.026161
1207.000000	0.026295
1206.000000	0.026405
1205.000000	0.026499
1204.000000	0.026589
1203.000000	0.026652
1202.000000	0.026656
1201.000000	0.026593
1200.000000	0.026470
1199.000000	0.026285
1198.000000	0.026050
1197.000000	0.025793
1196.000000	0.025533
1195.000000	0.025257
1194.000000	0.024967
1193.000000	0.024695
1192.000000	0.024457
1191.000000	0.024219
1190.000000	0.023946
1189.000000	0.023656
1188.000000	0.023395
1187.000000	0.023182
1186.000000	0.023007
1185.000000	0.022869
1184.000000	0.022763
1183.000000	0.022682
1182.000000	0.022622
1181.000000	0.022602
1180.000000	0.022627
1179.000000	0.022671
1178.000000	0.022712
1177.000000	0.022769
1176.000000	0.022857
1175.000000	0.022962
1174.000000	0.023073
1173.000000	0.023217
1172.000000	0.023413
1171.000000	0.023637
1170.000000	0.023852
1169.000000	0.024054
1168.000000	0.024253
1167.000000	0.024432
1166.000000	0.024576
1165.000000	0.024705
1164.000000	0.024845
1163.000000	0.024987
1162.000000	0.025102
1161.000000	0.025178
1160.000000	0.025213
1159.000000	0.025188
1158.000000	0.025095
1157.000000	0.024950
1156.000000	0.024766
1155.000000	0.024532
1154.000000	0.024249
1153.000000	0.023951
1152.000000	0.023670
1151.000000	0.023398
1150.000000	0.023117
1149.000000	0.022834
1148.000000	0.022557
1147.000000	0.022274
1146.000000	0.021980
1145.000000	0.021693
1144.000000	0.021417
1143.000000	0.021116
1142.000000	0.020766
1141.000000	0.020399
1140.000000	0.020051
1139.000000	0.019713
1138.000000	0.019366
1137.000000	0.019025
1136.000000	0.018720
1135.000000	0.018443
1134.000000	0.018180
1133.000000	0.017946
1132.000000	0.017764
1131.000000	0.017627
1130.000000	0.017522
1129.000000	0.017462
1128.000000	0.017468
1127.000000	0.017520
1126.000000	0.017583
1125.000000	0.017646
1124.000000	0.017723
1123.000000	0.017817
1122.000000	0.017921
1121.000000	0.018032
1120.000000	0.018142
1119.000000	0.018230
1118.000000	0.018291
1117.000000	0.018351
1116.000000	0.018420
1115.000000	0.018471
1114.000000	0.018495
1113.000000	0.018518
1112.000000	0.018556
1111.000000	0.018586
1110.000000	0.018590
1109.000000	0.018596
1108.000000	0.018627
1107.000000	0.018666
1106.000000	0.018704
1105.000000	0.018777
1104.000000	0.018911
1103.000000	0.019069
1102.000000	0.019206
1101.000000	0.019320
1100.000000	0.019423
1099.000000	0.019497
1098.000000	0.019527
1097.000000	0.019545
1096.000000	0.019593
1095.000000	0.019670
1094.000000	0.019767
1093.000000	0.019904
1092.000000	0.020100
1091.000000	0.020335
1090.000000	0.020580
1089.000000	0.020844
1088.000000	0.021144
1087.000000	0.021463
1086.000000	0.021780
1085.000000	0.022100
1084.000000	0.022416
1083.000000	0.022670
1082.000000	0.022806
1081.000000	0.022825
1080.000000	0.022750
1079.000000	0.022590
1078.000000	0.022358
1077.000000	0.022087
1076.000000	0.021791
1075.000000	0.021451
1074.000000	0.021079
1073.000000	0.020744
1072.000000	0.020497
1071.000000	0.020314
1070.000000	0.020154
1069.000000	0.020024
1068.000000	0.019944
1067.000000	0.019900
1066.000000	0.019875
1065.000000	0.019884
1064.000000	0.019937
1063.000000	0.020001
1062.000000	0.020047
1061.000000	0.020084
1060.000000	0.020121
1059.000000	0.020126
1058.000000	0.020075
1057.000000	0.019997
1056.000000	0.019925
1055.000000	0.019853
1054.000000	0.019769
1053.000000	0.019697
1052.000000	0.019656
1051.000000	0.019622
1050.000000	0.019583
1049.000000	0.019567
1048.000000	0.019588
1047.000000	0.019599
1046.000000	0.019564
1045.000000	0.019516
1044.000000	0.019500
1043.000000	0.019513
1042.000000	0.019542
1041.000000	0.019607
1040.000000	0.019724
1039.000000	0.019879
1038.000000	0.020063
1037.000000	0.020304
1036.000000	0.020599
1035.000000	0.020887
1034.000000	0.021123
1033.000000	0.021328
1032.000000	0.021536
1031.000000	0.021716
1030.000000	0.021821
1029.000000	0.021843
1028.000000	0.021795
1027.000000	0.021680
1026.000000	0.021527
1025.000000	0.021398
1024.000000	0.021323
1023.000000	0.021262
1022.000000	0.021187
1021.000000	0.021123
1020.000000	0.021089
1019.000000	0.021042
1018.000000	0.020941
1017.000000	0.020800
1016.000000	0.020631
1015.000000	0.020391
1014.000000	0.020060
1013.000000	0.019695
1012.000000	0.019363
1011.000000	0.019052
1010.000000	0.018722
1009.000000	0.018377
1008.000000	0.018041
1007.000000	0.017703
1006.000000	0.017341
1005.000000	0.016982
1004.000000	0.016666
1003.000000	0.016387
1002.000000	0.016118
1001.000000	0.015857
1000.000000	0.015607
999.000000	0.015348
998.000000	0.015070
997.000000	0.014799
996.000000	0.014550
995.000000	0.014296
994.000000	0.014016
993.000000	0.013737
992.000000	0.013492
991.000000	0.013275
990.000000	0.013075
989.000000	0.012898
988.000000	0.012734
987.000000	0.012541
986.000000	0.012309
985.000000	0.012086
984.000000	0.011909
983.000000	0.011764
982.000000	0.011632
981.000000	0.011535
980.000000	0.011486
979.000000	0.011443
978.000000	0.011374
977.000000	0.011305
976.000000	0.011264
975.000000	0.011224
974.000000	0.011149
973.000000	0.011050
972.000000	0.010953
971.000000	0.010848
970.000000	0.010726
969.000000	0.010614
968.000000	0.010525
967.000000	0.010418
966.000000	0.010262
965.000000	0.010085
964.000000	0.009920
963.000000	0.009752
962.000000	0.009567
961.000000	0.009399
960.000000	0.009276
959.000000	0.009161
958.000000	0.009008
957.000000	0.008829
956.000000	0.008663
955.000000	0.008514
954.000000	0.008379
953.000000	0.008280
952.000000	0.008226
951.000000	0.008180
950.000000	0.008121
949.000000	0.008082
948.000000	0.008086
947.000000	0.008092
946.000000	0.008060
945.000000	0.008015
944.000000	0.008005
943.000000	0.008024
942.000000	0.008042
941.000000	0.008061
940.000000	0.008087
939.000000	0.008087
938.000000	0.008034
937.000000	0.007954
936.000000	0.007885
935.000000	0.007825
934.000000	0.007766
933.000000	0.007726
932.000000	0.007710
931.000000	0.007681
930.000000	0.007623
929.000000	0.007571
928.000000	0.007544
927.000000	0.007501
926.000000	0.007415
925.000000	0.007339
924.000000	0.007324
923.000000	0.007341
922.000000	0.007331
921.000000	0.007296
920.000000	0.007262
919.000000	0.007212
918.000000	0.007122
917.000000	0.007013
916.000000	0.006915
915.000000	0.006813
914.000000	0.006681
913.000000	0.006544
912.000000	0.006438
911.000000	0.006354
910.000000	0.006274
909.000000	0.006215
908.000000	0.006191
907.000000	0.006178
906.000000	0.006155
905.000000	0.006151
904.000000	0.006185
903.000000	0.006216
902.000000	0.006199
901.000000	0.006139
900.000000	0.006056
899.000000	0.005940
898.000000	0.005798
897.000000	0.005689
896.000000	0.005653
895.000000	0.005653
894.000000	0.005642
893.000000	0.005626
892.000000	0.005632
891.000000	0.005652
890.000000	0.005675
889.000000	0.005722
888.000000	0.005787
887.000000	0.005825
886.000000	0.005827
885.000000	0.005866
884.000000	0.005996
883.000000	0.006179
882.000000	0.006374
881.000000	0.006610
880.000000	0.006919
879.000000	0.007252
878.000000	0.007542
877.000000	0.007781
876.000000	0.007976
875.000000	0.008080
874.000000	0.008051
873.000000	0.007914
872.000000	0.007714
871.000000	0.007459
870.000000	0.007173
869.000000	0.006928
868.000000	0.006756
867.000000	0.006612
866.000000	0.006458
865.000000	0.006335
864.000000	0.006278
863.000000	0.006247
862.000000	0.006200
861.000000	0.006165
860.000000	0.006171
859.000000	0.006181
858.000000	0.006162
857.000000	0.006152
856.000000	0.006191
855.000000	0.006255
854.000000	0.006314
853.000000	0.006385
852.000000	0.006466
851.000000	0.006493
850.000000	0.006438
849.000000	0.006359
848.000000	0.006307
847.000000	0.006249
846.000000	0.006167
845.000000	0.006119
844.000000	0.006145
843.000000	0.006174
842.000000	0.006134
841.000000	0.006048
840.000000	0.005963
839.000000	0.005870
838.000000	0.005763
837.000000	0.005701
836.000000	0.005719
835.000000	0.005756
834.000000	0.005749
833.000000	0.005723
832.000000	0.005711
831.000000	0.005683
830.000000	0.005622
829.000000	0.005592
828.000000	0.005633
827.000000	0.005674
826.000000	0.005652
825.000000	0.005630
824.000000	0.005681
823.000000	0.005750
822.000000	0.005749
821.000000	0.005699
820.000000	0.005682
819.000000	0.005705
818.000000	0.005738
817.000000	0.005788
816.000000	0.005863
815.000000	0.005915
814.000000	0.005907
813.000000	0.005877
812.000000	0.005867
811.000000	0.005859
810.000000	0.005841
809.000000	0.005846
808.000000	0.005869
807.000000	0.005827
806.000000	0.005695
805.000000	0.005579
804.000000	0.005570
803.000000	0.005624
802.000000	0.005666
801.000000	0.005712
800.000000	0.005787
799.000000	0.005832
798.000000	0.005789
797.000000	0.005720
796.000000	0.005712
795.000000	0.005765
794.000000	0.005829
793.000000	0.005897
792.000000	0.005969
791.000000	0.006004
790.000000	0.005999
789.000000	0.006020
788.000000	0.006099
787.000000	0.006170
786.000000	0.006185
785.000000	0.006201
784.000000	0.006274
783.000000	0.006357
782.000000	0.006392
781.000000	0.006400
780.000000	0.006419
779.000000	0.006428
778.000000	0.006412
777.000000	0.006424
776.000000	0.006495
775.000000	0.006566
774.000000	0.006584
773.000000	0.006585
772.000000	0.006613
771.000000	0.006642
770.000000	0.006652
769.000000	0.006684
768.000000	0.006756
767.000000	0.006807
766.000000	0.006814
765.000000	0.006846
764.000000	0.006934
763.000000	0.007000
762.000000	0.006984
761.000000	0.006954
760.000000	0.006980
759.000000	0.007023
758.000000	0.007031
757.000000	0.007044
756.000000	0.007106
755.000000	0.007165
754.000000	0.007167
753.000000	0.007156
752.000000	0.007188
751.000000	0.007239
750.000000	0.007282
749.000000	0.007366
748.000000	0.007504
747.000000	0.007608
746.000000	0.007622
745.000000	0.007621
744.000000	0.007689
743.000000	0.007781
742.000000	0.007835
741.000000	0.007896
740.000000	0.008023
739.000000	0.008166
738.000000	0.008260
737.000000	0.008344
736.000000	0.008474
735.000000	0.008609
734.000000	0.008693
733.000000	0.008772
732.000000	0.008924
731.000000	0.009124
730.000000	0.009307
729.000000	0.009481
728.000000	0.009685
727.000000	0.009890
726.000000	0.010063
725.000000	0.010239
724.000000	0.010448
723.000000	0.010648
722.000000	0.010797
721.000000	0.010928
720.000000	0.011050
719.000000	0.011099
718.000000	0.011056
717.000000	0.011013
716.000000	0.011038
715.000000	0.011083
714.000000	0.011107
713.000000	0.011163
712.000000	0.011277
711.000000	0.011357
710.000000	0.011345
709.000000	0.011330
708.000000	0.011398
707.000000	0.011491
706.000000	0.011540
705.000000	0.011608
704.000000	0.011757
703.000000	0.011909
702.000000	0.011965
701.000000	0.011969
700.000000	0.012007
699.000000	0.012052
698.000000	0.012043
697.000000	0.012022
696.000000	0.012053
695.000000	0.012092
694.000000	0.012075
693.000000	0.012041
692.000000	0.012055
691.000000	0.012082
690.000000	0.012075
689.000000	0.012089
688.000000	0.012167
687.000000	0.012232
686.000000	0.012216
685.000000	0.012205
684.000000	0.012309
683.000000	0.012486
682.000000	0.012622
681.000000	0.012706
680.000000	0.012785
679.000000	0.012830
678.000000	0.012800
677.000000	0.012785
676.000000	0.012893
675.000000	0.013084
674.000000	0.013244
673.000000	0.013323
672.000000	0.013320
671.000000	0.013199
670.000000	0.012944
669.000000	0.012674
668.000000	0.012697
667.000000	0.013071
666.000000	0.013349
665.000000	0.013528
664.000000	0.013744
663.000000	0.013894
662.000000	0.013849
661.000000	0.013700
660.000000	0.013624
659.000000	0.013637
658.000000	0.013664
657.000000	0.013727
656.000000	0.013854
655.000000	0.013961
654.000000	0.013995
653.000000	0.014038
652.000000	0.014125
651.000000	0.014149
650.000000	0.014064
649.000000	0.014011
648.000000	0.014064
647.000000	0.014074
646.000000	0.013924
645.000000	0.013740
644.000000	0.013678
643.000000	0.013704
642.000000	0.013718
641.000000	0.013746
640.000000	0.013821
639.000000	0.013850
638.000000	0.013770
637.000000	0.013689
636.000000	0.013701
635.000000	0.013726
634.000000	0.013682
633.000000	0.013652
632.000000	0.013731
631.000000	0.013853
630.000000	0.013927
629.000000	0.013996
628.000000	0.014099
627.000000	0.014147
626.000000	0.014094
625.000000	0.014063
624.000000	0.014151
623.000000	0.014275
622.000000	0.014338
621.000000	0.014389
620.000000	0.014460
619.000000	0.014450
618.000000	0.014327
617.000000	0.014266
616.000000	0.014387
615.000000	0.014546
614.000000	0.014567
613.000000	0.014502
612.000000	0.014472
611.000000	0.014432
610.000000	0.014323
609.000000	0.014253
608.000000	0.014331
607.000000	0.014456
606.000000	0.014485
605.000000	0.014453
604.000000	0.014458
603.000000	0.014480
602.000000	0.014480
601.000000	0.014514
600.000000	0.014584
599.000000	0.014576
598.000000	0.014479
597.000000	0.014493
596.000000	0.014707
595.000000	0.014911
594.000000	0.014897
593.000000	0.014767
592.000000	0.014721
591.000000	0.014743
590.000000	0.014716
589.000000	0.014679
588.000000	0.014705
587.000000	0.014717
586.000000	0.014632
585.000000	0.014543
584.000000	0.014543
583.000000	0.014560
582.000000	0.014540
581.000000	0.014617
580.000000	0.014875
579.000000	0.015133
578.000000	0.015185
577.000000	0.015091
576.000000	0.015016
575.000000	0.014983
574.000000	0.014961
573.000000	0.015009
572.000000	0.015129
571.000000	0.015187
570.000000	0.015156
569.000000	0.015222
568.000000	0.015465
567.000000	0.015668
566.000000	0.015673
565.000000	0.015647
564.000000	0.015765
563.000000	0.015913
562.000000	0.015945
561.000000	0.015970
560.000000	0.016126
559.000000	0.016283
558.000000	0.016266
557.000000	0.016143
556.000000	0.016050
555.000000	0.015945
554.000000	0.015774
553.000000	0.015650
552.000000	0.015644
551.000000	0.015633
550.000000	0.015549
549.000000	0.015533
548.000000	0.015638
547.000000	0.015669
546.000000	0.015529
545.000000	0.015427
544.000000	0.015500
543.000000	0.015559
542.000000	0.015434
541.000000	0.015276
540.000000	0.015247
539.000000	0.015249
538.000000	0.015210
537.000000	0.015311
536.000000	0.015641
535.000000	0.015930
534.000000	0.015949
533.000000	0.015863
532.000000	0.015894
531.000000	0.015925
530.000000	0.015782
529.000000	0.015592
528.000000	0.015539
527.000000	0.015537
526.000000	0.015442
525.000000	0.015382
524.000000	0.015489
523.000000	0.015598
522.000000	0.015512
521.000000	0.015280
520.000000	0.014984
519.000000	0.014537
518.000000	0.013962
517.000000	0.013575
516.000000	0.013543
515.000000	0.013605
514.000000	0.013518
513.000000	0.013412
512.000000	0.013450
511.000000	0.013484
510.000000	0.013359
509.000000	0.013232
508.000000	0.013261
507.000000	0.013271
506.000000	0.013061
505.000000	0.012772
504.000000	0.012588
503.000000	0.012391
502.000000	0.012022
501.000000	0.011628
500.000000	0.011380
499.000000	0.011163
498.000000	0.010869
497.000000	0.010657
496.000000	0.010651
495.000000	0.010662
494.000000	0.010505
493.000000	0.010316
492.000000	0.010269
491.000000	0.010278
490.000000	0.010245
489.000000	0.010290
488.000000	0.010406
487.000000	0.010275
486.000000	0.009747
485.000000	0.009206
484.000000	0.009083
483.000000	0.009279
482.000000	0.009444
481.000000	0.009501
480.000000	0.009504
479.000000	0.009353
478.000000	0.009021
477.000000	0.008746
476.000000	0.008659
475.000000	0.008551
474.000000	0.008327
473.000000	0.008322
472.000000	0.008721
471.000000	0.009074
470.000000	0.008970
469.000000	0.008663
468.000000	0.008555
467.000000	0.008600
466.000000	0.008572
465.000000	0.008517
464.000000	0.008500
463.000000	0.008301
462.000000	0.007808
461.000000	0.007308
460.000000	0.006981
459.000000	0.006576
458.000000	0.006002
457.000000	0.005723
456.000000	0.005911
455.000000	0.006023
454.000000	0.005735
453.000000	0.005445
452.000000	0.005568
451.000000	0.005853
450.000000	0.005941
