PE IR       SUBTECH     SPECTRUM    ASCII       PEDS        4.00        
   -1
3C-N10-C007_1.ASC
22/02/16
14:24:46.00
22/02/16
15:05:48.00
uco
Sample 007 By uco Date Wednesday, February 16 2022
450.000000
#HDR
-1
-1
#GR
cm-1
A
1.0
0.0
4000.000000
-1.000000
3551
8
0.020027
-0.003914
#DATA
4000.000000	0.000695
3999.000000	0.000624
3998.000000	0.000576
3997.000000	0.000583
3996.000000	0.000621
3995.000000	0.000643
3994.000000	0.000659
3993.000000	0.000698
3992.000000	0.000760
3991.000000	0.000807
3990.000000	0.000827
3989.000000	0.000843
3988.000000	0.000870
3987.000000	0.000878
3986.000000	0.000850
3985.000000	0.000808
3984.000000	0.000777
3983.000000	0.000753
3982.000000	0.000725
3981.000000	0.000698
3980.000000	0.000695
3979.000000	0.000732
3978.000000	0.000796
3977.000000	0.000868
3976.000000	0.000953
3975.000000	0.001051
3974.000000	0.001122
3973.000000	0.001144
3972.000000	0.001146
3971.000000	0.001160
3970.000000	0.001171
3969.000000	0.001145
3968.000000	0.001061
3967.000000	0.000922
3966.000000	0.000758
3965.000000	0.000640
3964.000000	0.000651
3963.000000	0.000798
3962.000000	0.000993
3961.000000	0.001150
3960.000000	0.001240
3959.000000	0.001272
3958.000000	0.001228
3957.000000	0.001149
3956.000000	0.001110
3955.000000	0.001101
3954.000000	0.001074
3953.000000	0.000989
3952.000000	0.000895
3951.000000	0.000878
3950.000000	0.001041
3949.000000	0.001347
3948.000000	0.001535
3947.000000	0.001504
3946.000000	0.001417
3945.000000	0.001472
3944.000000	0.001673
3943.000000	0.001824
3942.000000	0.001841
3941.000000	0.001828
3940.000000	0.001826
3939.000000	0.001740
3938.000000	0.001435
3937.000000	0.000999
3936.000000	0.000703
3935.000000	0.000647
3934.000000	0.000824
3933.000000	0.001164
3932.000000	0.001676
3931.000000	0.002215
3930.000000	0.002442
3929.000000	0.002235
3928.000000	0.001822
3927.000000	0.001634
3926.000000	0.001735
3925.000000	0.001786
3924.000000	0.001741
3923.000000	0.001858
3922.000000	0.002024
3921.000000	0.001881
3920.000000	0.001503
3919.000000	0.001506
3918.000000	0.001973
3917.000000	0.002323
3916.000000	0.002248
3915.000000	0.002025
3914.000000	0.001908
3913.000000	0.001784
3912.000000	0.001559
3911.000000	0.001471
3910.000000	0.001488
3909.000000	0.001446
3908.000000	0.001368
3907.000000	0.001377
3906.000000	0.001558
3905.000000	0.001601
3904.000000	0.001459
3903.000000	0.001598
3902.000000	0.002399
3901.000000	0.003522
3900.000000	0.004046
3899.000000	0.003642
3898.000000	0.002936
3897.000000	0.002524
3896.000000	0.002262
3895.000000	0.001965
3894.000000	0.001830
3893.000000	0.002329
3892.000000	0.002926
3891.000000	0.002446
3890.000000	0.001281
3889.000000	0.000831
3888.000000	0.001473
3887.000000	0.002172
3886.000000	0.001996
3885.000000	0.001166
3884.000000	0.000932
3883.000000	0.001869
3882.000000	0.003115
3881.000000	0.003737
3880.000000	0.003458
3879.000000	0.002621
3878.000000	0.002121
3877.000000	0.002279
3876.000000	0.002538
3875.000000	0.002330
3874.000000	0.001625
3873.000000	0.001315
3872.000000	0.002138
3871.000000	0.003175
3870.000000	0.002826
3869.000000	0.001539
3868.000000	0.001290
3867.000000	0.002395
3866.000000	0.002931
3865.000000	0.002267
3864.000000	0.001923
3863.000000	0.002511
3862.000000	0.002973
3861.000000	0.002919
3860.000000	0.002809
3859.000000	0.003021
3858.000000	0.003309
3857.000000	0.003161
3856.000000	0.002165
3855.000000	0.000265
3854.000000	-0.001706
3853.000000	-0.003396
3852.000000	-0.003914
3851.000000	-0.002137
3850.000000	0.000335
3849.000000	0.001817
3848.000000	0.002257
3847.000000	0.002354
3846.000000	0.002232
3845.000000	0.002093
3844.000000	0.002122
3843.000000	0.002061
3842.000000	0.001887
3841.000000	0.002179
3840.000000	0.002666
3839.000000	0.002723
3838.000000	0.002220
3837.000000	0.001534
3836.000000	0.001293
3835.000000	0.001637
3834.000000	0.002315
3833.000000	0.002861
3832.000000	0.002763
3831.000000	0.002110
3830.000000	0.001578
3829.000000	0.001746
3828.000000	0.002441
3827.000000	0.002869
3826.000000	0.002442
3825.000000	0.001886
3824.000000	0.001921
3823.000000	0.002345
3822.000000	0.002826
3821.000000	0.002568
3820.000000	0.001634
3819.000000	0.001548
3818.000000	0.002421
3817.000000	0.002623
3816.000000	0.001332
3815.000000	-0.000193
3814.000000	-0.000016
3813.000000	0.001482
3812.000000	0.002215
3811.000000	0.001651
3810.000000	0.001035
3809.000000	0.001299
3808.000000	0.001792
3807.000000	0.001207
3806.000000	-0.000154
3805.000000	-0.000452
3804.000000	0.000619
3803.000000	0.001862
3802.000000	0.002082
3801.000000	0.000916
3800.000000	-0.000069
3799.000000	0.000609
3798.000000	0.002101
3797.000000	0.002948
3796.000000	0.002889
3795.000000	0.002489
3794.000000	0.002348
3793.000000	0.002274
3792.000000	0.001973
3791.000000	0.001688
3790.000000	0.001593
3789.000000	0.001455
3788.000000	0.001169
3787.000000	0.001057
3786.000000	0.001396
3785.000000	0.001852
3784.000000	0.001929
3783.000000	0.001775
3782.000000	0.001752
3781.000000	0.001942
3780.000000	0.002144
3779.000000	0.002176
3778.000000	0.002106
3777.000000	0.002230
3776.000000	0.002350
3775.000000	0.001984
3774.000000	0.001318
3773.000000	0.001103
3772.000000	0.001528
3771.000000	0.001964
3770.000000	0.001914
3769.000000	0.001662
3768.000000	0.001725
3767.000000	0.002163
3766.000000	0.002517
3765.000000	0.002298
3764.000000	0.001799
3763.000000	0.001684
3762.000000	0.001830
3761.000000	0.001778
3760.000000	0.001765
3759.000000	0.002362
3758.000000	0.003042
3757.000000	0.003088
3756.000000	0.002765
3755.000000	0.002303
3754.000000	0.001256
3753.000000	-0.000443
3752.000000	-0.001248
3751.000000	-0.000170
3750.000000	0.000830
3749.000000	0.000460
3748.000000	0.000195
3747.000000	0.001289
3746.000000	0.002820
3745.000000	0.002592
3744.000000	0.000043
3743.000000	-0.001824
3742.000000	-0.000736
3741.000000	0.001331
3740.000000	0.001876
3739.000000	0.001415
3738.000000	0.001249
3737.000000	0.001520
3736.000000	0.002186
3735.000000	0.003300
3734.000000	0.004525
3733.000000	0.004813
3732.000000	0.003639
3731.000000	0.001904
3730.000000	0.000944
3729.000000	0.001047
3728.000000	0.001510
3727.000000	0.001638
3726.000000	0.001587
3725.000000	0.001889
3724.000000	0.002507
3723.000000	0.002861
3722.000000	0.002774
3721.000000	0.002591
3720.000000	0.002559
3719.000000	0.002720
3718.000000	0.002646
3717.000000	0.002096
3716.000000	0.001591
3715.000000	0.001286
3714.000000	0.000864
3713.000000	0.000623
3712.000000	0.001216
3711.000000	0.002361
3710.000000	0.003044
3709.000000	0.003093
3708.000000	0.002855
3707.000000	0.002376
3706.000000	0.001893
3705.000000	0.001635
3704.000000	0.001658
3703.000000	0.001916
3702.000000	0.002129
3701.000000	0.002037
3700.000000	0.001712
3699.000000	0.001555
3698.000000	0.001605
3697.000000	0.001487
3696.000000	0.001314
3695.000000	0.001421
3694.000000	0.001518
3693.000000	0.001220
3692.000000	0.000836
3691.000000	0.001027
3690.000000	0.001677
3689.000000	0.001821
3688.000000	0.000945
3687.000000	0.000212
3686.000000	0.000620
3685.000000	0.001581
3684.000000	0.002018
3683.000000	0.001853
3682.000000	0.001863
3681.000000	0.002084
3680.000000	0.001854
3679.000000	0.001136
3678.000000	0.000923
3677.000000	0.001842
3676.000000	0.003087
3675.000000	0.003014
3674.000000	0.002086
3673.000000	0.002000
3672.000000	0.002346
3671.000000	0.002316
3670.000000	0.002200
3669.000000	0.002231
3668.000000	0.002426
3667.000000	0.002658
3666.000000	0.002590
3665.000000	0.002227
3664.000000	0.001934
3663.000000	0.001978
3662.000000	0.002136
3661.000000	0.001966
3660.000000	0.001639
3659.000000	0.001576
3658.000000	0.002026
3657.000000	0.002443
3656.000000	0.002192
3655.000000	0.001690
3654.000000	0.001717
3653.000000	0.001822
3652.000000	0.001116
3651.000000	0.000526
3650.000000	0.001552
3649.000000	0.003601
3648.000000	0.004859
3647.000000	0.004927
3646.000000	0.004487
3645.000000	0.003980
3644.000000	0.003507
3643.000000	0.003125
3642.000000	0.002806
3641.000000	0.002551
3640.000000	0.002466
3639.000000	0.002397
3638.000000	0.002163
3637.000000	0.001921
3636.000000	0.002047
3635.000000	0.002420
3634.000000	0.002505
3633.000000	0.002257
3632.000000	0.002063
3631.000000	0.002027
3630.000000	0.002384
3629.000000	0.002742
3628.000000	0.002211
3627.000000	0.001846
3626.000000	0.002327
3625.000000	0.002810
3624.000000	0.002728
3623.000000	0.002471
3622.000000	0.002493
3621.000000	0.002761
3620.000000	0.003079
3619.000000	0.003251
3618.000000	0.003050
3617.000000	0.002836
3616.000000	0.003025
3615.000000	0.003504
3614.000000	0.003878
3613.000000	0.003956
3612.000000	0.003853
3611.000000	0.003676
3610.000000	0.003472
3609.000000	0.003412
3608.000000	0.003599
3607.000000	0.003852
3606.000000	0.003867
3605.000000	0.003504
3604.000000	0.002889
3603.000000	0.002351
3602.000000	0.002166
3601.000000	0.002275
3600.000000	0.002506
3599.000000	0.002726
3598.000000	0.002791
3597.000000	0.002735
3596.000000	0.002913
3595.000000	0.003302
3594.000000	0.003577
3593.000000	0.003573
3592.000000	0.003338
3591.000000	0.002947
3590.000000	0.002575
3589.000000	0.002661
3588.000000	0.003534
3587.000000	0.004473
3586.000000	0.004732
3585.000000	0.004455
3584.000000	0.004064
3583.000000	0.003651
3582.000000	0.003291
3581.000000	0.003072
3580.000000	0.003040
3579.000000	0.003093
3578.000000	0.003110
3577.000000	0.003110
3576.000000	0.003192
3575.000000	0.003357
3574.000000	0.003425
3573.000000	0.003318
3572.000000	0.003014
3571.000000	0.002560
3570.000000	0.002132
3569.000000	0.002186
3568.000000	0.003170
3567.000000	0.004715
3566.000000	0.005757
3565.000000	0.005881
3564.000000	0.005424
3563.000000	0.004782
3562.000000	0.004239
3561.000000	0.003975
3560.000000	0.003936
3559.000000	0.003927
3558.000000	0.003787
3557.000000	0.003508
3556.000000	0.003206
3555.000000	0.003073
3554.000000	0.003222
3553.000000	0.003576
3552.000000	0.003883
3551.000000	0.003912
3550.000000	0.003671
3549.000000	0.003356
3548.000000	0.003251
3547.000000	0.003568
3546.000000	0.004170
3545.000000	0.004662
3544.000000	0.004815
3543.000000	0.004663
3542.000000	0.004321
3541.000000	0.003920
3540.000000	0.003605
3539.000000	0.003487
3538.000000	0.003572
3537.000000	0.003786
3536.000000	0.004034
3535.000000	0.004156
3534.000000	0.004058
3533.000000	0.003788
3532.000000	0.003534
3531.000000	0.003453
3530.000000	0.003558
3529.000000	0.003757
3528.000000	0.003948
3527.000000	0.004081
3526.000000	0.004177
3525.000000	0.004322
3524.000000	0.004584
3523.000000	0.004867
3522.000000	0.004954
3521.000000	0.004780
3520.000000	0.004507
3519.000000	0.004297
3518.000000	0.004171
3517.000000	0.004100
3516.000000	0.004088
3515.000000	0.004077
3514.000000	0.003992
3513.000000	0.003880
3512.000000	0.003880
3511.000000	0.004052
3510.000000	0.004302
3509.000000	0.004464
3508.000000	0.004444
3507.000000	0.004274
3506.000000	0.004069
3505.000000	0.004011
3504.000000	0.004258
3503.000000	0.004715
3502.000000	0.005055
3501.000000	0.005076
3500.000000	0.004870
3499.000000	0.004636
3498.000000	0.004482
3497.000000	0.004436
3496.000000	0.004497
3495.000000	0.004601
3494.000000	0.004633
3493.000000	0.004559
3492.000000	0.004448
3491.000000	0.004363
3490.000000	0.004335
3489.000000	0.004399
3488.000000	0.004561
3487.000000	0.004735
3486.000000	0.004805
3485.000000	0.004762
3484.000000	0.004718
3483.000000	0.004756
3482.000000	0.004856
3481.000000	0.004952
3480.000000	0.005009
3479.000000	0.005004
3478.000000	0.004915
3477.000000	0.004790
3476.000000	0.004719
3475.000000	0.004727
3474.000000	0.004741
3473.000000	0.004715
3472.000000	0.004677
3471.000000	0.004649
3470.000000	0.004627
3469.000000	0.004648
3468.000000	0.004738
3467.000000	0.004835
3466.000000	0.004842
3465.000000	0.004766
3464.000000	0.004701
3463.000000	0.004705
3462.000000	0.004768
3461.000000	0.004864
3460.000000	0.004971
3459.000000	0.005038
3458.000000	0.005027
3457.000000	0.004972
3456.000000	0.004938
3455.000000	0.004938
3454.000000	0.004956
3453.000000	0.004956
3452.000000	0.004906
3451.000000	0.004813
3450.000000	0.004741
3449.000000	0.004788
3448.000000	0.004982
3447.000000	0.005232
3446.000000	0.005404
3445.000000	0.005458
3444.000000	0.005441
3443.000000	0.005405
3442.000000	0.005366
3441.000000	0.005331
3440.000000	0.005312
3439.000000	0.005306
3438.000000	0.005300
3437.000000	0.005291
3436.000000	0.005281
3435.000000	0.005278
3434.000000	0.005302
3433.000000	0.005350
3432.000000	0.005410
3431.000000	0.005480
3430.000000	0.005540
3429.000000	0.005564
3428.000000	0.005551
3427.000000	0.005533
3426.000000	0.005527
3425.000000	0.005518
3424.000000	0.005507
3423.000000	0.005521
3422.000000	0.005576
3421.000000	0.005655
3420.000000	0.005730
3419.000000	0.005776
3418.000000	0.005768
3417.000000	0.005696
3416.000000	0.005597
3415.000000	0.005534
3414.000000	0.005533
3413.000000	0.005568
3412.000000	0.005612
3411.000000	0.005655
3410.000000	0.005692
3409.000000	0.005710
3408.000000	0.005721
3407.000000	0.005739
3406.000000	0.005745
3405.000000	0.005727
3404.000000	0.005717
3403.000000	0.005745
3402.000000	0.005797
3401.000000	0.005854
3400.000000	0.005938
3399.000000	0.006052
3398.000000	0.006131
3397.000000	0.006119
3396.000000	0.006045
3395.000000	0.005989
3394.000000	0.005999
3393.000000	0.006065
3392.000000	0.006150
3391.000000	0.006210
3390.000000	0.006211
3389.000000	0.006167
3388.000000	0.006129
3387.000000	0.006122
3386.000000	0.006122
3385.000000	0.006102
3384.000000	0.006074
3383.000000	0.006047
3382.000000	0.006013
3381.000000	0.005984
3380.000000	0.006000
3379.000000	0.006066
3378.000000	0.006143
3377.000000	0.006198
3376.000000	0.006223
3375.000000	0.006207
3374.000000	0.006141
3373.000000	0.006067
3372.000000	0.006062
3371.000000	0.006145
3370.000000	0.006264
3369.000000	0.006373
3368.000000	0.006462
3367.000000	0.006519
3366.000000	0.006525
3365.000000	0.006495
3364.000000	0.006478
3363.000000	0.006506
3362.000000	0.006564
3361.000000	0.006622
3360.000000	0.006661
3359.000000	0.006662
3358.000000	0.006626
3357.000000	0.006590
3356.000000	0.006593
3355.000000	0.006616
3354.000000	0.006616
3353.000000	0.006600
3352.000000	0.006619
3351.000000	0.006688
3350.000000	0.006773
3349.000000	0.006845
3348.000000	0.006907
3347.000000	0.006956
3346.000000	0.006977
3345.000000	0.006974
3344.000000	0.006982
3343.000000	0.007000
3342.000000	0.006995
3341.000000	0.006960
3340.000000	0.006938
3339.000000	0.006966
3338.000000	0.007041
3337.000000	0.007146
3336.000000	0.007261
3335.000000	0.007350
3334.000000	0.007373
3333.000000	0.007333
3332.000000	0.007277
3331.000000	0.007246
3330.000000	0.007246
3329.000000	0.007264
3328.000000	0.007294
3327.000000	0.007327
3326.000000	0.007356
3325.000000	0.007388
3324.000000	0.007438
3323.000000	0.007492
3322.000000	0.007511
3321.000000	0.007489
3320.000000	0.007460
3319.000000	0.007457
3318.000000	0.007476
3317.000000	0.007502
3316.000000	0.007526
3315.000000	0.007544
3314.000000	0.007553
3313.000000	0.007558
3312.000000	0.007559
3311.000000	0.007552
3310.000000	0.007544
3309.000000	0.007561
3308.000000	0.007614
3307.000000	0.007670
3306.000000	0.007689
3305.000000	0.007677
3304.000000	0.007672
3303.000000	0.007684
3302.000000	0.007700
3301.000000	0.007715
3300.000000	0.007742
3299.000000	0.007778
3298.000000	0.007803
3297.000000	0.007812
3296.000000	0.007815
3295.000000	0.007817
3294.000000	0.007812
3293.000000	0.007815
3292.000000	0.007833
3291.000000	0.007844
3290.000000	0.007816
3289.000000	0.007752
3288.000000	0.007686
3287.000000	0.007642
3286.000000	0.007628
3285.000000	0.007650
3284.000000	0.007709
3283.000000	0.007766
3282.000000	0.007779
3281.000000	0.007758
3280.000000	0.007750
3279.000000	0.007756
3278.000000	0.007737
3277.000000	0.007679
3276.000000	0.007623
3275.000000	0.007603
3274.000000	0.007616
3273.000000	0.007651
3272.000000	0.007701
3271.000000	0.007748
3270.000000	0.007769
3269.000000	0.007762
3268.000000	0.007746
3267.000000	0.007725
3266.000000	0.007688
3265.000000	0.007642
3264.000000	0.007610
3263.000000	0.007598
3262.000000	0.007582
3261.000000	0.007566
3260.000000	0.007553
3259.000000	0.007523
3258.000000	0.007467
3257.000000	0.007434
3256.000000	0.007485
3255.000000	0.007599
3254.000000	0.007690
3253.000000	0.007704
3252.000000	0.007662
3251.000000	0.007604
3250.000000	0.007537
3249.000000	0.007466
3248.000000	0.007409
3247.000000	0.007388
3246.000000	0.007401
3245.000000	0.007444
3244.000000	0.007500
3243.000000	0.007532
3242.000000	0.007515
3241.000000	0.007473
3240.000000	0.007444
3239.000000	0.007428
3238.000000	0.007401
3237.000000	0.007366
3236.000000	0.007341
3235.000000	0.007328
3234.000000	0.007318
3233.000000	0.007314
3232.000000	0.007326
3231.000000	0.007342
3230.000000	0.007351
3229.000000	0.007368
3228.000000	0.007398
3227.000000	0.007406
3226.000000	0.007368
3225.000000	0.007319
3224.000000	0.007305
3223.000000	0.007310
3222.000000	0.007290
3221.000000	0.007256
3220.000000	0.007249
3219.000000	0.007255
3218.000000	0.007230
3217.000000	0.007185
3216.000000	0.007173
3215.000000	0.007209
3214.000000	0.007250
3213.000000	0.007253
3212.000000	0.007222
3211.000000	0.007187
3210.000000	0.007180
3209.000000	0.007221
3208.000000	0.007295
3207.000000	0.007353
3206.000000	0.007355
3205.000000	0.007314
3204.000000	0.007272
3203.000000	0.007239
3202.000000	0.007202
3201.000000	0.007158
3200.000000	0.007123
3199.000000	0.007117
3198.000000	0.007147
3197.000000	0.007202
3196.000000	0.007244
3195.000000	0.007233
3194.000000	0.007178
3193.000000	0.007132
3192.000000	0.007114
3191.000000	0.007092
3190.000000	0.007036
3189.000000	0.006971
3188.000000	0.006937
3187.000000	0.006947
3186.000000	0.006994
3185.000000	0.007070
3184.000000	0.007131
3183.000000	0.007109
3182.000000	0.007008
3181.000000	0.006910
3180.000000	0.006882
3179.000000	0.006910
3178.000000	0.006942
3177.000000	0.006954
3176.000000	0.006937
3175.000000	0.006883
3174.000000	0.006812
3173.000000	0.006775
3172.000000	0.006793
3171.000000	0.006815
3170.000000	0.006790
3169.000000	0.006735
3168.000000	0.006692
3167.000000	0.006671
3166.000000	0.006657
3165.000000	0.006646
3164.000000	0.006629
3163.000000	0.006596
3162.000000	0.006563
3161.000000	0.006559
3160.000000	0.006584
3159.000000	0.006607
3158.000000	0.006615
3157.000000	0.006619
3156.000000	0.006608
3155.000000	0.006559
3154.000000	0.006493
3153.000000	0.006472
3152.000000	0.006507
3151.000000	0.006545
3150.000000	0.006547
3149.000000	0.006533
3148.000000	0.006522
3147.000000	0.006492
3146.000000	0.006429
3145.000000	0.006361
3144.000000	0.006321
3143.000000	0.006305
3142.000000	0.006296
3141.000000	0.006310
3140.000000	0.006357
3139.000000	0.006406
3138.000000	0.006419
3137.000000	0.006399
3136.000000	0.006364
3135.000000	0.006324
3134.000000	0.006297
3133.000000	0.006316
3132.000000	0.006365
3131.000000	0.006385
3130.000000	0.006348
3129.000000	0.006296
3128.000000	0.006258
3127.000000	0.006210
3126.000000	0.006134
3125.000000	0.006056
3124.000000	0.006004
3123.000000	0.005988
3122.000000	0.006004
3121.000000	0.006045
3120.000000	0.006088
3119.000000	0.006114
3118.000000	0.006140
3117.000000	0.006204
3116.000000	0.006290
3115.000000	0.006331
3114.000000	0.006302
3113.000000	0.006240
3112.000000	0.006182
3111.000000	0.006135
3110.000000	0.006112
3109.000000	0.006136
3108.000000	0.006187
3107.000000	0.006216
3106.000000	0.006205
3105.000000	0.006178
3104.000000	0.006156
3103.000000	0.006152
3102.000000	0.006183
3101.000000	0.006246
3100.000000	0.006297
3099.000000	0.006285
3098.000000	0.006225
3097.000000	0.006192
3096.000000	0.006232
3095.000000	0.006305
3094.000000	0.006344
3093.000000	0.006329
3092.000000	0.006276
3091.000000	0.006209
3090.000000	0.006151
3089.000000	0.006116
3088.000000	0.006101
3087.000000	0.006095
3086.000000	0.006101
3085.000000	0.006127
3084.000000	0.006163
3083.000000	0.006187
3082.000000	0.006197
3081.000000	0.006211
3080.000000	0.006238
3079.000000	0.006259
3078.000000	0.006263
3077.000000	0.006253
3076.000000	0.006226
3075.000000	0.006181
3074.000000	0.006138
3073.000000	0.006121
3072.000000	0.006123
3071.000000	0.006115
3070.000000	0.006095
3069.000000	0.006094
3068.000000	0.006123
3067.000000	0.006167
3066.000000	0.006216
3065.000000	0.006273
3064.000000	0.006327
3063.000000	0.006352
3062.000000	0.006329
3061.000000	0.006271
3060.000000	0.006199
3059.000000	0.006133
3058.000000	0.006095
3057.000000	0.006104
3056.000000	0.006150
3055.000000	0.006190
3054.000000	0.006193
3053.000000	0.006163
3052.000000	0.006119
3051.000000	0.006069
3050.000000	0.006017
3049.000000	0.005976
3048.000000	0.005954
3047.000000	0.005935
3046.000000	0.005910
3045.000000	0.005886
3044.000000	0.005873
3043.000000	0.005862
3042.000000	0.005842
3041.000000	0.005815
3040.000000	0.005777
3039.000000	0.005704
3038.000000	0.005605
3037.000000	0.005526
3036.000000	0.005507
3035.000000	0.005529
3034.000000	0.005551
3033.000000	0.005569
3032.000000	0.005603
3031.000000	0.005636
3030.000000	0.005625
3029.000000	0.005549
3028.000000	0.005430
3027.000000	0.005314
3026.000000	0.005242
3025.000000	0.005225
3024.000000	0.005232
3023.000000	0.005225
3022.000000	0.005193
3021.000000	0.005165
3020.000000	0.005172
3019.000000	0.005229
3018.000000	0.005324
3017.000000	0.005430
3016.000000	0.005518
3015.000000	0.005572
3014.000000	0.005601
3013.000000	0.005630
3012.000000	0.005667
3011.000000	0.005695
3010.000000	0.005689
3009.000000	0.005644
3008.000000	0.005565
3007.000000	0.005477
3006.000000	0.005418
3005.000000	0.005408
3004.000000	0.005423
3003.000000	0.005418
3002.000000	0.005373
3001.000000	0.005310
3000.000000	0.005261
2999.000000	0.005242
2998.000000	0.005255
2997.000000	0.005301
2996.000000	0.005361
2995.000000	0.005405
2994.000000	0.005421
2993.000000	0.005422
2992.000000	0.005424
2991.000000	0.005428
2990.000000	0.005441
2989.000000	0.005466
2988.000000	0.005488
2987.000000	0.005470
2986.000000	0.005409
2985.000000	0.005354
2984.000000	0.005353
2983.000000	0.005401
2982.000000	0.005454
2981.000000	0.005477
2980.000000	0.005468
2979.000000	0.005443
2978.000000	0.005419
2977.000000	0.005399
2976.000000	0.005368
2975.000000	0.005301
2974.000000	0.005198
2973.000000	0.005086
2972.000000	0.004995
2971.000000	0.004941
2970.000000	0.004931
2969.000000	0.004966
2968.000000	0.005033
2967.000000	0.005122
2966.000000	0.005234
2965.000000	0.005376
2964.000000	0.005527
2963.000000	0.005647
2962.000000	0.005723
2961.000000	0.005782
2960.000000	0.005849
2959.000000	0.005922
2958.000000	0.005987
2957.000000	0.006040
2956.000000	0.006083
2955.000000	0.006120
2954.000000	0.006158
2953.000000	0.006188
2952.000000	0.006180
2951.000000	0.006121
2950.000000	0.006038
2949.000000	0.005972
2948.000000	0.005916
2947.000000	0.005842
2946.000000	0.005754
2945.000000	0.005695
2944.000000	0.005686
2943.000000	0.005696
2942.000000	0.005690
2941.000000	0.005661
2940.000000	0.005628
2939.000000	0.005613
2938.000000	0.005639
2937.000000	0.005713
2936.000000	0.005809
2935.000000	0.005885
2934.000000	0.005925
2933.000000	0.005941
2932.000000	0.005940
2931.000000	0.005939
2930.000000	0.005978
2929.000000	0.006103
2928.000000	0.006312
2927.000000	0.006562
2926.000000	0.006816
2925.000000	0.007063
2924.000000	0.007293
2923.000000	0.007492
2922.000000	0.007663
2921.000000	0.007817
2920.000000	0.007946
2919.000000	0.008022
2918.000000	0.008033
2917.000000	0.007989
2916.000000	0.007892
2915.000000	0.007748
2914.000000	0.007583
2913.000000	0.007430
2912.000000	0.007288
2911.000000	0.007143
2910.000000	0.007004
2909.000000	0.006897
2908.000000	0.006828
2907.000000	0.006765
2906.000000	0.006692
2905.000000	0.006617
2904.000000	0.006551
2903.000000	0.006496
2902.000000	0.006455
2901.000000	0.006429
2900.000000	0.006395
2899.000000	0.006339
2898.000000	0.006283
2897.000000	0.006270
2896.000000	0.006300
2895.000000	0.006327
2894.000000	0.006328
2893.000000	0.006314
2892.000000	0.006299
2891.000000	0.006276
2890.000000	0.006242
2889.000000	0.006213
2888.000000	0.006205
2887.000000	0.006210
2886.000000	0.006211
2885.000000	0.006196
2884.000000	0.006155
2883.000000	0.006096
2882.000000	0.006048
2881.000000	0.006026
2880.000000	0.006004
2879.000000	0.005946
2878.000000	0.005860
2877.000000	0.005788
2876.000000	0.005757
2875.000000	0.005762
2874.000000	0.005783
2873.000000	0.005799
2872.000000	0.005777
2871.000000	0.005697
2870.000000	0.005579
2869.000000	0.005468
2868.000000	0.005383
2867.000000	0.005316
2866.000000	0.005272
2865.000000	0.005272
2864.000000	0.005329
2863.000000	0.005436
2862.000000	0.005583
2861.000000	0.005754
2860.000000	0.005912
2859.000000	0.006028
2858.000000	0.006115
2857.000000	0.006204
2856.000000	0.006303
2855.000000	0.006392
2854.000000	0.006468
2853.000000	0.006548
2852.000000	0.006635
2851.000000	0.006713
2850.000000	0.006775
2849.000000	0.006816
2848.000000	0.006818
2847.000000	0.006756
2846.000000	0.006647
2845.000000	0.006532
2844.000000	0.006434
2843.000000	0.006345
2842.000000	0.006258
2841.000000	0.006177
2840.000000	0.006101
2839.000000	0.006023
2838.000000	0.005956
2837.000000	0.005914
2836.000000	0.005882
2835.000000	0.005835
2834.000000	0.005776
2833.000000	0.005737
2832.000000	0.005727
2831.000000	0.005722
2830.000000	0.005702
2829.000000	0.005678
2828.000000	0.005663
2827.000000	0.005663
2826.000000	0.005672
2825.000000	0.005685
2824.000000	0.005690
2823.000000	0.005678
2822.000000	0.005654
2821.000000	0.005624
2820.000000	0.005578
2819.000000	0.005517
2818.000000	0.005472
2817.000000	0.005470
2816.000000	0.005492
2815.000000	0.005498
2814.000000	0.005476
2813.000000	0.005442
2812.000000	0.005410
2811.000000	0.005379
2810.000000	0.005363
2809.000000	0.005377
2808.000000	0.005404
2807.000000	0.005413
2806.000000	0.005390
2805.000000	0.005347
2804.000000	0.005299
2803.000000	0.005258
2802.000000	0.005246
2801.000000	0.005273
2800.000000	0.005313
2799.000000	0.005333
2798.000000	0.005339
2797.000000	0.005355
2796.000000	0.005381
2795.000000	0.005391
2794.000000	0.005377
2793.000000	0.005353
2792.000000	0.005330
2791.000000	0.005310
2790.000000	0.005305
2789.000000	0.005327
2788.000000	0.005365
2787.000000	0.005388
2786.000000	0.005392
2785.000000	0.005394
2784.000000	0.005400
2783.000000	0.005395
2782.000000	0.005375
2781.000000	0.005348
2780.000000	0.005320
2779.000000	0.005286
2778.000000	0.005252
2777.000000	0.005227
2776.000000	0.005209
2775.000000	0.005194
2774.000000	0.005191
2773.000000	0.005205
2772.000000	0.005218
2771.000000	0.005210
2770.000000	0.005191
2769.000000	0.005184
2768.000000	0.005187
2767.000000	0.005183
2766.000000	0.005171
2765.000000	0.005162
2764.000000	0.005155
2763.000000	0.005139
2762.000000	0.005120
2761.000000	0.005111
2760.000000	0.005113
2759.000000	0.005112
2758.000000	0.005109
2757.000000	0.005110
2756.000000	0.005108
2755.000000	0.005093
2754.000000	0.005072
2753.000000	0.005063
2752.000000	0.005062
2751.000000	0.005059
2750.000000	0.005047
2749.000000	0.005030
2748.000000	0.005008
2747.000000	0.004995
2746.000000	0.005018
2745.000000	0.005076
2744.000000	0.005130
2743.000000	0.005145
2742.000000	0.005134
2741.000000	0.005127
2740.000000	0.005127
2739.000000	0.005113
2738.000000	0.005082
2737.000000	0.005046
2736.000000	0.005010
2735.000000	0.004984
2734.000000	0.004992
2733.000000	0.005037
2732.000000	0.005076
2731.000000	0.005074
2730.000000	0.005050
2729.000000	0.005046
2728.000000	0.005061
2727.000000	0.005057
2726.000000	0.005024
2725.000000	0.004986
2724.000000	0.004958
2723.000000	0.004938
2722.000000	0.004941
2721.000000	0.004983
2720.000000	0.005044
2719.000000	0.005079
2718.000000	0.005073
2717.000000	0.005046
2716.000000	0.005022
2715.000000	0.005010
2714.000000	0.005009
2713.000000	0.005014
2712.000000	0.005009
2711.000000	0.004987
2710.000000	0.004971
2709.000000	0.004977
2708.000000	0.004990
2707.000000	0.004990
2706.000000	0.004985
2705.000000	0.004989
2704.000000	0.004990
2703.000000	0.004964
2702.000000	0.004928
2701.000000	0.004918
2700.000000	0.004936
2699.000000	0.004954
2698.000000	0.004957
2697.000000	0.004951
2696.000000	0.004939
2695.000000	0.004924
2694.000000	0.004923
2693.000000	0.004953
2692.000000	0.004992
2691.000000	0.005008
2690.000000	0.004995
2689.000000	0.004977
2688.000000	0.004962
2687.000000	0.004950
2686.000000	0.004952
2685.000000	0.004982
2684.000000	0.005027
2683.000000	0.005061
2682.000000	0.005077
2681.000000	0.005080
2680.000000	0.005066
2679.000000	0.005029
2678.000000	0.004985
2677.000000	0.004957
2676.000000	0.004949
2675.000000	0.004945
2674.000000	0.004937
2673.000000	0.004927
2672.000000	0.004904
2671.000000	0.004866
2670.000000	0.004829
2669.000000	0.004811
2668.000000	0.004799
2667.000000	0.004769
2666.000000	0.004714
2665.000000	0.004628
2664.000000	0.004489
2663.000000	0.004288
2662.000000	0.004062
2661.000000	0.003868
2660.000000	0.003722
2659.000000	0.003603
2658.000000	0.003499
2657.000000	0.003414
2656.000000	0.003344
2655.000000	0.003270
2654.000000	0.003187
2653.000000	0.003100
2652.000000	0.003016
2651.000000	0.002947
2650.000000	0.002914
2649.000000	0.002916
2648.000000	0.002917
2647.000000	0.002884
2646.000000	0.002828
2645.000000	0.002781
2644.000000	0.002751
2643.000000	0.002734
2642.000000	0.002743
2641.000000	0.002779
2640.000000	0.002808
2639.000000	0.002798
2638.000000	0.002761
2637.000000	0.002733
2636.000000	0.002721
2635.000000	0.002709
2634.000000	0.002702
2633.000000	0.002712
2632.000000	0.002723
2631.000000	0.002708
2630.000000	0.002669
2629.000000	0.002625
2628.000000	0.002586
2627.000000	0.002559
2626.000000	0.002564
2625.000000	0.002605
2624.000000	0.002638
2623.000000	0.002625
2622.000000	0.002579
2621.000000	0.002543
2620.000000	0.002533
2619.000000	0.002543
2618.000000	0.002575
2617.000000	0.002622
2616.000000	0.002658
2615.000000	0.002675
2614.000000	0.002705
2613.000000	0.002753
2612.000000	0.002777
2611.000000	0.002757
2610.000000	0.002755
2609.000000	0.002833
2608.000000	0.002951
2607.000000	0.003027
2606.000000	0.003042
2605.000000	0.003038
2604.000000	0.003032
2603.000000	0.003015
2602.000000	0.003003
2601.000000	0.003021
2600.000000	0.003045
2599.000000	0.003031
2598.000000	0.002988
2597.000000	0.002972
2596.000000	0.003000
2595.000000	0.003045
2594.000000	0.003081
2593.000000	0.003099
2592.000000	0.003098
2591.000000	0.003102
2590.000000	0.003141
2589.000000	0.003195
2588.000000	0.003192
2587.000000	0.003111
2586.000000	0.003034
2585.000000	0.003046
2584.000000	0.003126
2583.000000	0.003198
2582.000000	0.003239
2581.000000	0.003270
2580.000000	0.003293
2579.000000	0.003309
2578.000000	0.003352
2577.000000	0.003432
2576.000000	0.003497
2575.000000	0.003493
2574.000000	0.003447
2573.000000	0.003414
2572.000000	0.003393
2571.000000	0.003353
2570.000000	0.003295
2569.000000	0.003241
2568.000000	0.003200
2567.000000	0.003202
2566.000000	0.003303
2565.000000	0.003491
2564.000000	0.003659
2563.000000	0.003717
2562.000000	0.003697
2561.000000	0.003673
2560.000000	0.003652
2559.000000	0.003617
2558.000000	0.003597
2557.000000	0.003613
2556.000000	0.003616
2555.000000	0.003571
2554.000000	0.003540
2553.000000	0.003589
2552.000000	0.003674
2551.000000	0.003705
2550.000000	0.003686
2549.000000	0.003682
2548.000000	0.003707
2547.000000	0.003715
2546.000000	0.003692
2545.000000	0.003651
2544.000000	0.003595
2543.000000	0.003545
2542.000000	0.003565
2541.000000	0.003681
2540.000000	0.003812
2539.000000	0.003864
2538.000000	0.003849
2537.000000	0.003838
2536.000000	0.003847
2535.000000	0.003833
2534.000000	0.003786
2533.000000	0.003718
2532.000000	0.003627
2531.000000	0.003539
2530.000000	0.003525
2529.000000	0.003610
2528.000000	0.003707
2527.000000	0.003727
2526.000000	0.003704
2525.000000	0.003723
2524.000000	0.003789
2523.000000	0.003838
2522.000000	0.003848
2521.000000	0.003833
2520.000000	0.003783
2519.000000	0.003698
2518.000000	0.003642
2517.000000	0.003674
2516.000000	0.003753
2515.000000	0.003802
2514.000000	0.003826
2513.000000	0.003881
2512.000000	0.003969
2511.000000	0.004036
2510.000000	0.004056
2509.000000	0.004036
2508.000000	0.003984
2507.000000	0.003920
2506.000000	0.003900
2505.000000	0.003946
2504.000000	0.004000
2503.000000	0.004005
2502.000000	0.003980
2501.000000	0.003966
2500.000000	0.003946
2499.000000	0.003898
2498.000000	0.003867
2497.000000	0.003903
2496.000000	0.003975
2495.000000	0.004014
2494.000000	0.004010
2493.000000	0.003981
2492.000000	0.003918
2491.000000	0.003814
2490.000000	0.003730
2489.000000	0.003725
2488.000000	0.003779
2487.000000	0.003844
2486.000000	0.003913
2485.000000	0.003990
2484.000000	0.004035
2483.000000	0.004030
2482.000000	0.004020
2481.000000	0.004052
2480.000000	0.004099
2479.000000	0.004112
2478.000000	0.004101
2477.000000	0.004086
2476.000000	0.004041
2475.000000	0.003952
2474.000000	0.003874
2473.000000	0.003844
2472.000000	0.003823
2471.000000	0.003777
2470.000000	0.003756
2469.000000	0.003804
2468.000000	0.003866
2467.000000	0.003859
2466.000000	0.003797
2465.000000	0.003750
2464.000000	0.003748
2463.000000	0.003780
2462.000000	0.003848
2461.000000	0.003923
2460.000000	0.003925
2459.000000	0.003824
2458.000000	0.003698
2457.000000	0.003629
2456.000000	0.003599
2455.000000	0.003557
2454.000000	0.003518
2453.000000	0.003507
2452.000000	0.003480
2451.000000	0.003405
2450.000000	0.003342
2449.000000	0.003349
2448.000000	0.003376
2447.000000	0.003364
2446.000000	0.003364
2445.000000	0.003456
2444.000000	0.003606
2443.000000	0.003714
2442.000000	0.003768
2441.000000	0.003835
2440.000000	0.003938
2439.000000	0.004025
2438.000000	0.004057
2437.000000	0.004028
2436.000000	0.003949
2435.000000	0.003873
2434.000000	0.003892
2433.000000	0.004028
2432.000000	0.004185
2431.000000	0.004276
2430.000000	0.004337
2429.000000	0.004421
2428.000000	0.004482
2427.000000	0.004441
2426.000000	0.004333
2425.000000	0.004255
2424.000000	0.004241
2423.000000	0.004266
2422.000000	0.004323
2421.000000	0.004408
2420.000000	0.004458
2419.000000	0.004428
2418.000000	0.004366
2417.000000	0.004352
2416.000000	0.004382
2415.000000	0.004403
2414.000000	0.004399
2413.000000	0.004381
2412.000000	0.004328
2411.000000	0.004245
2410.000000	0.004207
2409.000000	0.004278
2408.000000	0.004423
2407.000000	0.004572
2406.000000	0.004717
2405.000000	0.004859
2404.000000	0.004953
2403.000000	0.004973
2402.000000	0.004978
2401.000000	0.005020
2400.000000	0.005052
2399.000000	0.005021
2398.000000	0.004968
2397.000000	0.004956
2396.000000	0.004952
2395.000000	0.004904
2394.000000	0.004863
2393.000000	0.004908
2392.000000	0.004999
2391.000000	0.005026
2390.000000	0.004971
2389.000000	0.004907
2388.000000	0.004869
2387.000000	0.004814
2386.000000	0.004707
2385.000000	0.004537
2384.000000	0.004262
2383.000000	0.003857
2382.000000	0.003367
2381.000000	0.002871
2380.000000	0.002384
2379.000000	0.001882
2378.000000	0.001419
2377.000000	0.001106
2376.000000	0.001003
2375.000000	0.001123
2374.000000	0.001518
2373.000000	0.002180
2372.000000	0.002920
2371.000000	0.003468
2370.000000	0.003743
2369.000000	0.003892
2368.000000	0.003964
2367.000000	0.003831
2366.000000	0.003514
2365.000000	0.003241
2364.000000	0.003043
2363.000000	0.002674
2362.000000	0.002289
2361.000000	0.002290
2360.000000	0.002619
2359.000000	0.003167
2358.000000	0.003829
2357.000000	0.004748
2356.000000	0.006141
2355.000000	0.007635
2354.000000	0.009186
2353.000000	0.010474
2352.000000	0.010619
2351.000000	0.008912
2350.000000	0.006063
2349.000000	0.004197
2348.000000	0.003950
2347.000000	0.004514
2346.000000	0.004531
2345.000000	0.002987
2344.000000	0.000785
2343.000000	-0.000488
2342.000000	0.000267
2341.000000	0.001863
2340.000000	0.002869
2339.000000	0.003355
2338.000000	0.003564
2337.000000	0.003811
2336.000000	0.003874
2335.000000	0.003854
2334.000000	0.003919
2333.000000	0.004290
2332.000000	0.004726
2331.000000	0.005030
2330.000000	0.004936
2329.000000	0.004828
2328.000000	0.004467
2327.000000	0.003907
2326.000000	0.003265
2325.000000	0.002593
2324.000000	0.002309
2323.000000	0.002218
2322.000000	0.002613
2321.000000	0.003252
2320.000000	0.003946
2319.000000	0.004553
2318.000000	0.004894
2317.000000	0.005179
2316.000000	0.005278
2315.000000	0.005361
2314.000000	0.005207
2313.000000	0.004860
2312.000000	0.004234
2311.000000	0.003605
2310.000000	0.003116
2309.000000	0.002816
2308.000000	0.002552
2307.000000	0.002270
2306.000000	0.002051
2305.000000	0.001921
2304.000000	0.001833
2303.000000	0.001732
2302.000000	0.001640
2301.000000	0.001573
2300.000000	0.001448
2299.000000	0.001300
2298.000000	0.001175
2297.000000	0.001117
2296.000000	0.001051
2295.000000	0.000971
2294.000000	0.000931
2293.000000	0.000904
2292.000000	0.000820
2291.000000	0.000636
2290.000000	0.000489
2289.000000	0.000426
2288.000000	0.000405
2287.000000	0.000335
2286.000000	0.000255
2285.000000	0.000200
2284.000000	0.000192
2283.000000	0.000253
2282.000000	0.000426
2281.000000	0.000641
2280.000000	0.000776
2279.000000	0.000847
2278.000000	0.000984
2277.000000	0.001205
2276.000000	0.001352
2275.000000	0.001370
2274.000000	0.001358
2273.000000	0.001398
2272.000000	0.001424
2271.000000	0.001413
2270.000000	0.001440
2269.000000	0.001508
2268.000000	0.001525
2267.000000	0.001502
2266.000000	0.001590
2265.000000	0.001819
2264.000000	0.002018
2263.000000	0.002093
2262.000000	0.002142
2261.000000	0.002207
2260.000000	0.002186
2259.000000	0.002043
2258.000000	0.001939
2257.000000	0.001982
2256.000000	0.002109
2255.000000	0.002277
2254.000000	0.002528
2253.000000	0.002797
2252.000000	0.002874
2251.000000	0.002735
2250.000000	0.002576
2249.000000	0.002493
2248.000000	0.002354
2247.000000	0.002118
2246.000000	0.001985
2245.000000	0.002071
2244.000000	0.002216
2243.000000	0.002248
2242.000000	0.002197
2241.000000	0.002121
2240.000000	0.001999
2239.000000	0.001915
2238.000000	0.002053
2237.000000	0.002352
2236.000000	0.002496
2235.000000	0.002363
2234.000000	0.002197
2233.000000	0.002191
2232.000000	0.002243
2231.000000	0.002261
2230.000000	0.002368
2229.000000	0.002607
2228.000000	0.002786
2227.000000	0.002806
2226.000000	0.002828
2225.000000	0.002938
2224.000000	0.002979
2223.000000	0.002884
2222.000000	0.002835
2221.000000	0.002909
2220.000000	0.002909
2219.000000	0.002737
2218.000000	0.002580
2217.000000	0.002553
2216.000000	0.002507
2215.000000	0.002369
2214.000000	0.002312
2213.000000	0.002371
2212.000000	0.002296
2211.000000	0.001989
2210.000000	0.001705
2209.000000	0.001623
2208.000000	0.001594
2207.000000	0.001511
2206.000000	0.001551
2205.000000	0.001807
2204.000000	0.002078
2203.000000	0.002250
2202.000000	0.002482
2201.000000	0.002802
2200.000000	0.002926
2199.000000	0.002709
2198.000000	0.002375
2197.000000	0.002112
2196.000000	0.001831
2195.000000	0.001520
2194.000000	0.001392
2193.000000	0.001460
2192.000000	0.001418
2191.000000	0.001188
2190.000000	0.001121
2189.000000	0.001402
2188.000000	0.001732
2187.000000	0.001831
2186.000000	0.001804
2185.000000	0.001789
2184.000000	0.001753
2183.000000	0.001839
2182.000000	0.002338
2181.000000	0.003032
2180.000000	0.003223
2179.000000	0.002714
2178.000000	0.002156
2177.000000	0.002174
2176.000000	0.002658
2175.000000	0.003197
2174.000000	0.003586
2173.000000	0.003631
2172.000000	0.003079
2171.000000	0.002076
2170.000000	0.001162
2169.000000	0.000580
2168.000000	0.000060
2167.000000	-0.000501
2166.000000	-0.000783
2165.000000	-0.000790
2164.000000	-0.001123
2163.000000	-0.002031
2162.000000	-0.002776
2161.000000	-0.002335
2160.000000	-0.000295
2159.000000	0.003115
2158.000000	0.007085
2157.000000	0.010196
2156.000000	0.011389
2155.000000	0.011021
2154.000000	0.010252
2153.000000	0.009608
2152.000000	0.008806
2151.000000	0.007783
2150.000000	0.007020
2149.000000	0.006747
2148.000000	0.006649
2147.000000	0.006581
2146.000000	0.006814
2145.000000	0.007349
2144.000000	0.007696
2143.000000	0.007580
2142.000000	0.007241
2141.000000	0.006904
2140.000000	0.006534
2139.000000	0.006238
2138.000000	0.006343
2137.000000	0.006888
2136.000000	0.007544
2135.000000	0.008128
2134.000000	0.008684
2133.000000	0.009036
2132.000000	0.008862
2131.000000	0.008267
2130.000000	0.007735
2129.000000	0.007470
2128.000000	0.007208
2127.000000	0.006775
2126.000000	0.006344
2125.000000	0.006037
2124.000000	0.005739
2123.000000	0.005429
2122.000000	0.005279
2121.000000	0.005286
2120.000000	0.005201
2119.000000	0.004945
2118.000000	0.004707
2117.000000	0.004529
2116.000000	0.004203
2115.000000	0.003720
2114.000000	0.003395
2113.000000	0.003377
2112.000000	0.003425
2111.000000	0.003346
2110.000000	0.003288
2109.000000	0.003376
2108.000000	0.003454
2107.000000	0.003403
2106.000000	0.003369
2105.000000	0.003467
2104.000000	0.003574
2103.000000	0.003592
2102.000000	0.003579
2101.000000	0.003495
2100.000000	0.003193
2099.000000	0.002794
2098.000000	0.002701
2097.000000	0.003062
2096.000000	0.003582
2095.000000	0.004007
2094.000000	0.004366
2093.000000	0.004606
2092.000000	0.004503
2091.000000	0.004086
2090.000000	0.003722
2089.000000	0.003604
2088.000000	0.003533
2087.000000	0.003354
2086.000000	0.003187
2085.000000	0.003060
2084.000000	0.002756
2083.000000	0.002228
2082.000000	0.001773
2081.000000	0.001585
2080.000000	0.001523
2079.000000	0.001487
2078.000000	0.001614
2077.000000	0.001907
2076.000000	0.002085
2075.000000	0.002055
2074.000000	0.002030
2073.000000	0.002083
2072.000000	0.002025
2071.000000	0.001862
2070.000000	0.001895
2069.000000	0.002158
2068.000000	0.002291
2067.000000	0.002177
2066.000000	0.002154
2065.000000	0.002386
2064.000000	0.002549
2063.000000	0.002426
2062.000000	0.002241
2061.000000	0.002161
2060.000000	0.002030
2059.000000	0.001784
2058.000000	0.001621
2057.000000	0.001550
2056.000000	0.001332
2055.000000	0.000995
2054.000000	0.000729
2053.000000	0.000258
2052.000000	-0.000912
2051.000000	-0.002435
2050.000000	-0.003085
2049.000000	-0.002236
2048.000000	-0.000753
2047.000000	0.000283
2046.000000	0.000796
2045.000000	0.001063
2044.000000	0.000952
2043.000000	0.000516
2042.000000	0.000367
2041.000000	0.000727
2040.000000	0.000952
2039.000000	0.000669
2038.000000	0.000428
2037.000000	0.000641
2036.000000	0.000880
2035.000000	0.000871
2034.000000	0.001139
2033.000000	0.001899
2032.000000	0.002434
2031.000000	0.002397
2030.000000	0.002469
2029.000000	0.003103
2028.000000	0.003705
2027.000000	0.003801
2026.000000	0.003805
2025.000000	0.004034
2024.000000	0.004095
2023.000000	0.003837
2022.000000	0.003839
2021.000000	0.004295
2020.000000	0.004526
2019.000000	0.004187
2018.000000	0.003861
2017.000000	0.003895
2016.000000	0.003775
2015.000000	0.003299
2014.000000	0.003098
2013.000000	0.003430
2012.000000	0.003632
2011.000000	0.003335
2010.000000	0.003161
2009.000000	0.003650
2008.000000	0.004491
2007.000000	0.005351
2006.000000	0.006337
2005.000000	0.007199
2004.000000	0.007318
2003.000000	0.006764
2002.000000	0.006351
2001.000000	0.006241
2000.000000	0.005754
1999.000000	0.004732
1998.000000	0.003886
1997.000000	0.003651
1996.000000	0.003585
1995.000000	0.003309
1994.000000	0.003090
1993.000000	0.003125
1992.000000	0.003096
1991.000000	0.002917
1990.000000	0.003019
1989.000000	0.003426
1988.000000	0.003507
1987.000000	0.003055
1986.000000	0.002660
1985.000000	0.002584
1984.000000	0.002275
1983.000000	0.001358
1982.000000	0.000293
1981.000000	-0.000507
1980.000000	-0.001094
1979.000000	-0.001190
1978.000000	-0.000110
1977.000000	0.001959
1976.000000	0.003698
1975.000000	0.004428
1974.000000	0.004737
1973.000000	0.005105
1972.000000	0.005208
1971.000000	0.004912
1970.000000	0.004748
1969.000000	0.004937
1968.000000	0.005012
1967.000000	0.004794
1966.000000	0.004747
1965.000000	0.005016
1964.000000	0.005116
1963.000000	0.004944
1962.000000	0.005094
1961.000000	0.005863
1960.000000	0.006784
1959.000000	0.007424
1958.000000	0.007812
1957.000000	0.007876
1956.000000	0.007322
1955.000000	0.006321
1954.000000	0.005486
1953.000000	0.005100
1952.000000	0.004859
1951.000000	0.004635
1950.000000	0.004774
1949.000000	0.005259
1948.000000	0.005543
1947.000000	0.005436
1946.000000	0.005339
1945.000000	0.005456
1944.000000	0.005487
1943.000000	0.005312
1942.000000	0.005220
1941.000000	0.005252
1940.000000	0.005162
1939.000000	0.004968
1938.000000	0.004980
1937.000000	0.005249
1936.000000	0.005463
1935.000000	0.005521
1934.000000	0.005625
1933.000000	0.005838
1932.000000	0.005865
1931.000000	0.005655
1930.000000	0.005625
1929.000000	0.005760
1928.000000	0.005731
1927.000000	0.005454
1926.000000	0.005321
1925.000000	0.005492
1924.000000	0.005499
1923.000000	0.005187
1922.000000	0.004927
1921.000000	0.004863
1920.000000	0.004686
1919.000000	0.004293
1918.000000	0.004130
1917.000000	0.004297
1916.000000	0.004352
1915.000000	0.004222
1914.000000	0.004182
1913.000000	0.004276
1912.000000	0.004230
1911.000000	0.004085
1910.000000	0.004253
1909.000000	0.004614
1908.000000	0.004723
1907.000000	0.004486
1906.000000	0.004328
1905.000000	0.004401
1904.000000	0.004254
1903.000000	0.003929
1902.000000	0.003981
1901.000000	0.004352
1900.000000	0.004481
1899.000000	0.004207
1898.000000	0.003996
1897.000000	0.004082
1896.000000	0.004062
1895.000000	0.003821
1894.000000	0.003765
1893.000000	0.003971
1892.000000	0.004017
1891.000000	0.003804
1890.000000	0.003801
1889.000000	0.004083
1888.000000	0.004145
1887.000000	0.003969
1886.000000	0.003993
1885.000000	0.004227
1884.000000	0.004203
1883.000000	0.003920
1882.000000	0.003891
1881.000000	0.004122
1880.000000	0.004188
1879.000000	0.004025
1878.000000	0.003969
1877.000000	0.004128
1876.000000	0.004111
1875.000000	0.003791
1874.000000	0.003644
1873.000000	0.003873
1872.000000	0.004010
1871.000000	0.003760
1870.000000	0.003594
1869.000000	0.003942
1868.000000	0.004276
1867.000000	0.004245
1866.000000	0.004300
1865.000000	0.004529
1864.000000	0.004465
1863.000000	0.004052
1862.000000	0.003836
1861.000000	0.003980
1860.000000	0.004010
1859.000000	0.003774
1858.000000	0.003715
1857.000000	0.003943
1856.000000	0.004000
1855.000000	0.003750
1854.000000	0.003718
1853.000000	0.003899
1852.000000	0.003938
1851.000000	0.003835
1850.000000	0.003783
1849.000000	0.003846
1848.000000	0.003859
1847.000000	0.003858
1846.000000	0.003976
1845.000000	0.004121
1844.000000	0.004091
1843.000000	0.003903
1842.000000	0.003999
1841.000000	0.004337
1840.000000	0.004418
1839.000000	0.004087
1838.000000	0.003856
1837.000000	0.003963
1836.000000	0.003959
1835.000000	0.003720
1834.000000	0.003613
1833.000000	0.003677
1832.000000	0.003716
1831.000000	0.003653
1830.000000	0.003723
1829.000000	0.003939
1828.000000	0.004022
1827.000000	0.003958
1826.000000	0.003891
1825.000000	0.004013
1824.000000	0.004104
1823.000000	0.003948
1822.000000	0.003845
1821.000000	0.004013
1820.000000	0.004309
1819.000000	0.004461
1818.000000	0.004712
1817.000000	0.005245
1816.000000	0.005457
1815.000000	0.005066
1814.000000	0.004521
1813.000000	0.004385
1812.000000	0.004485
1811.000000	0.004286
1810.000000	0.004088
1809.000000	0.004217
1808.000000	0.004211
1807.000000	0.003805
1806.000000	0.003462
1805.000000	0.003511
1804.000000	0.003454
1803.000000	0.003109
1802.000000	0.002904
1801.000000	0.003231
1800.000000	0.003630
1799.000000	0.003558
1798.000000	0.003400
1797.000000	0.003511
1796.000000	0.003566
1795.000000	0.003357
1794.000000	0.003038
1793.000000	0.003063
1792.000000	0.003326
1791.000000	0.003278
1790.000000	0.003214
1789.000000	0.003407
1788.000000	0.003436
1787.000000	0.003053
1786.000000	0.002740
1785.000000	0.002811
1784.000000	0.002743
1783.000000	0.002590
1782.000000	0.002565
1781.000000	0.002755
1780.000000	0.003009
1779.000000	0.002991
1778.000000	0.002915
1777.000000	0.002904
1776.000000	0.003009
1775.000000	0.003145
1774.000000	0.002870
1773.000000	0.002370
1772.000000	0.002447
1771.000000	0.002636
1770.000000	0.002663
1769.000000	0.002771
1768.000000	0.002749
1767.000000	0.002427
1766.000000	0.001994
1765.000000	0.001904
1764.000000	0.001992
1763.000000	0.001879
1762.000000	0.001520
1761.000000	0.001298
1760.000000	0.001296
1759.000000	0.001363
1758.000000	0.001347
1757.000000	0.001150
1756.000000	0.001070
1755.000000	0.001068
1754.000000	0.000904
1753.000000	0.000425
1752.000000	0.000119
1751.000000	0.000278
1750.000000	0.000702
1749.000000	0.001190
1748.000000	0.001577
1747.000000	0.001787
1746.000000	0.001511
1745.000000	0.001102
1744.000000	0.001092
1743.000000	0.001245
1742.000000	0.001156
1741.000000	0.001008
1740.000000	0.000930
1739.000000	0.000791
1738.000000	0.000685
1737.000000	0.000901
1736.000000	0.000830
1735.000000	0.000116
1734.000000	0.000123
1733.000000	0.000366
1732.000000	0.000624
1731.000000	0.001197
1730.000000	0.001724
1729.000000	0.001775
1728.000000	0.001465
1727.000000	0.001221
1726.000000	0.000997
1725.000000	0.000982
1724.000000	0.001100
1723.000000	0.000999
1722.000000	0.000975
1721.000000	0.001334
1720.000000	0.001520
1719.000000	0.000837
1718.000000	0.000470
1717.000000	0.001358
1716.000000	0.002009
1715.000000	0.001994
1714.000000	0.002236
1713.000000	0.002814
1712.000000	0.002939
1711.000000	0.002529
1710.000000	0.002313
1709.000000	0.002508
1708.000000	0.002785
1707.000000	0.002871
1706.000000	0.003251
1705.000000	0.004078
1704.000000	0.004559
1703.000000	0.004705
1702.000000	0.004386
1701.000000	0.003900
1700.000000	0.004122
1699.000000	0.003900
1698.000000	0.004618
1697.000000	0.006228
1696.000000	0.006829
1695.000000	0.005921
1694.000000	0.005166
1693.000000	0.005697
1692.000000	0.006456
1691.000000	0.006581
1690.000000	0.006652
1689.000000	0.007065
1688.000000	0.007861
1687.000000	0.008430
1686.000000	0.007920
1685.000000	0.007095
1684.000000	0.007790
1683.000000	0.008556
1682.000000	0.009082
1681.000000	0.009627
1680.000000	0.010005
1679.000000	0.010314
1678.000000	0.010563
1677.000000	0.010529
1676.000000	0.010387
1675.000000	0.010786
1674.000000	0.011095
1673.000000	0.011374
1672.000000	0.011965
1671.000000	0.012723
1670.000000	0.013586
1669.000000	0.014084
1668.000000	0.014105
1667.000000	0.014226
1666.000000	0.014507
1665.000000	0.014709
1664.000000	0.014662
1663.000000	0.014995
1662.000000	0.015669
1661.000000	0.015874
1660.000000	0.016021
1659.000000	0.016449
1658.000000	0.016838
1657.000000	0.017162
1656.000000	0.017870
1655.000000	0.018016
1654.000000	0.017281
1653.000000	0.017982
1652.000000	0.016883
1651.000000	0.015808
1650.000000	0.016635
1649.000000	0.017966
1648.000000	0.018743
1647.000000	0.019349
1646.000000	0.019507
1645.000000	0.018977
1644.000000	0.018496
1643.000000	0.018501
1642.000000	0.018769
1641.000000	0.018771
1640.000000	0.018734
1639.000000	0.018861
1638.000000	0.019137
1637.000000	0.019268
1636.000000	0.019732
1635.000000	0.020027
1634.000000	0.019486
1633.000000	0.019178
1632.000000	0.019153
1631.000000	0.019072
1630.000000	0.018956
1629.000000	0.018913
1628.000000	0.018819
1627.000000	0.018726
1626.000000	0.018574
1625.000000	0.018207
1624.000000	0.017756
1623.000000	0.017614
1622.000000	0.017499
1621.000000	0.017068
1620.000000	0.016777
1619.000000	0.016634
1618.000000	0.016169
1617.000000	0.015247
1616.000000	0.014266
1615.000000	0.013737
1614.000000	0.013817
1613.000000	0.013841
1612.000000	0.013343
1611.000000	0.012931
1610.000000	0.012965
1609.000000	0.012946
1608.000000	0.012637
1607.000000	0.012509
1606.000000	0.012464
1605.000000	0.012025
1604.000000	0.011540
1603.000000	0.011435
1602.000000	0.011444
1601.000000	0.011177
1600.000000	0.010815
1599.000000	0.010714
1598.000000	0.010688
1597.000000	0.010467
1596.000000	0.010212
1595.000000	0.010234
1594.000000	0.010396
1593.000000	0.010322
1592.000000	0.010071
1591.000000	0.010013
1590.000000	0.010151
1589.000000	0.010134
1588.000000	0.009976
1587.000000	0.009989
1586.000000	0.010228
1585.000000	0.010144
1584.000000	0.009895
1583.000000	0.010109
1582.000000	0.010499
1581.000000	0.010475
1580.000000	0.010432
1579.000000	0.010909
1578.000000	0.011262
1577.000000	0.010935
1576.000000	0.010571
1575.000000	0.010601
1574.000000	0.010901
1573.000000	0.011330
1572.000000	0.011639
1571.000000	0.011756
1570.000000	0.012144
1569.000000	0.012342
1568.000000	0.012338
1567.000000	0.012722
1566.000000	0.013304
1565.000000	0.013460
1564.000000	0.013668
1563.000000	0.014378
1562.000000	0.015118
1561.000000	0.013787
1560.000000	0.011456
1559.000000	0.013758
1558.000000	0.015972
1557.000000	0.015296
1556.000000	0.015086
1555.000000	0.015673
1554.000000	0.015798
1553.000000	0.015330
1552.000000	0.015352
1551.000000	0.015854
1550.000000	0.016351
1549.000000	0.016446
1548.000000	0.016265
1547.000000	0.016219
1546.000000	0.016247
1545.000000	0.016273
1544.000000	0.016561
1543.000000	0.016797
1542.000000	0.016698
1541.000000	0.016853
1540.000000	0.017598
1539.000000	0.017418
1538.000000	0.016286
1537.000000	0.015862
1536.000000	0.016025
1535.000000	0.016114
1534.000000	0.016114
1533.000000	0.016316
1532.000000	0.016246
1531.000000	0.015825
1530.000000	0.015533
1529.000000	0.015510
1528.000000	0.015482
1527.000000	0.015384
1526.000000	0.015267
1525.000000	0.015174
1524.000000	0.015173
1523.000000	0.015035
1522.000000	0.014888
1521.000000	0.014758
1520.000000	0.014192
1519.000000	0.013821
1518.000000	0.013988
1517.000000	0.014483
1516.000000	0.014651
1515.000000	0.014251
1514.000000	0.013724
1513.000000	0.013436
1512.000000	0.013195
1511.000000	0.012741
1510.000000	0.012350
1509.000000	0.012253
1508.000000	0.012566
1507.000000	0.013486
1506.000000	0.013490
1505.000000	0.011907
1504.000000	0.010833
1503.000000	0.010567
1502.000000	0.010335
1501.000000	0.009912
1500.000000	0.009496
1499.000000	0.009027
1498.000000	0.008551
1497.000000	0.008749
1496.000000	0.009178
1495.000000	0.009158
1494.000000	0.009205
1493.000000	0.009716
1492.000000	0.010136
1491.000000	0.010109
1490.000000	0.010249
1489.000000	0.010839
1488.000000	0.011008
1487.000000	0.010387
1486.000000	0.009848
1485.000000	0.009461
1484.000000	0.009039
1483.000000	0.008689
1482.000000	0.008558
1481.000000	0.008649
1480.000000	0.008580
1479.000000	0.008274
1478.000000	0.008036
1477.000000	0.008186
1476.000000	0.008348
1475.000000	0.008308
1474.000000	0.008417
1473.000000	0.009055
1472.000000	0.009726
1471.000000	0.009659
1470.000000	0.009405
1469.000000	0.009528
1468.000000	0.009657
1467.000000	0.009510
1466.000000	0.009421
1465.000000	0.009662
1464.000000	0.010045
1463.000000	0.010054
1462.000000	0.009909
1461.000000	0.009954
1460.000000	0.010146
1459.000000	0.010053
1458.000000	0.009864
1457.000000	0.010319
1456.000000	0.010534
1455.000000	0.010469
1454.000000	0.010779
1453.000000	0.011272
1452.000000	0.011667
1451.000000	0.011803
1450.000000	0.011775
1449.000000	0.011967
1448.000000	0.012248
1447.000000	0.012345
1446.000000	0.012003
1445.000000	0.011509
1444.000000	0.011437
1443.000000	0.011447
1442.000000	0.011137
1441.000000	0.010773
1440.000000	0.010865
1439.000000	0.010941
1438.000000	0.010432
1437.000000	0.010014
1436.000000	0.010231
1435.000000	0.010381
1434.000000	0.010289
1433.000000	0.010277
1432.000000	0.010427
1431.000000	0.010518
1430.000000	0.010339
1429.000000	0.010182
1428.000000	0.010064
1427.000000	0.009958
1426.000000	0.009723
1425.000000	0.009478
1424.000000	0.009816
1423.000000	0.010340
1422.000000	0.010318
1421.000000	0.009717
1420.000000	0.009281
1419.000000	0.009411
1418.000000	0.009459
1417.000000	0.009540
1416.000000	0.010026
1415.000000	0.010367
1414.000000	0.010064
1413.000000	0.009556
1412.000000	0.009547
1411.000000	0.009781
1410.000000	0.009642
1409.000000	0.009380
1408.000000	0.009340
1407.000000	0.009494
1406.000000	0.009642
1405.000000	0.009815
1404.000000	0.010210
1403.000000	0.010484
1402.000000	0.010373
1401.000000	0.010100
1400.000000	0.010120
1399.000000	0.010417
1398.000000	0.010528
1397.000000	0.010508
1396.000000	0.010606
1395.000000	0.010762
1394.000000	0.010498
1393.000000	0.009899
1392.000000	0.009624
1391.000000	0.009656
1390.000000	0.009495
1389.000000	0.009075
1388.000000	0.008774
1387.000000	0.008750
1386.000000	0.008757
1385.000000	0.008701
1384.000000	0.008765
1383.000000	0.008803
1382.000000	0.008628
1381.000000	0.008341
1380.000000	0.008101
1379.000000	0.007929
1378.000000	0.007720
1377.000000	0.007477
1376.000000	0.007355
1375.000000	0.007525
1374.000000	0.007750
1373.000000	0.007680
1372.000000	0.007341
1371.000000	0.007058
1370.000000	0.006912
1369.000000	0.006741
1368.000000	0.006555
1367.000000	0.006357
1366.000000	0.006095
1365.000000	0.005844
1364.000000	0.005793
1363.000000	0.006020
1362.000000	0.006287
1361.000000	0.006340
1360.000000	0.006249
1359.000000	0.006175
1358.000000	0.006112
1357.000000	0.006026
1356.000000	0.005975
1355.000000	0.006007
1354.000000	0.006051
1353.000000	0.006111
1352.000000	0.006155
1351.000000	0.006247
1350.000000	0.006401
1349.000000	0.006529
1348.000000	0.006666
1347.000000	0.006839
1346.000000	0.006998
1345.000000	0.007079
1344.000000	0.007103
1343.000000	0.007125
1342.000000	0.007180
1341.000000	0.007331
1340.000000	0.007655
1339.000000	0.008067
1338.000000	0.008328
1337.000000	0.008371
1336.000000	0.008326
1335.000000	0.008265
1334.000000	0.008173
1333.000000	0.008072
1332.000000	0.008035
1331.000000	0.008058
1330.000000	0.008033
1329.000000	0.007921
1328.000000	0.007800
1327.000000	0.007746
1326.000000	0.007707
1325.000000	0.007621
1324.000000	0.007563
1323.000000	0.007561
1322.000000	0.007530
1321.000000	0.007452
1320.000000	0.007446
1319.000000	0.007555
1318.000000	0.007642
1317.000000	0.007617
1316.000000	0.007547
1315.000000	0.007500
1314.000000	0.007453
1313.000000	0.007403
1312.000000	0.007399
1311.000000	0.007420
1310.000000	0.007369
1309.000000	0.007250
1308.000000	0.007155
1307.000000	0.007124
1306.000000	0.007090
1305.000000	0.007028
1304.000000	0.007007
1303.000000	0.007027
1302.000000	0.006997
1301.000000	0.006899
1300.000000	0.006822
1299.000000	0.006785
1298.000000	0.006719
1297.000000	0.006631
1296.000000	0.006615
1295.000000	0.006679
1294.000000	0.006712
1293.000000	0.006678
1292.000000	0.006658
1291.000000	0.006699
1290.000000	0.006765
1289.000000	0.006854
1288.000000	0.007001
1287.000000	0.007153
1286.000000	0.007202
1285.000000	0.007168
1284.000000	0.007180
1283.000000	0.007268
1282.000000	0.007339
1281.000000	0.007360
1280.000000	0.007387
1279.000000	0.007423
1278.000000	0.007394
1277.000000	0.007297
1276.000000	0.007213
1275.000000	0.007165
1274.000000	0.007089
1273.000000	0.006996
1272.000000	0.006976
1271.000000	0.007021
1270.000000	0.007016
1269.000000	0.006921
1268.000000	0.006831
1267.000000	0.006806
1266.000000	0.006809
1265.000000	0.006836
1264.000000	0.006949
1263.000000	0.007142
1262.000000	0.007346
1261.000000	0.007560
1260.000000	0.007834
1259.000000	0.008113
1258.000000	0.008260
1257.000000	0.008277
1256.000000	0.008291
1255.000000	0.008347
1254.000000	0.008370
1253.000000	0.008347
1252.000000	0.008361
1251.000000	0.008432
1250.000000	0.008491
1249.000000	0.008528
1248.000000	0.008626
1247.000000	0.008798
1246.000000	0.008941
1245.000000	0.009006
1244.000000	0.009046
1243.000000	0.009081
1242.000000	0.009063
1241.000000	0.008998
1240.000000	0.008953
1239.000000	0.008918
1238.000000	0.008816
1237.000000	0.008650
1236.000000	0.008511
1235.000000	0.008415
1234.000000	0.008283
1233.000000	0.008089
1232.000000	0.007895
1231.000000	0.007724
1230.000000	0.007534
1229.000000	0.007336
1228.000000	0.007194
1227.000000	0.007109
1226.000000	0.007016
1225.000000	0.006914
1224.000000	0.006843
1223.000000	0.006751
1222.000000	0.006528
1221.000000	0.006164
1220.000000	0.005770
1219.000000	0.005432
1218.000000	0.005175
1217.000000	0.005054
1216.000000	0.005113
1215.000000	0.005271
1214.000000	0.005389
1213.000000	0.005443
1212.000000	0.005507
1211.000000	0.005581
1210.000000	0.005590
1209.000000	0.005546
1208.000000	0.005543
1207.000000	0.005600
1206.000000	0.005643
1205.000000	0.005655
1204.000000	0.005694
1203.000000	0.005763
1202.000000	0.005808
1201.000000	0.005837
1200.000000	0.005903
1199.000000	0.005985
1198.000000	0.005998
1197.000000	0.005943
1196.000000	0.005892
1195.000000	0.005853
1194.000000	0.005773
1193.000000	0.005672
1192.000000	0.005624
1191.000000	0.005623
1190.000000	0.005590
1189.000000	0.005518
1188.000000	0.005473
1187.000000	0.005447
1186.000000	0.005346
1185.000000	0.005135
1184.000000	0.004896
1183.000000	0.004730
1182.000000	0.004709
1181.000000	0.004878
1180.000000	0.005188
1179.000000	0.005460
1178.000000	0.005533
1177.000000	0.005446
1176.000000	0.005344
1175.000000	0.005280
1174.000000	0.005209
1173.000000	0.005137
1172.000000	0.005120
1171.000000	0.005141
1170.000000	0.005124
1169.000000	0.005080
1168.000000	0.005086
1167.000000	0.005146
1166.000000	0.005203
1165.000000	0.005257
1164.000000	0.005357
1163.000000	0.005469
1162.000000	0.005511
1161.000000	0.005499
1160.000000	0.005521
1159.000000	0.005582
1158.000000	0.005594
1157.000000	0.005522
1156.000000	0.005418
1155.000000	0.005312
1154.000000	0.005200
1153.000000	0.005120
1152.000000	0.005127
1151.000000	0.005186
1150.000000	0.005213
1149.000000	0.005205
1148.000000	0.005215
1147.000000	0.005224
1146.000000	0.005166
1145.000000	0.005058
1144.000000	0.004977
1143.000000	0.004930
1142.000000	0.004864
1141.000000	0.004788
1140.000000	0.004750
1139.000000	0.004727
1138.000000	0.004650
1137.000000	0.004535
1136.000000	0.004465
1135.000000	0.004446
1134.000000	0.004414
1133.000000	0.004366
1132.000000	0.004346
1131.000000	0.004346
1130.000000	0.004310
1129.000000	0.004262
1128.000000	0.004275
1127.000000	0.004341
1126.000000	0.004389
1125.000000	0.004401
1124.000000	0.004408
1123.000000	0.004403
1122.000000	0.004356
1121.000000	0.004316
1120.000000	0.004350
1119.000000	0.004423
1118.000000	0.004441
1117.000000	0.004407
1116.000000	0.004397
1115.000000	0.004421
1114.000000	0.004426
1113.000000	0.004414
1112.000000	0.004426
1111.000000	0.004449
1110.000000	0.004446
1109.000000	0.004462
1108.000000	0.004566
1107.000000	0.004707
1106.000000	0.004780
1105.000000	0.004784
1104.000000	0.004803
1103.000000	0.004858
1102.000000	0.004906
1101.000000	0.004958
1100.000000	0.005049
1099.000000	0.005134
1098.000000	0.005139
1097.000000	0.005097
1096.000000	0.005104
1095.000000	0.005167
1094.000000	0.005228
1093.000000	0.005288
1092.000000	0.005379
1091.000000	0.005466
1090.000000	0.005503
1089.000000	0.005557
1088.000000	0.005725
1087.000000	0.005971
1086.000000	0.006173
1085.000000	0.006294
1084.000000	0.006395
1083.000000	0.006494
1082.000000	0.006568
1081.000000	0.006644
1080.000000	0.006750
1079.000000	0.006834
1078.000000	0.006826
1077.000000	0.006766
1076.000000	0.006732
1075.000000	0.006683
1074.000000	0.006532
1073.000000	0.006309
1072.000000	0.006132
1071.000000	0.006037
1070.000000	0.005982
1069.000000	0.005964
1068.000000	0.006009
1067.000000	0.006067
1066.000000	0.006065
1065.000000	0.006038
1064.000000	0.006073
1063.000000	0.006163
1062.000000	0.006227
1061.000000	0.006239
1060.000000	0.006222
1059.000000	0.006148
1058.000000	0.005981
1057.000000	0.005772
1056.000000	0.005610
1055.000000	0.005506
1054.000000	0.005441
1053.000000	0.005460
1052.000000	0.005622
1051.000000	0.005884
1050.000000	0.006163
1049.000000	0.006457
1048.000000	0.006759
1047.000000	0.006942
1046.000000	0.006898
1045.000000	0.006707
1044.000000	0.006547
1043.000000	0.006468
1042.000000	0.006408
1041.000000	0.006350
1040.000000	0.006339
1039.000000	0.006361
1038.000000	0.006356
1037.000000	0.006341
1036.000000	0.006371
1035.000000	0.006426
1034.000000	0.006453
1033.000000	0.006482
1032.000000	0.006576
1031.000000	0.006696
1030.000000	0.006748
1029.000000	0.006734
1028.000000	0.006720
1027.000000	0.006714
1026.000000	0.006674
1025.000000	0.006620
1024.000000	0.006598
1023.000000	0.006583
1022.000000	0.006514
1021.000000	0.006421
1020.000000	0.006376
1019.000000	0.006374
1018.000000	0.006367
1017.000000	0.006363
1016.000000	0.006391
1015.000000	0.006393
1014.000000	0.006301
1013.000000	0.006154
1012.000000	0.006044
1011.000000	0.005973
1010.000000	0.005881
1009.000000	0.005778
1008.000000	0.005710
1007.000000	0.005652
1006.000000	0.005542
1005.000000	0.005397
1004.000000	0.005286
1003.000000	0.005215
1002.000000	0.005140
1001.000000	0.005055
1000.000000	0.004973
999.000000	0.004859
998.000000	0.004688
997.000000	0.004524
996.000000	0.004442
995.000000	0.004404
994.000000	0.004322
993.000000	0.004197
992.000000	0.004092
991.000000	0.004013
990.000000	0.003920
989.000000	0.003824
988.000000	0.003763
987.000000	0.003714
986.000000	0.003630
985.000000	0.003535
984.000000	0.003477
983.000000	0.003440
982.000000	0.003382
981.000000	0.003327
980.000000	0.003318
979.000000	0.003316
978.000000	0.003262
977.000000	0.003184
976.000000	0.003148
975.000000	0.003148
974.000000	0.003142
973.000000	0.003138
972.000000	0.003163
971.000000	0.003179
970.000000	0.003132
969.000000	0.003043
968.000000	0.002957
967.000000	0.002845
966.000000	0.002677
965.000000	0.002518
964.000000	0.002446
963.000000	0.002434
962.000000	0.002406
961.000000	0.002372
960.000000	0.002392
959.000000	0.002440
958.000000	0.002436
957.000000	0.002366
956.000000	0.002267
955.000000	0.002137
954.000000	0.001972
953.000000	0.001837
952.000000	0.001798
951.000000	0.001820
950.000000	0.001833
949.000000	0.001843
948.000000	0.001895
947.000000	0.001951
946.000000	0.001944
945.000000	0.001889
944.000000	0.001849
943.000000	0.001818
942.000000	0.001764
941.000000	0.001725
940.000000	0.001761
939.000000	0.001839
938.000000	0.001882
937.000000	0.001883
936.000000	0.001882
935.000000	0.001866
934.000000	0.001807
933.000000	0.001746
932.000000	0.001730
931.000000	0.001719
930.000000	0.001651
929.000000	0.001568
928.000000	0.001548
927.000000	0.001573
926.000000	0.001567
925.000000	0.001517
924.000000	0.001467
923.000000	0.001420
922.000000	0.001355
921.000000	0.001309
920.000000	0.001316
919.000000	0.001321
918.000000	0.001256
917.000000	0.001154
916.000000	0.001100
915.000000	0.001091
914.000000	0.001069
913.000000	0.001031
912.000000	0.001023
911.000000	0.001034
910.000000	0.001021
909.000000	0.000986
908.000000	0.000960
907.000000	0.000931
906.000000	0.000890
905.000000	0.000880
904.000000	0.000930
903.000000	0.000989
902.000000	0.001007
901.000000	0.001021
900.000000	0.001068
899.000000	0.001078
898.000000	0.000976
897.000000	0.000811
896.000000	0.000691
895.000000	0.000636
894.000000	0.000606
893.000000	0.000606
892.000000	0.000649
891.000000	0.000681
890.000000	0.000647
889.000000	0.000594
888.000000	0.000600
887.000000	0.000650
886.000000	0.000684
885.000000	0.000701
884.000000	0.000735
883.000000	0.000776
882.000000	0.000820
881.000000	0.000927
880.000000	0.001128
879.000000	0.001357
878.000000	0.001546
877.000000	0.001725
876.000000	0.001908
875.000000	0.001995
874.000000	0.001916
873.000000	0.001768
872.000000	0.001686
871.000000	0.001674
870.000000	0.001647
869.000000	0.001598
868.000000	0.001562
867.000000	0.001512
866.000000	0.001411
865.000000	0.001310
864.000000	0.001272
863.000000	0.001268
862.000000	0.001246
861.000000	0.001237
860.000000	0.001283
859.000000	0.001337
858.000000	0.001333
857.000000	0.001298
856.000000	0.001286
855.000000	0.001270
854.000000	0.001211
853.000000	0.001155
852.000000	0.001155
851.000000	0.001165
850.000000	0.001137
849.000000	0.001126
848.000000	0.001192
847.000000	0.001277
846.000000	0.001292
845.000000	0.001259
844.000000	0.001245
843.000000	0.001239
842.000000	0.001191
841.000000	0.001131
840.000000	0.001124
839.000000	0.001157
838.000000	0.001166
837.000000	0.001137
836.000000	0.001065
835.000000	0.000920
834.000000	0.000709
833.000000	0.000533
832.000000	0.000476
831.000000	0.000501
830.000000	0.000534
829.000000	0.000561
828.000000	0.000583
827.000000	0.000566
826.000000	0.000546
825.000000	0.000658
824.000000	0.000947
823.000000	0.001264
822.000000	0.001452
821.000000	0.001542
820.000000	0.001618
819.000000	0.001651
818.000000	0.001581
817.000000	0.001452
816.000000	0.001333
815.000000	0.001212
814.000000	0.001077
813.000000	0.000997
812.000000	0.001025
811.000000	0.001100
810.000000	0.001139
809.000000	0.001150
808.000000	0.001138
807.000000	0.001053
806.000000	0.000908
805.000000	0.000833
804.000000	0.000898
803.000000	0.000995
802.000000	0.001017
801.000000	0.001017
800.000000	0.001074
799.000000	0.001127
798.000000	0.001100
797.000000	0.001053
796.000000	0.001071
795.000000	0.001103
794.000000	0.001064
793.000000	0.001007
792.000000	0.001033
791.000000	0.001117
790.000000	0.001169
789.000000	0.001194
788.000000	0.001237
787.000000	0.001259
786.000000	0.001198
785.000000	0.001099
784.000000	0.001070
783.000000	0.001128
782.000000	0.001210
781.000000	0.001269
780.000000	0.001276
779.000000	0.001185
778.000000	0.000999
777.000000	0.000818
776.000000	0.000733
775.000000	0.000729
774.000000	0.000743
773.000000	0.000755
772.000000	0.000755
771.000000	0.000716
770.000000	0.000655
769.000000	0.000653
768.000000	0.000732
767.000000	0.000810
766.000000	0.000833
765.000000	0.000850
764.000000	0.000897
763.000000	0.000915
762.000000	0.000856
761.000000	0.000775
760.000000	0.000737
759.000000	0.000717
758.000000	0.000688
757.000000	0.000689
756.000000	0.000731
755.000000	0.000739
754.000000	0.000668
753.000000	0.000591
752.000000	0.000584
751.000000	0.000615
750.000000	0.000629
749.000000	0.000639
748.000000	0.000674
747.000000	0.000712
746.000000	0.000741
745.000000	0.000800
744.000000	0.000884
743.000000	0.000913
742.000000	0.000850
741.000000	0.000754
740.000000	0.000680
739.000000	0.000623
738.000000	0.000598
737.000000	0.000652
736.000000	0.000756
735.000000	0.000805
734.000000	0.000788
733.000000	0.000810
732.000000	0.000919
731.000000	0.001025
730.000000	0.001052
729.000000	0.001043
728.000000	0.001062
727.000000	0.001103
726.000000	0.001168
725.000000	0.001310
724.000000	0.001497
723.000000	0.001596
722.000000	0.001560
721.000000	0.001508
720.000000	0.001545
719.000000	0.001641
718.000000	0.001748
717.000000	0.001893
716.000000	0.002067
715.000000	0.002170
714.000000	0.002155
713.000000	0.002101
712.000000	0.002059
711.000000	0.001984
710.000000	0.001871
709.000000	0.001819
708.000000	0.001873
707.000000	0.001934
706.000000	0.001916
705.000000	0.001881
704.000000	0.001895
703.000000	0.001915
702.000000	0.001923
701.000000	0.001959
700.000000	0.001994
699.000000	0.001930
698.000000	0.001762
697.000000	0.001630
696.000000	0.001589
695.000000	0.001529
694.000000	0.001411
693.000000	0.001312
692.000000	0.001255
691.000000	0.001171
690.000000	0.001078
689.000000	0.001140
688.000000	0.001397
687.000000	0.001670
686.000000	0.001834
685.000000	0.001912
684.000000	0.001911
683.000000	0.001802
682.000000	0.001667
681.000000	0.001646
680.000000	0.001719
679.000000	0.001748
678.000000	0.001753
677.000000	0.001785
676.000000	0.001808
675.000000	0.001841
674.000000	0.001892
673.000000	0.001920
672.000000	0.001661
671.000000	0.001100
670.000000	0.001052
669.000000	0.002964
668.000000	0.006936
667.000000	0.011045
666.000000	0.012076
665.000000	0.009038
664.000000	0.005175
663.000000	0.002803
662.000000	0.001981
661.000000	0.001824
660.000000	0.001842
659.000000	0.001956
658.000000	0.002111
657.000000	0.002192
656.000000	0.002227
655.000000	0.002267
654.000000	0.002151
653.000000	0.001924
652.000000	0.001827
651.000000	0.001919
650.000000	0.002048
649.000000	0.002173
648.000000	0.002403
647.000000	0.002674
646.000000	0.002793
645.000000	0.002768
644.000000	0.002747
643.000000	0.002741
642.000000	0.002660
641.000000	0.002546
640.000000	0.002534
639.000000	0.002581
638.000000	0.002533
637.000000	0.002429
636.000000	0.002432
635.000000	0.002527
634.000000	0.002574
633.000000	0.002564
632.000000	0.002559
631.000000	0.002498
630.000000	0.002331
629.000000	0.002233
628.000000	0.002389
627.000000	0.002661
626.000000	0.002778
625.000000	0.002747
624.000000	0.002748
623.000000	0.002791
622.000000	0.002742
621.000000	0.002627
620.000000	0.002579
619.000000	0.002584
618.000000	0.002585
617.000000	0.002700
616.000000	0.003028
615.000000	0.003347
614.000000	0.003353
613.000000	0.003115
612.000000	0.002939
611.000000	0.002898
610.000000	0.002831
609.000000	0.002701
608.000000	0.002641
607.000000	0.002678
606.000000	0.002737
605.000000	0.002873
604.000000	0.003137
603.000000	0.003326
602.000000	0.003188
601.000000	0.002802
600.000000	0.002499
599.000000	0.002442
598.000000	0.002517
597.000000	0.002636
596.000000	0.002847
595.000000	0.003149
594.000000	0.003439
593.000000	0.003658
592.000000	0.003788
591.000000	0.003762
590.000000	0.003586
589.000000	0.003443
588.000000	0.003485
587.000000	0.003600
586.000000	0.003598
585.000000	0.003530
584.000000	0.003557
583.000000	0.003633
582.000000	0.003568
581.000000	0.003343
580.000000	0.003098
579.000000	0.002901
578.000000	0.002775
577.000000	0.002872
576.000000	0.003268
575.000000	0.003699
574.000000	0.003832
573.000000	0.003733
572.000000	0.003724
571.000000	0.003896
570.000000	0.004080
569.000000	0.004169
568.000000	0.004184
567.000000	0.004040
566.000000	0.003686
565.000000	0.003346
564.000000	0.003318
563.000000	0.003558
562.000000	0.003753
561.000000	0.003776
560.000000	0.003716
559.000000	0.003586
558.000000	0.003344
557.000000	0.003122
556.000000	0.003058
555.000000	0.003030
554.000000	0.002884
553.000000	0.002806
552.000000	0.003076
551.000000	0.003581
550.000000	0.003910
549.000000	0.003914
548.000000	0.003787
547.000000	0.003673
546.000000	0.003592
545.000000	0.003630
544.000000	0.003859
543.000000	0.004064
542.000000	0.003943
541.000000	0.003548
540.000000	0.003202
539.000000	0.003026
538.000000	0.002876
537.000000	0.002707
536.000000	0.002662
535.000000	0.002798
534.000000	0.003047
533.000000	0.003406
532.000000	0.003802
531.000000	0.003984
530.000000	0.003790
529.000000	0.003438
528.000000	0.003267
527.000000	0.003344
526.000000	0.003477
525.000000	0.003556
524.000000	0.003631
523.000000	0.003658
522.000000	0.003584
521.000000	0.003547
520.000000	0.003663
519.000000	0.003762
518.000000	0.003630
517.000000	0.003385
516.000000	0.003286
515.000000	0.003321
514.000000	0.003338
513.000000	0.003334
512.000000	0.003328
511.000000	0.003161
510.000000	0.002757
509.000000	0.002317
508.000000	0.002017
507.000000	0.001797
506.000000	0.001577
505.000000	0.001545
504.000000	0.001850
503.000000	0.002274
502.000000	0.002487
501.000000	0.002473
500.000000	0.002442
499.000000	0.002433
498.000000	0.002384
497.000000	0.002381
496.000000	0.002500
495.000000	0.002605
494.000000	0.002574
493.000000	0.002493
492.000000	0.002492
491.000000	0.002496
490.000000	0.002394
489.000000	0.002287
488.000000	0.002262
487.000000	0.002211
486.000000	0.002028
485.000000	0.001862
484.000000	0.001910
483.000000	0.002137
482.000000	0.002379
481.000000	0.002536
480.000000	0.002537
479.000000	0.002307
478.000000	0.001958
477.000000	0.001824
476.000000	0.001996
475.000000	0.002112
474.000000	0.001970
473.000000	0.001954
472.000000	0.002390
471.000000	0.002872
470.000000	0.002810
469.000000	0.002347
468.000000	0.001992
467.000000	0.001747
466.000000	0.001334
465.000000	0.000949
464.000000	0.001036
463.000000	0.001524
462.000000	0.001856
461.000000	0.001739
460.000000	0.001362
459.000000	0.000932
458.000000	0.000552
457.000000	0.000422
456.000000	0.000545
455.000000	0.000542
454.000000	0.000269
453.000000	0.000076
452.000000	0.000412
451.000000	0.000900
450.000000	0.000985
