PE IR       SUBTECH     SPECTRUM    ASCII       PEDS        4.00        
   -1
3C-N10-F004_1.ASC
22/02/16
15:20:15.00
22/02/16
15:56:00.00
uco
Sample 004 By uco Date Wednesday, February 16 2022
450.000000
#HDR
-1
-1
#GR
cm-1
A
1.0
0.0
4000.000000
-1.000000
3551
8
0.034064
0.003037
#DATA
4000.000000	0.003371
3999.000000	0.003367
3998.000000	0.003363
3997.000000	0.003359
3996.000000	0.003363
3995.000000	0.003369
3994.000000	0.003375
3993.000000	0.003379
3992.000000	0.003380
3991.000000	0.003378
3990.000000	0.003379
3989.000000	0.003389
3988.000000	0.003410
3987.000000	0.003436
3986.000000	0.003458
3985.000000	0.003469
3984.000000	0.003470
3983.000000	0.003463
3982.000000	0.003452
3981.000000	0.003437
3980.000000	0.003419
3979.000000	0.003399
3978.000000	0.003386
3977.000000	0.003386
3976.000000	0.003400
3975.000000	0.003419
3974.000000	0.003433
3973.000000	0.003435
3972.000000	0.003424
3971.000000	0.003408
3970.000000	0.003397
3969.000000	0.003398
3968.000000	0.003411
3967.000000	0.003429
3966.000000	0.003440
3965.000000	0.003443
3964.000000	0.003446
3963.000000	0.003459
3962.000000	0.003484
3961.000000	0.003513
3960.000000	0.003534
3959.000000	0.003543
3958.000000	0.003541
3957.000000	0.003535
3956.000000	0.003533
3955.000000	0.003537
3954.000000	0.003549
3953.000000	0.003562
3952.000000	0.003563
3951.000000	0.003546
3950.000000	0.003513
3949.000000	0.003477
3948.000000	0.003450
3947.000000	0.003437
3946.000000	0.003437
3945.000000	0.003448
3944.000000	0.003467
3943.000000	0.003494
3942.000000	0.003525
3941.000000	0.003550
3940.000000	0.003561
3939.000000	0.003551
3938.000000	0.003525
3937.000000	0.003498
3936.000000	0.003485
3935.000000	0.003490
3934.000000	0.003501
3933.000000	0.003504
3932.000000	0.003494
3931.000000	0.003476
3930.000000	0.003461
3929.000000	0.003454
3928.000000	0.003453
3927.000000	0.003454
3926.000000	0.003457
3925.000000	0.003462
3924.000000	0.003473
3923.000000	0.003488
3922.000000	0.003507
3921.000000	0.003526
3920.000000	0.003542
3919.000000	0.003552
3918.000000	0.003548
3917.000000	0.003532
3916.000000	0.003509
3915.000000	0.003490
3914.000000	0.003478
3913.000000	0.003468
3912.000000	0.003460
3911.000000	0.003454
3910.000000	0.003457
3909.000000	0.003472
3908.000000	0.003493
3907.000000	0.003510
3906.000000	0.003518
3905.000000	0.003519
3904.000000	0.003516
3903.000000	0.003511
3902.000000	0.003499
3901.000000	0.003480
3900.000000	0.003467
3899.000000	0.003471
3898.000000	0.003494
3897.000000	0.003523
3896.000000	0.003549
3895.000000	0.003565
3894.000000	0.003569
3893.000000	0.003559
3892.000000	0.003540
3891.000000	0.003526
3890.000000	0.003527
3889.000000	0.003534
3888.000000	0.003526
3887.000000	0.003496
3886.000000	0.003459
3885.000000	0.003443
3884.000000	0.003452
3883.000000	0.003468
3882.000000	0.003476
3881.000000	0.003473
3880.000000	0.003470
3879.000000	0.003474
3878.000000	0.003481
3877.000000	0.003480
3876.000000	0.003472
3875.000000	0.003473
3874.000000	0.003494
3873.000000	0.003520
3872.000000	0.003528
3871.000000	0.003512
3870.000000	0.003494
3869.000000	0.003497
3868.000000	0.003515
3867.000000	0.003523
3866.000000	0.003512
3865.000000	0.003497
3864.000000	0.003500
3863.000000	0.003520
3862.000000	0.003546
3861.000000	0.003576
3860.000000	0.003610
3859.000000	0.003644
3858.000000	0.003670
3857.000000	0.003682
3856.000000	0.003675
3855.000000	0.003647
3854.000000	0.003606
3853.000000	0.003582
3852.000000	0.003585
3851.000000	0.003586
3850.000000	0.003571
3849.000000	0.003556
3848.000000	0.003553
3847.000000	0.003557
3846.000000	0.003556
3845.000000	0.003541
3844.000000	0.003515
3843.000000	0.003484
3842.000000	0.003452
3841.000000	0.003419
3840.000000	0.003390
3839.000000	0.003379
3838.000000	0.003399
3837.000000	0.003444
3836.000000	0.003496
3835.000000	0.003539
3834.000000	0.003565
3833.000000	0.003579
3832.000000	0.003591
3831.000000	0.003599
3830.000000	0.003594
3829.000000	0.003567
3828.000000	0.003522
3827.000000	0.003481
3826.000000	0.003471
3825.000000	0.003498
3824.000000	0.003544
3823.000000	0.003579
3822.000000	0.003582
3821.000000	0.003561
3820.000000	0.003540
3819.000000	0.003526
3818.000000	0.003518
3817.000000	0.003521
3816.000000	0.003539
3815.000000	0.003564
3814.000000	0.003572
3813.000000	0.003549
3812.000000	0.003507
3811.000000	0.003478
3810.000000	0.003477
3809.000000	0.003491
3808.000000	0.003503
3807.000000	0.003511
3806.000000	0.003527
3805.000000	0.003550
3804.000000	0.003564
3803.000000	0.003556
3802.000000	0.003531
3801.000000	0.003504
3800.000000	0.003485
3799.000000	0.003466
3798.000000	0.003441
3797.000000	0.003419
3796.000000	0.003418
3795.000000	0.003434
3794.000000	0.003449
3793.000000	0.003447
3792.000000	0.003430
3791.000000	0.003415
3790.000000	0.003417
3789.000000	0.003436
3788.000000	0.003462
3787.000000	0.003486
3786.000000	0.003504
3785.000000	0.003515
3784.000000	0.003522
3783.000000	0.003526
3782.000000	0.003522
3781.000000	0.003509
3780.000000	0.003492
3779.000000	0.003483
3778.000000	0.003484
3777.000000	0.003483
3776.000000	0.003471
3775.000000	0.003446
3774.000000	0.003420
3773.000000	0.003406
3772.000000	0.003410
3771.000000	0.003432
3770.000000	0.003469
3769.000000	0.003506
3768.000000	0.003524
3767.000000	0.003512
3766.000000	0.003478
3765.000000	0.003438
3764.000000	0.003405
3763.000000	0.003378
3762.000000	0.003354
3761.000000	0.003336
3760.000000	0.003333
3759.000000	0.003347
3758.000000	0.003369
3757.000000	0.003390
3756.000000	0.003408
3755.000000	0.003425
3754.000000	0.003439
3753.000000	0.003452
3752.000000	0.003452
3751.000000	0.003431
3750.000000	0.003396
3749.000000	0.003365
3748.000000	0.003351
3747.000000	0.003345
3746.000000	0.003339
3745.000000	0.003343
3744.000000	0.003368
3743.000000	0.003406
3742.000000	0.003424
3741.000000	0.003408
3740.000000	0.003394
3739.000000	0.003418
3738.000000	0.003475
3737.000000	0.003526
3736.000000	0.003539
3735.000000	0.003514
3734.000000	0.003478
3733.000000	0.003463
3732.000000	0.003482
3731.000000	0.003514
3730.000000	0.003525
3729.000000	0.003498
3728.000000	0.003448
3727.000000	0.003402
3726.000000	0.003375
3725.000000	0.003366
3724.000000	0.003364
3723.000000	0.003364
3722.000000	0.003369
3721.000000	0.003378
3720.000000	0.003386
3719.000000	0.003392
3718.000000	0.003397
3717.000000	0.003407
3716.000000	0.003425
3715.000000	0.003452
3714.000000	0.003485
3713.000000	0.003518
3712.000000	0.003543
3711.000000	0.003555
3710.000000	0.003556
3709.000000	0.003550
3708.000000	0.003540
3707.000000	0.003528
3706.000000	0.003515
3705.000000	0.003509
3704.000000	0.003512
3703.000000	0.003514
3702.000000	0.003495
3701.000000	0.003451
3700.000000	0.003392
3699.000000	0.003338
3698.000000	0.003306
3697.000000	0.003302
3696.000000	0.003323
3695.000000	0.003356
3694.000000	0.003384
3693.000000	0.003400
3692.000000	0.003415
3691.000000	0.003440
3690.000000	0.003480
3689.000000	0.003518
3688.000000	0.003532
3687.000000	0.003517
3686.000000	0.003483
3685.000000	0.003446
3684.000000	0.003425
3683.000000	0.003430
3682.000000	0.003452
3681.000000	0.003478
3680.000000	0.003505
3679.000000	0.003533
3678.000000	0.003552
3677.000000	0.003552
3676.000000	0.003536
3675.000000	0.003529
3674.000000	0.003542
3673.000000	0.003556
3672.000000	0.003547
3671.000000	0.003520
3670.000000	0.003507
3669.000000	0.003530
3668.000000	0.003575
3667.000000	0.003614
3666.000000	0.003631
3665.000000	0.003631
3664.000000	0.003625
3663.000000	0.003620
3662.000000	0.003615
3661.000000	0.003610
3660.000000	0.003610
3659.000000	0.003617
3658.000000	0.003629
3657.000000	0.003646
3656.000000	0.003667
3655.000000	0.003693
3654.000000	0.003717
3653.000000	0.003728
3652.000000	0.003730
3651.000000	0.003737
3650.000000	0.003764
3649.000000	0.003813
3648.000000	0.003873
3647.000000	0.003936
3646.000000	0.004002
3645.000000	0.004055
3644.000000	0.004074
3643.000000	0.004055
3642.000000	0.004020
3641.000000	0.004001
3640.000000	0.004017
3639.000000	0.004059
3638.000000	0.004101
3637.000000	0.004125
3636.000000	0.004134
3635.000000	0.004146
3634.000000	0.004178
3633.000000	0.004226
3632.000000	0.004276
3631.000000	0.004314
3630.000000	0.004340
3629.000000	0.004362
3628.000000	0.004389
3627.000000	0.004414
3626.000000	0.004431
3625.000000	0.004444
3624.000000	0.004462
3623.000000	0.004487
3622.000000	0.004510
3621.000000	0.004528
3620.000000	0.004549
3619.000000	0.004583
3618.000000	0.004627
3617.000000	0.004670
3616.000000	0.004700
3615.000000	0.004719
3614.000000	0.004733
3613.000000	0.004755
3612.000000	0.004790
3611.000000	0.004837
3610.000000	0.004888
3609.000000	0.004935
3608.000000	0.004968
3607.000000	0.004987
3606.000000	0.004999
3605.000000	0.005018
3604.000000	0.005054
3603.000000	0.005108
3602.000000	0.005165
3601.000000	0.005211
3600.000000	0.005235
3599.000000	0.005243
3598.000000	0.005248
3597.000000	0.005264
3596.000000	0.005292
3595.000000	0.005327
3594.000000	0.005363
3593.000000	0.005398
3592.000000	0.005429
3591.000000	0.005456
3590.000000	0.005484
3589.000000	0.005525
3588.000000	0.005596
3587.000000	0.005695
3586.000000	0.005801
3585.000000	0.005888
3584.000000	0.005945
3583.000000	0.005972
3582.000000	0.005986
3581.000000	0.006006
3580.000000	0.006044
3579.000000	0.006096
3578.000000	0.006150
3577.000000	0.006197
3576.000000	0.006236
3575.000000	0.006276
3574.000000	0.006324
3573.000000	0.006378
3572.000000	0.006430
3571.000000	0.006471
3570.000000	0.006499
3569.000000	0.006521
3568.000000	0.006546
3567.000000	0.006578
3566.000000	0.006614
3565.000000	0.006655
3564.000000	0.006701
3563.000000	0.006752
3562.000000	0.006806
3561.000000	0.006859
3560.000000	0.006910
3559.000000	0.006959
3558.000000	0.007009
3557.000000	0.007065
3556.000000	0.007127
3555.000000	0.007194
3554.000000	0.007265
3553.000000	0.007338
3552.000000	0.007404
3551.000000	0.007454
3550.000000	0.007485
3549.000000	0.007508
3548.000000	0.007535
3547.000000	0.007575
3546.000000	0.007624
3545.000000	0.007674
3544.000000	0.007718
3543.000000	0.007758
3542.000000	0.007800
3541.000000	0.007847
3540.000000	0.007902
3539.000000	0.007960
3538.000000	0.008020
3537.000000	0.008081
3536.000000	0.008146
3535.000000	0.008218
3534.000000	0.008290
3533.000000	0.008352
3532.000000	0.008396
3531.000000	0.008422
3530.000000	0.008439
3529.000000	0.008457
3528.000000	0.008484
3527.000000	0.008525
3526.000000	0.008577
3525.000000	0.008633
3524.000000	0.008686
3523.000000	0.008732
3522.000000	0.008772
3521.000000	0.008807
3520.000000	0.008837
3519.000000	0.008866
3518.000000	0.008903
3517.000000	0.008956
3516.000000	0.009022
3515.000000	0.009090
3514.000000	0.009149
3513.000000	0.009198
3512.000000	0.009244
3511.000000	0.009293
3510.000000	0.009345
3509.000000	0.009393
3508.000000	0.009433
3507.000000	0.009463
3506.000000	0.009489
3505.000000	0.009515
3504.000000	0.009547
3503.000000	0.009595
3502.000000	0.009660
3501.000000	0.009735
3500.000000	0.009805
3499.000000	0.009861
3498.000000	0.009900
3497.000000	0.009929
3496.000000	0.009950
3495.000000	0.009968
3494.000000	0.009986
3493.000000	0.010012
3492.000000	0.010045
3491.000000	0.010081
3490.000000	0.010113
3489.000000	0.010139
3488.000000	0.010165
3487.000000	0.010198
3486.000000	0.010239
3485.000000	0.010278
3484.000000	0.010307
3483.000000	0.010324
3482.000000	0.010339
3481.000000	0.010368
3480.000000	0.010418
3479.000000	0.010483
3478.000000	0.010548
3477.000000	0.010602
3476.000000	0.010640
3475.000000	0.010661
3474.000000	0.010673
3473.000000	0.010689
3472.000000	0.010724
3471.000000	0.010782
3470.000000	0.010859
3469.000000	0.010935
3468.000000	0.010992
3467.000000	0.011024
3466.000000	0.011037
3465.000000	0.011043
3464.000000	0.011054
3463.000000	0.011076
3462.000000	0.011112
3461.000000	0.011154
3460.000000	0.011196
3459.000000	0.011234
3458.000000	0.011271
3457.000000	0.011308
3456.000000	0.011342
3455.000000	0.011370
3454.000000	0.011395
3453.000000	0.011422
3452.000000	0.011452
3451.000000	0.011483
3450.000000	0.011516
3449.000000	0.011552
3448.000000	0.011590
3447.000000	0.011628
3446.000000	0.011657
3445.000000	0.011678
3444.000000	0.011691
3443.000000	0.011705
3442.000000	0.011729
3441.000000	0.011770
3440.000000	0.011826
3439.000000	0.011887
3438.000000	0.011947
3437.000000	0.012007
3436.000000	0.012070
3435.000000	0.012139
3434.000000	0.012202
3433.000000	0.012247
3432.000000	0.012270
3431.000000	0.012280
3430.000000	0.012293
3429.000000	0.012313
3428.000000	0.012335
3427.000000	0.012356
3426.000000	0.012381
3425.000000	0.012418
3424.000000	0.012466
3423.000000	0.012515
3422.000000	0.012555
3421.000000	0.012583
3420.000000	0.012604
3419.000000	0.012621
3418.000000	0.012639
3417.000000	0.012662
3416.000000	0.012693
3415.000000	0.012732
3414.000000	0.012780
3413.000000	0.012832
3412.000000	0.012886
3411.000000	0.012935
3410.000000	0.012974
3409.000000	0.013005
3408.000000	0.013033
3407.000000	0.013068
3406.000000	0.013108
3405.000000	0.013149
3404.000000	0.013183
3403.000000	0.013209
3402.000000	0.013229
3401.000000	0.013246
3400.000000	0.013260
3399.000000	0.013277
3398.000000	0.013303
3397.000000	0.013340
3396.000000	0.013384
3395.000000	0.013427
3394.000000	0.013465
3393.000000	0.013501
3392.000000	0.013532
3391.000000	0.013558
3390.000000	0.013580
3389.000000	0.013604
3388.000000	0.013633
3387.000000	0.013664
3386.000000	0.013695
3385.000000	0.013728
3384.000000	0.013764
3383.000000	0.013802
3382.000000	0.013839
3381.000000	0.013878
3380.000000	0.013923
3379.000000	0.013977
3378.000000	0.014042
3377.000000	0.014115
3376.000000	0.014189
3375.000000	0.014251
3374.000000	0.014289
3373.000000	0.014305
3372.000000	0.014319
3371.000000	0.014354
3370.000000	0.014419
3369.000000	0.014502
3368.000000	0.014582
3367.000000	0.014642
3366.000000	0.014683
3365.000000	0.014715
3364.000000	0.014748
3363.000000	0.014788
3362.000000	0.014834
3361.000000	0.014884
3360.000000	0.014936
3359.000000	0.014990
3358.000000	0.015047
3357.000000	0.015113
3356.000000	0.015192
3355.000000	0.015278
3354.000000	0.015361
3353.000000	0.015427
3352.000000	0.015477
3351.000000	0.015525
3350.000000	0.015586
3349.000000	0.015661
3348.000000	0.015745
3347.000000	0.015828
3346.000000	0.015908
3345.000000	0.015984
3344.000000	0.016059
3343.000000	0.016137
3342.000000	0.016222
3341.000000	0.016310
3340.000000	0.016394
3339.000000	0.016462
3338.000000	0.016513
3337.000000	0.016553
3336.000000	0.016590
3335.000000	0.016630
3334.000000	0.016674
3333.000000	0.016722
3332.000000	0.016779
3331.000000	0.016843
3330.000000	0.016902
3329.000000	0.016944
3328.000000	0.016969
3327.000000	0.016995
3326.000000	0.017041
3325.000000	0.017108
3324.000000	0.017188
3323.000000	0.017267
3322.000000	0.017332
3321.000000	0.017372
3320.000000	0.017380
3319.000000	0.017364
3318.000000	0.017347
3317.000000	0.017344
3316.000000	0.017362
3315.000000	0.017398
3314.000000	0.017450
3313.000000	0.017513
3312.000000	0.017570
3311.000000	0.017604
3310.000000	0.017616
3309.000000	0.017619
3308.000000	0.017632
3307.000000	0.017663
3306.000000	0.017704
3305.000000	0.017745
3304.000000	0.017781
3303.000000	0.017814
3302.000000	0.017846
3301.000000	0.017875
3300.000000	0.017896
3299.000000	0.017907
3298.000000	0.017913
3297.000000	0.017913
3296.000000	0.017907
3295.000000	0.017889
3294.000000	0.017866
3293.000000	0.017844
3292.000000	0.017830
3291.000000	0.017830
3290.000000	0.017848
3289.000000	0.017883
3288.000000	0.017925
3287.000000	0.017962
3286.000000	0.017982
3285.000000	0.017986
3284.000000	0.017976
3283.000000	0.017957
3282.000000	0.017937
3281.000000	0.017919
3280.000000	0.017906
3279.000000	0.017896
3278.000000	0.017885
3277.000000	0.017861
3276.000000	0.017817
3275.000000	0.017759
3274.000000	0.017707
3273.000000	0.017677
3272.000000	0.017672
3271.000000	0.017679
3270.000000	0.017686
3269.000000	0.017686
3268.000000	0.017677
3267.000000	0.017654
3266.000000	0.017616
3265.000000	0.017567
3264.000000	0.017518
3263.000000	0.017480
3262.000000	0.017453
3261.000000	0.017431
3260.000000	0.017402
3259.000000	0.017362
3258.000000	0.017319
3257.000000	0.017278
3256.000000	0.017241
3255.000000	0.017205
3254.000000	0.017166
3253.000000	0.017123
3252.000000	0.017074
3251.000000	0.017022
3250.000000	0.016970
3249.000000	0.016924
3248.000000	0.016883
3247.000000	0.016847
3246.000000	0.016808
3245.000000	0.016768
3244.000000	0.016731
3243.000000	0.016702
3242.000000	0.016679
3241.000000	0.016659
3240.000000	0.016642
3239.000000	0.016629
3238.000000	0.016616
3237.000000	0.016592
3236.000000	0.016550
3235.000000	0.016495
3234.000000	0.016442
3233.000000	0.016395
3232.000000	0.016355
3231.000000	0.016320
3230.000000	0.016291
3229.000000	0.016269
3228.000000	0.016246
3227.000000	0.016214
3226.000000	0.016176
3225.000000	0.016142
3224.000000	0.016118
3223.000000	0.016100
3222.000000	0.016082
3221.000000	0.016062
3220.000000	0.016040
3219.000000	0.016018
3218.000000	0.015995
3217.000000	0.015965
3216.000000	0.015923
3215.000000	0.015877
3214.000000	0.015836
3213.000000	0.015806
3212.000000	0.015776
3211.000000	0.015738
3210.000000	0.015693
3209.000000	0.015649
3208.000000	0.015613
3207.000000	0.015579
3206.000000	0.015543
3205.000000	0.015506
3204.000000	0.015475
3203.000000	0.015453
3202.000000	0.015439
3201.000000	0.015424
3200.000000	0.015401
3199.000000	0.015364
3198.000000	0.015314
3197.000000	0.015261
3196.000000	0.015213
3195.000000	0.015171
3194.000000	0.015131
3193.000000	0.015086
3192.000000	0.015030
3191.000000	0.014966
3190.000000	0.014905
3189.000000	0.014858
3188.000000	0.014826
3187.000000	0.014794
3186.000000	0.014746
3185.000000	0.014677
3184.000000	0.014604
3183.000000	0.014547
3182.000000	0.014512
3181.000000	0.014490
3180.000000	0.014464
3179.000000	0.014427
3178.000000	0.014382
3177.000000	0.014335
3176.000000	0.014290
3175.000000	0.014249
3174.000000	0.014208
3173.000000	0.014161
3172.000000	0.014104
3171.000000	0.014043
3170.000000	0.013988
3169.000000	0.013945
3168.000000	0.013905
3167.000000	0.013858
3166.000000	0.013801
3165.000000	0.013744
3164.000000	0.013699
3163.000000	0.013669
3162.000000	0.013650
3161.000000	0.013630
3160.000000	0.013598
3159.000000	0.013551
3158.000000	0.013492
3157.000000	0.013426
3156.000000	0.013358
3155.000000	0.013292
3154.000000	0.013232
3153.000000	0.013182
3152.000000	0.013140
3151.000000	0.013100
3150.000000	0.013059
3149.000000	0.013021
3148.000000	0.012992
3147.000000	0.012978
3146.000000	0.012976
3145.000000	0.012977
3144.000000	0.012973
3143.000000	0.012954
3142.000000	0.012917
3141.000000	0.012868
3140.000000	0.012814
3139.000000	0.012762
3138.000000	0.012714
3137.000000	0.012667
3136.000000	0.012627
3135.000000	0.012601
3134.000000	0.012593
3133.000000	0.012589
3132.000000	0.012572
3131.000000	0.012534
3130.000000	0.012486
3129.000000	0.012442
3128.000000	0.012412
3127.000000	0.012395
3126.000000	0.012383
3125.000000	0.012367
3124.000000	0.012336
3123.000000	0.012288
3122.000000	0.012232
3121.000000	0.012184
3120.000000	0.012159
3119.000000	0.012160
3118.000000	0.012180
3117.000000	0.012203
3116.000000	0.012219
3115.000000	0.012223
3114.000000	0.012219
3113.000000	0.012212
3112.000000	0.012206
3111.000000	0.012204
3110.000000	0.012205
3109.000000	0.012205
3108.000000	0.012201
3107.000000	0.012194
3106.000000	0.012198
3105.000000	0.012220
3104.000000	0.012255
3103.000000	0.012287
3102.000000	0.012309
3101.000000	0.012324
3100.000000	0.012339
3099.000000	0.012359
3098.000000	0.012382
3097.000000	0.012402
3096.000000	0.012413
3095.000000	0.012408
3094.000000	0.012394
3093.000000	0.012381
3092.000000	0.012379
3091.000000	0.012386
3090.000000	0.012401
3089.000000	0.012425
3088.000000	0.012458
3087.000000	0.012494
3086.000000	0.012524
3085.000000	0.012545
3084.000000	0.012557
3083.000000	0.012561
3082.000000	0.012550
3081.000000	0.012522
3080.000000	0.012488
3079.000000	0.012470
3078.000000	0.012477
3077.000000	0.012503
3076.000000	0.012526
3075.000000	0.012537
3074.000000	0.012540
3073.000000	0.012548
3072.000000	0.012560
3071.000000	0.012564
3070.000000	0.012553
3069.000000	0.012532
3068.000000	0.012508
3067.000000	0.012486
3066.000000	0.012465
3065.000000	0.012447
3064.000000	0.012433
3063.000000	0.012421
3062.000000	0.012401
3061.000000	0.012360
3060.000000	0.012298
3059.000000	0.012225
3058.000000	0.012161
3057.000000	0.012120
3056.000000	0.012099
3055.000000	0.012081
3054.000000	0.012055
3053.000000	0.012020
3052.000000	0.011985
3051.000000	0.011950
3050.000000	0.011913
3049.000000	0.011869
3048.000000	0.011822
3047.000000	0.011775
3046.000000	0.011730
3045.000000	0.011686
3044.000000	0.011648
3043.000000	0.011616
3042.000000	0.011588
3041.000000	0.011554
3040.000000	0.011505
3039.000000	0.011446
3038.000000	0.011387
3037.000000	0.011338
3036.000000	0.011300
3035.000000	0.011271
3034.000000	0.011246
3033.000000	0.011220
3032.000000	0.011190
3031.000000	0.011153
3030.000000	0.011116
3029.000000	0.011083
3028.000000	0.011059
3027.000000	0.011047
3026.000000	0.011046
3025.000000	0.011047
3024.000000	0.011035
3023.000000	0.010997
3022.000000	0.010936
3021.000000	0.010870
3020.000000	0.010818
3019.000000	0.010787
3018.000000	0.010775
3017.000000	0.010778
3016.000000	0.010789
3015.000000	0.010800
3014.000000	0.010806
3013.000000	0.010807
3012.000000	0.010812
3011.000000	0.010828
3010.000000	0.010856
3009.000000	0.010886
3008.000000	0.010908
3007.000000	0.010917
3006.000000	0.010918
3005.000000	0.010921
3004.000000	0.010926
3003.000000	0.010927
3002.000000	0.010915
3001.000000	0.010894
3000.000000	0.010872
2999.000000	0.010861
2998.000000	0.010860
2997.000000	0.010859
2996.000000	0.010856
2995.000000	0.010855
2994.000000	0.010866
2993.000000	0.010892
2992.000000	0.010925
2991.000000	0.010957
2990.000000	0.010982
2989.000000	0.011005
2988.000000	0.011038
2987.000000	0.011089
2986.000000	0.011157
2985.000000	0.011236
2984.000000	0.011314
2983.000000	0.011383
2982.000000	0.011441
2981.000000	0.011492
2980.000000	0.011547
2979.000000	0.011612
2978.000000	0.011688
2977.000000	0.011768
2976.000000	0.011848
2975.000000	0.011933
2974.000000	0.012032
2973.000000	0.012147
2972.000000	0.012273
2971.000000	0.012401
2970.000000	0.012526
2969.000000	0.012649
2968.000000	0.012777
2967.000000	0.012920
2966.000000	0.013087
2965.000000	0.013273
2964.000000	0.013467
2963.000000	0.013659
2962.000000	0.013839
2961.000000	0.014006
2960.000000	0.014155
2959.000000	0.014284
2958.000000	0.014394
2957.000000	0.014489
2956.000000	0.014570
2955.000000	0.014629
2954.000000	0.014662
2953.000000	0.014671
2952.000000	0.014672
2951.000000	0.014680
2950.000000	0.014704
2949.000000	0.014745
2948.000000	0.014804
2947.000000	0.014891
2946.000000	0.015018
2945.000000	0.015185
2944.000000	0.015381
2943.000000	0.015598
2942.000000	0.015840
2941.000000	0.016118
2940.000000	0.016434
2939.000000	0.016781
2938.000000	0.017142
2937.000000	0.017512
2936.000000	0.017893
2935.000000	0.018294
2934.000000	0.018715
2933.000000	0.019138
2932.000000	0.019542
2931.000000	0.019917
2930.000000	0.020271
2929.000000	0.020612
2928.000000	0.020938
2927.000000	0.021235
2926.000000	0.021481
2925.000000	0.021657
2924.000000	0.021746
2923.000000	0.021744
2922.000000	0.021659
2921.000000	0.021502
2920.000000	0.021276
2919.000000	0.020985
2918.000000	0.020634
2917.000000	0.020235
2916.000000	0.019805
2915.000000	0.019356
2914.000000	0.018903
2913.000000	0.018462
2912.000000	0.018050
2911.000000	0.017671
2910.000000	0.017321
2909.000000	0.016994
2908.000000	0.016687
2907.000000	0.016405
2906.000000	0.016154
2905.000000	0.015931
2904.000000	0.015729
2903.000000	0.015538
2902.000000	0.015357
2901.000000	0.015188
2900.000000	0.015031
2899.000000	0.014884
2898.000000	0.014742
2897.000000	0.014598
2896.000000	0.014450
2895.000000	0.014294
2894.000000	0.014135
2893.000000	0.013981
2892.000000	0.013843
2891.000000	0.013729
2890.000000	0.013642
2889.000000	0.013571
2888.000000	0.013497
2887.000000	0.013409
2886.000000	0.013310
2885.000000	0.013219
2884.000000	0.013151
2883.000000	0.013106
2882.000000	0.013078
2881.000000	0.013064
2880.000000	0.013061
2879.000000	0.013071
2878.000000	0.013092
2877.000000	0.013122
2876.000000	0.013161
2875.000000	0.013209
2874.000000	0.013260
2873.000000	0.013303
2872.000000	0.013326
2871.000000	0.013330
2870.000000	0.013333
2869.000000	0.013349
2868.000000	0.013379
2867.000000	0.013423
2866.000000	0.013486
2865.000000	0.013582
2864.000000	0.013722
2863.000000	0.013912
2862.000000	0.014158
2861.000000	0.014466
2860.000000	0.014828
2859.000000	0.015218
2858.000000	0.015600
2857.000000	0.015948
2856.000000	0.016250
2855.000000	0.016492
2854.000000	0.016655
2853.000000	0.016710
2852.000000	0.016634
2851.000000	0.016420
2850.000000	0.016083
2849.000000	0.015653
2848.000000	0.015168
2847.000000	0.014659
2846.000000	0.014152
2845.000000	0.013667
2844.000000	0.013220
2843.000000	0.012822
2842.000000	0.012471
2841.000000	0.012163
2840.000000	0.011891
2839.000000	0.011655
2838.000000	0.011458
2837.000000	0.011298
2836.000000	0.011168
2835.000000	0.011061
2834.000000	0.010972
2833.000000	0.010896
2832.000000	0.010825
2831.000000	0.010746
2830.000000	0.010658
2829.000000	0.010568
2828.000000	0.010486
2827.000000	0.010419
2826.000000	0.010362
2825.000000	0.010309
2824.000000	0.010251
2823.000000	0.010186
2822.000000	0.010121
2821.000000	0.010065
2820.000000	0.010020
2819.000000	0.009977
2818.000000	0.009932
2817.000000	0.009887
2816.000000	0.009850
2815.000000	0.009825
2814.000000	0.009805
2813.000000	0.009778
2812.000000	0.009740
2811.000000	0.009693
2810.000000	0.009648
2809.000000	0.009614
2808.000000	0.009590
2807.000000	0.009571
2806.000000	0.009546
2805.000000	0.009512
2804.000000	0.009471
2803.000000	0.009431
2802.000000	0.009402
2801.000000	0.009386
2800.000000	0.009375
2799.000000	0.009357
2798.000000	0.009331
2797.000000	0.009304
2796.000000	0.009285
2795.000000	0.009274
2794.000000	0.009264
2793.000000	0.009249
2792.000000	0.009226
2791.000000	0.009197
2790.000000	0.009163
2789.000000	0.009127
2788.000000	0.009097
2787.000000	0.009077
2786.000000	0.009064
2785.000000	0.009049
2784.000000	0.009024
2783.000000	0.008985
2782.000000	0.008941
2781.000000	0.008902
2780.000000	0.008875
2779.000000	0.008859
2778.000000	0.008854
2777.000000	0.008859
2776.000000	0.008866
2775.000000	0.008864
2774.000000	0.008848
2773.000000	0.008825
2772.000000	0.008804
2771.000000	0.008788
2770.000000	0.008769
2769.000000	0.008744
2768.000000	0.008719
2767.000000	0.008696
2766.000000	0.008673
2765.000000	0.008640
2764.000000	0.008599
2763.000000	0.008556
2762.000000	0.008520
2761.000000	0.008493
2760.000000	0.008479
2759.000000	0.008478
2758.000000	0.008488
2757.000000	0.008497
2756.000000	0.008501
2755.000000	0.008503
2754.000000	0.008506
2753.000000	0.008504
2752.000000	0.008489
2751.000000	0.008459
2750.000000	0.008430
2749.000000	0.008412
2748.000000	0.008405
2747.000000	0.008397
2746.000000	0.008380
2745.000000	0.008354
2744.000000	0.008330
2743.000000	0.008317
2742.000000	0.008322
2741.000000	0.008342
2740.000000	0.008366
2739.000000	0.008379
2738.000000	0.008369
2737.000000	0.008336
2736.000000	0.008290
2735.000000	0.008246
2734.000000	0.008217
2733.000000	0.008206
2732.000000	0.008206
2731.000000	0.008205
2730.000000	0.008198
2729.000000	0.008187
2728.000000	0.008170
2727.000000	0.008150
2726.000000	0.008126
2725.000000	0.008104
2724.000000	0.008087
2723.000000	0.008074
2722.000000	0.008064
2721.000000	0.008057
2720.000000	0.008055
2719.000000	0.008051
2718.000000	0.008037
2717.000000	0.008009
2716.000000	0.007973
2715.000000	0.007944
2714.000000	0.007936
2713.000000	0.007948
2712.000000	0.007966
2711.000000	0.007975
2710.000000	0.007972
2709.000000	0.007966
2708.000000	0.007963
2707.000000	0.007960
2706.000000	0.007948
2705.000000	0.007925
2704.000000	0.007897
2703.000000	0.007872
2702.000000	0.007857
2701.000000	0.007852
2700.000000	0.007853
2699.000000	0.007854
2698.000000	0.007847
2697.000000	0.007830
2696.000000	0.007806
2695.000000	0.007786
2694.000000	0.007779
2693.000000	0.007788
2692.000000	0.007809
2691.000000	0.007831
2690.000000	0.007845
2689.000000	0.007847
2688.000000	0.007837
2687.000000	0.007815
2686.000000	0.007789
2685.000000	0.007769
2684.000000	0.007764
2683.000000	0.007774
2682.000000	0.007793
2681.000000	0.007809
2680.000000	0.007810
2679.000000	0.007795
2678.000000	0.007768
2677.000000	0.007739
2676.000000	0.007720
2675.000000	0.007714
2674.000000	0.007722
2673.000000	0.007736
2672.000000	0.007747
2671.000000	0.007749
2670.000000	0.007740
2669.000000	0.007726
2668.000000	0.007713
2667.000000	0.007709
2666.000000	0.007712
2665.000000	0.007716
2664.000000	0.007709
2663.000000	0.007689
2662.000000	0.007666
2661.000000	0.007654
2660.000000	0.007651
2659.000000	0.007642
2658.000000	0.007616
2657.000000	0.007573
2656.000000	0.007526
2655.000000	0.007489
2654.000000	0.007465
2653.000000	0.007453
2652.000000	0.007445
2651.000000	0.007435
2650.000000	0.007425
2649.000000	0.007413
2648.000000	0.007390
2647.000000	0.007350
2646.000000	0.007300
2645.000000	0.007258
2644.000000	0.007237
2643.000000	0.007229
2642.000000	0.007218
2641.000000	0.007192
2640.000000	0.007152
2639.000000	0.007105
2638.000000	0.007062
2637.000000	0.007037
2636.000000	0.007037
2635.000000	0.007045
2634.000000	0.007041
2633.000000	0.007013
2632.000000	0.006972
2631.000000	0.006934
2630.000000	0.006908
2629.000000	0.006889
2628.000000	0.006872
2627.000000	0.006855
2626.000000	0.006841
2625.000000	0.006833
2624.000000	0.006827
2623.000000	0.006818
2622.000000	0.006805
2621.000000	0.006793
2620.000000	0.006786
2619.000000	0.006777
2618.000000	0.006754
2617.000000	0.006710
2616.000000	0.006657
2615.000000	0.006611
2614.000000	0.006580
2613.000000	0.006559
2612.000000	0.006540
2611.000000	0.006522
2610.000000	0.006506
2609.000000	0.006492
2608.000000	0.006481
2607.000000	0.006475
2606.000000	0.006473
2605.000000	0.006473
2604.000000	0.006476
2603.000000	0.006487
2602.000000	0.006508
2601.000000	0.006532
2600.000000	0.006544
2599.000000	0.006528
2598.000000	0.006486
2597.000000	0.006430
2596.000000	0.006382
2595.000000	0.006350
2594.000000	0.006335
2593.000000	0.006330
2592.000000	0.006327
2591.000000	0.006321
2590.000000	0.006313
2589.000000	0.006304
2588.000000	0.006292
2587.000000	0.006276
2586.000000	0.006260
2585.000000	0.006253
2584.000000	0.006257
2583.000000	0.006264
2582.000000	0.006255
2581.000000	0.006224
2580.000000	0.006181
2579.000000	0.006146
2578.000000	0.006131
2577.000000	0.006132
2576.000000	0.006139
2575.000000	0.006142
2574.000000	0.006133
2573.000000	0.006108
2572.000000	0.006071
2571.000000	0.006037
2570.000000	0.006024
2569.000000	0.006039
2568.000000	0.006068
2567.000000	0.006088
2566.000000	0.006089
2565.000000	0.006072
2564.000000	0.006049
2563.000000	0.006032
2562.000000	0.006028
2561.000000	0.006037
2560.000000	0.006055
2559.000000	0.006075
2558.000000	0.006091
2557.000000	0.006097
2556.000000	0.006082
2555.000000	0.006044
2554.000000	0.005992
2553.000000	0.005946
2552.000000	0.005918
2551.000000	0.005915
2550.000000	0.005936
2549.000000	0.005970
2548.000000	0.005998
2547.000000	0.006002
2546.000000	0.005983
2545.000000	0.005964
2544.000000	0.005972
2543.000000	0.006013
2542.000000	0.006063
2541.000000	0.006093
2540.000000	0.006091
2539.000000	0.006063
2538.000000	0.006023
2537.000000	0.005984
2536.000000	0.005956
2535.000000	0.005939
2534.000000	0.005928
2533.000000	0.005916
2532.000000	0.005904
2531.000000	0.005895
2530.000000	0.005889
2529.000000	0.005881
2528.000000	0.005875
2527.000000	0.005884
2526.000000	0.005921
2525.000000	0.005977
2524.000000	0.006022
2523.000000	0.006030
2522.000000	0.006000
2521.000000	0.005955
2520.000000	0.005908
2519.000000	0.005860
2518.000000	0.005810
2517.000000	0.005768
2516.000000	0.005746
2515.000000	0.005745
2514.000000	0.005751
2513.000000	0.005756
2512.000000	0.005764
2511.000000	0.005787
2510.000000	0.005824
2509.000000	0.005856
2508.000000	0.005863
2507.000000	0.005850
2506.000000	0.005833
2505.000000	0.005824
2504.000000	0.005817
2503.000000	0.005805
2502.000000	0.005794
2501.000000	0.005792
2500.000000	0.005797
2499.000000	0.005798
2498.000000	0.005791
2497.000000	0.005785
2496.000000	0.005784
2495.000000	0.005775
2494.000000	0.005744
2493.000000	0.005694
2492.000000	0.005642
2491.000000	0.005603
2490.000000	0.005580
2489.000000	0.005570
2488.000000	0.005568
2487.000000	0.005576
2486.000000	0.005590
2485.000000	0.005600
2484.000000	0.005592
2483.000000	0.005564
2482.000000	0.005529
2481.000000	0.005509
2480.000000	0.005518
2479.000000	0.005553
2478.000000	0.005601
2477.000000	0.005649
2476.000000	0.005684
2475.000000	0.005696
2474.000000	0.005687
2473.000000	0.005666
2472.000000	0.005645
2471.000000	0.005635
2470.000000	0.005632
2469.000000	0.005631
2468.000000	0.005623
2467.000000	0.005607
2466.000000	0.005591
2465.000000	0.005580
2464.000000	0.005576
2463.000000	0.005572
2462.000000	0.005568
2461.000000	0.005566
2460.000000	0.005568
2459.000000	0.005571
2458.000000	0.005574
2457.000000	0.005574
2456.000000	0.005572
2455.000000	0.005565
2454.000000	0.005557
2453.000000	0.005555
2452.000000	0.005563
2451.000000	0.005577
2450.000000	0.005593
2449.000000	0.005605
2448.000000	0.005606
2447.000000	0.005591
2446.000000	0.005566
2445.000000	0.005547
2444.000000	0.005550
2443.000000	0.005575
2442.000000	0.005614
2441.000000	0.005655
2440.000000	0.005684
2439.000000	0.005689
2438.000000	0.005665
2437.000000	0.005616
2436.000000	0.005553
2435.000000	0.005494
2434.000000	0.005457
2433.000000	0.005452
2432.000000	0.005466
2431.000000	0.005474
2430.000000	0.005458
2429.000000	0.005430
2428.000000	0.005414
2427.000000	0.005430
2426.000000	0.005467
2425.000000	0.005499
2424.000000	0.005507
2423.000000	0.005498
2422.000000	0.005492
2421.000000	0.005496
2420.000000	0.005498
2419.000000	0.005486
2418.000000	0.005456
2417.000000	0.005420
2416.000000	0.005393
2415.000000	0.005389
2414.000000	0.005418
2413.000000	0.005469
2412.000000	0.005510
2411.000000	0.005519
2410.000000	0.005498
2409.000000	0.005469
2408.000000	0.005449
2407.000000	0.005435
2406.000000	0.005426
2405.000000	0.005425
2404.000000	0.005433
2403.000000	0.005445
2402.000000	0.005455
2401.000000	0.005463
2400.000000	0.005463
2399.000000	0.005446
2398.000000	0.005418
2397.000000	0.005399
2396.000000	0.005411
2395.000000	0.005447
2394.000000	0.005478
2393.000000	0.005478
2392.000000	0.005447
2391.000000	0.005407
2390.000000	0.005384
2389.000000	0.005392
2388.000000	0.005422
2387.000000	0.005456
2386.000000	0.005482
2385.000000	0.005501
2384.000000	0.005518
2383.000000	0.005538
2382.000000	0.005553
2381.000000	0.005559
2380.000000	0.005559
2379.000000	0.005557
2378.000000	0.005560
2377.000000	0.005568
2376.000000	0.005577
2375.000000	0.005588
2374.000000	0.005595
2373.000000	0.005593
2372.000000	0.005576
2371.000000	0.005547
2370.000000	0.005524
2369.000000	0.005525
2368.000000	0.005561
2367.000000	0.005625
2366.000000	0.005696
2365.000000	0.005737
2364.000000	0.005718
2363.000000	0.005654
2362.000000	0.005609
2361.000000	0.005646
2360.000000	0.005758
2359.000000	0.005879
2358.000000	0.005925
2357.000000	0.005881
2356.000000	0.005800
2355.000000	0.005743
2354.000000	0.005732
2353.000000	0.005736
2352.000000	0.005721
2351.000000	0.005686
2350.000000	0.005671
2349.000000	0.005713
2348.000000	0.005809
2347.000000	0.005923
2346.000000	0.005997
2345.000000	0.005997
2344.000000	0.005934
2343.000000	0.005861
2342.000000	0.005820
2341.000000	0.005798
2340.000000	0.005774
2339.000000	0.005751
2338.000000	0.005755
2337.000000	0.005790
2336.000000	0.005833
2335.000000	0.005847
2334.000000	0.005826
2333.000000	0.005787
2332.000000	0.005754
2331.000000	0.005727
2330.000000	0.005700
2329.000000	0.005678
2328.000000	0.005678
2327.000000	0.005726
2326.000000	0.005823
2325.000000	0.005934
2324.000000	0.005999
2323.000000	0.005985
2322.000000	0.005913
2321.000000	0.005825
2320.000000	0.005752
2319.000000	0.005695
2318.000000	0.005658
2317.000000	0.005640
2316.000000	0.005623
2315.000000	0.005588
2314.000000	0.005538
2313.000000	0.005500
2312.000000	0.005481
2311.000000	0.005464
2310.000000	0.005437
2309.000000	0.005418
2308.000000	0.005423
2307.000000	0.005443
2306.000000	0.005455
2305.000000	0.005453
2304.000000	0.005453
2303.000000	0.005463
2302.000000	0.005475
2301.000000	0.005479
2300.000000	0.005474
2299.000000	0.005470
2298.000000	0.005468
2297.000000	0.005458
2296.000000	0.005427
2295.000000	0.005383
2294.000000	0.005352
2293.000000	0.005354
2292.000000	0.005380
2291.000000	0.005404
2290.000000	0.005413
2289.000000	0.005417
2288.000000	0.005424
2287.000000	0.005428
2286.000000	0.005425
2285.000000	0.005416
2284.000000	0.005407
2283.000000	0.005392
2282.000000	0.005366
2281.000000	0.005336
2280.000000	0.005320
2279.000000	0.005328
2278.000000	0.005356
2277.000000	0.005381
2276.000000	0.005373
2275.000000	0.005317
2274.000000	0.005234
2273.000000	0.005165
2272.000000	0.005131
2271.000000	0.005121
2270.000000	0.005118
2269.000000	0.005122
2268.000000	0.005134
2267.000000	0.005151
2266.000000	0.005169
2265.000000	0.005190
2264.000000	0.005215
2263.000000	0.005242
2262.000000	0.005277
2261.000000	0.005329
2260.000000	0.005394
2259.000000	0.005447
2258.000000	0.005464
2257.000000	0.005424
2256.000000	0.005320
2255.000000	0.005165
2254.000000	0.005008
2253.000000	0.004905
2252.000000	0.004869
2251.000000	0.004872
2250.000000	0.004886
2249.000000	0.004904
2248.000000	0.004926
2247.000000	0.004945
2246.000000	0.004962
2245.000000	0.004988
2244.000000	0.005016
2243.000000	0.005022
2242.000000	0.004991
2241.000000	0.004935
2240.000000	0.004872
2239.000000	0.004812
2238.000000	0.004766
2237.000000	0.004746
2236.000000	0.004744
2235.000000	0.004744
2234.000000	0.004757
2233.000000	0.004822
2232.000000	0.004944
2231.000000	0.005063
2230.000000	0.005097
2229.000000	0.005019
2228.000000	0.004878
2227.000000	0.004758
2226.000000	0.004724
2225.000000	0.004785
2224.000000	0.004884
2223.000000	0.004957
2222.000000	0.004992
2221.000000	0.005017
2220.000000	0.005032
2219.000000	0.005009
2218.000000	0.004966
2217.000000	0.004973
2216.000000	0.005053
2215.000000	0.005121
2214.000000	0.005076
2213.000000	0.004925
2212.000000	0.004772
2211.000000	0.004694
2210.000000	0.004677
2209.000000	0.004670
2208.000000	0.004656
2207.000000	0.004655
2206.000000	0.004680
2205.000000	0.004707
2204.000000	0.004698
2203.000000	0.004651
2202.000000	0.004625
2201.000000	0.004680
2200.000000	0.004803
2199.000000	0.004914
2198.000000	0.004972
2197.000000	0.005027
2196.000000	0.005137
2195.000000	0.005270
2194.000000	0.005317
2193.000000	0.005208
2192.000000	0.005000
2191.000000	0.004830
2190.000000	0.004790
2189.000000	0.004841
2188.000000	0.004861
2187.000000	0.004784
2186.000000	0.004685
2185.000000	0.004694
2184.000000	0.004828
2183.000000	0.004976
2182.000000	0.005039
2181.000000	0.005030
2180.000000	0.005011
2179.000000	0.004995
2178.000000	0.004956
2177.000000	0.004883
2176.000000	0.004774
2175.000000	0.004601
2174.000000	0.004355
2173.000000	0.004100
2172.000000	0.003952
2171.000000	0.003993
2170.000000	0.004228
2169.000000	0.004585
2168.000000	0.004937
2167.000000	0.005153
2166.000000	0.005168
2165.000000	0.005015
2164.000000	0.004782
2163.000000	0.004545
2162.000000	0.004358
2161.000000	0.004237
2160.000000	0.004135
2159.000000	0.003962
2158.000000	0.003693
2157.000000	0.003420
2156.000000	0.003258
2155.000000	0.003259
2154.000000	0.003414
2153.000000	0.003675
2152.000000	0.003953
2151.000000	0.004148
2150.000000	0.004225
2149.000000	0.004231
2148.000000	0.004234
2147.000000	0.004273
2146.000000	0.004351
2145.000000	0.004436
2144.000000	0.004459
2143.000000	0.004365
2142.000000	0.004184
2141.000000	0.004032
2140.000000	0.004012
2139.000000	0.004115
2138.000000	0.004243
2137.000000	0.004288
2136.000000	0.004211
2135.000000	0.004069
2134.000000	0.003975
2133.000000	0.004006
2132.000000	0.004137
2131.000000	0.004281
2130.000000	0.004385
2129.000000	0.004458
2128.000000	0.004510
2127.000000	0.004526
2126.000000	0.004509
2125.000000	0.004511
2124.000000	0.004576
2123.000000	0.004674
2122.000000	0.004737
2121.000000	0.004745
2120.000000	0.004738
2119.000000	0.004755
2118.000000	0.004784
2117.000000	0.004797
2116.000000	0.004803
2115.000000	0.004841
2114.000000	0.004921
2113.000000	0.004999
2112.000000	0.005013
2111.000000	0.004950
2110.000000	0.004865
2109.000000	0.004817
2108.000000	0.004807
2107.000000	0.004782
2106.000000	0.004707
2105.000000	0.004614
2104.000000	0.004569
2103.000000	0.004611
2102.000000	0.004724
2101.000000	0.004848
2100.000000	0.004915
2099.000000	0.004893
2098.000000	0.004808
2097.000000	0.004721
2096.000000	0.004674
2095.000000	0.004659
2094.000000	0.004653
2093.000000	0.004652
2092.000000	0.004666
2091.000000	0.004695
2090.000000	0.004729
2089.000000	0.004764
2088.000000	0.004807
2087.000000	0.004855
2086.000000	0.004899
2085.000000	0.004928
2084.000000	0.004939
2083.000000	0.004937
2082.000000	0.004939
2081.000000	0.004964
2080.000000	0.005009
2079.000000	0.005041
2078.000000	0.005024
2077.000000	0.004950
2076.000000	0.004841
2075.000000	0.004718
2074.000000	0.004592
2073.000000	0.004480
2072.000000	0.004420
2071.000000	0.004454
2070.000000	0.004575
2069.000000	0.004698
2068.000000	0.004726
2067.000000	0.004646
2066.000000	0.004553
2065.000000	0.004539
2064.000000	0.004587
2063.000000	0.004606
2062.000000	0.004557
2061.000000	0.004488
2060.000000	0.004452
2059.000000	0.004442
2058.000000	0.004419
2057.000000	0.004368
2056.000000	0.004307
2055.000000	0.004270
2054.000000	0.004300
2053.000000	0.004417
2052.000000	0.004579
2051.000000	0.004701
2050.000000	0.004734
2049.000000	0.004705
2048.000000	0.004671
2047.000000	0.004646
2046.000000	0.004612
2045.000000	0.004575
2044.000000	0.004572
2043.000000	0.004626
2042.000000	0.004720
2041.000000	0.004788
2040.000000	0.004727
2039.000000	0.004468
2038.000000	0.004061
2037.000000	0.003670
2036.000000	0.003461
2035.000000	0.003486
2034.000000	0.003682
2033.000000	0.003910
2032.000000	0.004007
2031.000000	0.003897
2030.000000	0.003692
2029.000000	0.003607
2028.000000	0.003743
2027.000000	0.003980
2026.000000	0.004144
2025.000000	0.004198
2024.000000	0.004209
2023.000000	0.004190
2022.000000	0.004061
2021.000000	0.003779
2020.000000	0.003442
2019.000000	0.003229
2018.000000	0.003240
2017.000000	0.003398
2016.000000	0.003505
2015.000000	0.003433
2014.000000	0.003249
2013.000000	0.003135
2012.000000	0.003196
2011.000000	0.003386
2010.000000	0.003591
2009.000000	0.003745
2008.000000	0.003850
2007.000000	0.003937
2006.000000	0.004033
2005.000000	0.004114
2004.000000	0.004105
2003.000000	0.003958
2002.000000	0.003732
2001.000000	0.003551
2000.000000	0.003479
1999.000000	0.003462
1998.000000	0.003435
1997.000000	0.003408
1996.000000	0.003431
1995.000000	0.003519
1994.000000	0.003648
1993.000000	0.003787
1992.000000	0.003895
1991.000000	0.003920
1990.000000	0.003840
1989.000000	0.003716
1988.000000	0.003655
1987.000000	0.003710
1986.000000	0.003827
1985.000000	0.003890
1984.000000	0.003841
1983.000000	0.003744
1982.000000	0.003721
1981.000000	0.003818
1980.000000	0.003943
1979.000000	0.003960
1978.000000	0.003842
1977.000000	0.003681
1976.000000	0.003564
1975.000000	0.003506
1974.000000	0.003504
1973.000000	0.003571
1972.000000	0.003687
1971.000000	0.003782
1970.000000	0.003779
1969.000000	0.003635
1968.000000	0.003381
1967.000000	0.003132
1966.000000	0.003037
1965.000000	0.003150
1964.000000	0.003363
1963.000000	0.003523
1962.000000	0.003593
1961.000000	0.003639
1960.000000	0.003701
1959.000000	0.003731
1958.000000	0.003683
1957.000000	0.003590
1956.000000	0.003517
1955.000000	0.003490
1954.000000	0.003492
1953.000000	0.003491
1952.000000	0.003472
1951.000000	0.003451
1950.000000	0.003467
1949.000000	0.003549
1948.000000	0.003675
1947.000000	0.003786
1946.000000	0.003825
1945.000000	0.003769
1944.000000	0.003639
1943.000000	0.003503
1942.000000	0.003457
1941.000000	0.003547
1940.000000	0.003706
1939.000000	0.003824
1938.000000	0.003848
1937.000000	0.003796
1936.000000	0.003714
1935.000000	0.003645
1934.000000	0.003620
1933.000000	0.003648
1932.000000	0.003695
1931.000000	0.003724
1930.000000	0.003723
1929.000000	0.003710
1928.000000	0.003691
1927.000000	0.003660
1926.000000	0.003632
1925.000000	0.003631
1924.000000	0.003651
1923.000000	0.003643
1922.000000	0.003582
1921.000000	0.003504
1920.000000	0.003475
1919.000000	0.003526
1918.000000	0.003631
1917.000000	0.003717
1916.000000	0.003735
1915.000000	0.003696
1914.000000	0.003656
1913.000000	0.003649
1912.000000	0.003655
1911.000000	0.003631
1910.000000	0.003570
1909.000000	0.003508
1908.000000	0.003477
1907.000000	0.003474
1906.000000	0.003488
1905.000000	0.003511
1904.000000	0.003540
1903.000000	0.003572
1902.000000	0.003610
1901.000000	0.003662
1900.000000	0.003730
1899.000000	0.003805
1898.000000	0.003876
1897.000000	0.003921
1896.000000	0.003914
1895.000000	0.003842
1894.000000	0.003730
1893.000000	0.003621
1892.000000	0.003543
1891.000000	0.003511
1890.000000	0.003532
1889.000000	0.003592
1888.000000	0.003650
1887.000000	0.003671
1886.000000	0.003667
1885.000000	0.003672
1884.000000	0.003684
1883.000000	0.003675
1882.000000	0.003639
1881.000000	0.003606
1880.000000	0.003597
1879.000000	0.003610
1878.000000	0.003637
1877.000000	0.003669
1876.000000	0.003688
1875.000000	0.003682
1874.000000	0.003649
1873.000000	0.003599
1872.000000	0.003535
1871.000000	0.003462
1870.000000	0.003398
1869.000000	0.003368
1868.000000	0.003381
1867.000000	0.003425
1866.000000	0.003480
1865.000000	0.003538
1864.000000	0.003592
1863.000000	0.003636
1862.000000	0.003673
1861.000000	0.003707
1860.000000	0.003728
1859.000000	0.003718
1858.000000	0.003681
1857.000000	0.003643
1856.000000	0.003616
1855.000000	0.003597
1854.000000	0.003583
1853.000000	0.003570
1852.000000	0.003541
1851.000000	0.003488
1850.000000	0.003443
1849.000000	0.003430
1848.000000	0.003419
1847.000000	0.003376
1846.000000	0.003335
1845.000000	0.003360
1844.000000	0.003445
1843.000000	0.003506
1842.000000	0.003495
1841.000000	0.003467
1840.000000	0.003476
1839.000000	0.003503
1838.000000	0.003503
1837.000000	0.003477
1836.000000	0.003462
1835.000000	0.003464
1834.000000	0.003461
1833.000000	0.003437
1832.000000	0.003403
1831.000000	0.003367
1830.000000	0.003342
1829.000000	0.003334
1828.000000	0.003333
1827.000000	0.003328
1826.000000	0.003340
1825.000000	0.003382
1824.000000	0.003429
1823.000000	0.003450
1822.000000	0.003452
1821.000000	0.003456
1820.000000	0.003451
1819.000000	0.003412
1818.000000	0.003359
1817.000000	0.003343
1816.000000	0.003382
1815.000000	0.003435
1814.000000	0.003460
1813.000000	0.003456
1812.000000	0.003441
1811.000000	0.003426
1810.000000	0.003411
1809.000000	0.003401
1808.000000	0.003400
1807.000000	0.003408
1806.000000	0.003424
1805.000000	0.003449
1804.000000	0.003471
1803.000000	0.003468
1802.000000	0.003431
1801.000000	0.003387
1800.000000	0.003359
1799.000000	0.003358
1798.000000	0.003367
1797.000000	0.003374
1796.000000	0.003374
1795.000000	0.003371
1794.000000	0.003383
1793.000000	0.003413
1792.000000	0.003434
1791.000000	0.003424
1790.000000	0.003392
1789.000000	0.003362
1788.000000	0.003349
1787.000000	0.003360
1786.000000	0.003396
1785.000000	0.003455
1784.000000	0.003501
1783.000000	0.003493
1782.000000	0.003445
1781.000000	0.003411
1780.000000	0.003399
1779.000000	0.003390
1778.000000	0.003373
1777.000000	0.003365
1776.000000	0.003360
1775.000000	0.003334
1774.000000	0.003307
1773.000000	0.003317
1772.000000	0.003349
1771.000000	0.003358
1770.000000	0.003353
1769.000000	0.003389
1768.000000	0.003499
1767.000000	0.003626
1766.000000	0.003694
1765.000000	0.003715
1764.000000	0.003760
1763.000000	0.003873
1762.000000	0.004048
1761.000000	0.004256
1760.000000	0.004464
1759.000000	0.004680
1758.000000	0.004964
1757.000000	0.005366
1756.000000	0.005820
1755.000000	0.006208
1754.000000	0.006527
1753.000000	0.006884
1752.000000	0.007332
1751.000000	0.007783
1750.000000	0.008127
1749.000000	0.008375
1748.000000	0.008593
1747.000000	0.008771
1746.000000	0.008877
1745.000000	0.008903
1744.000000	0.008845
1743.000000	0.008704
1742.000000	0.008503
1741.000000	0.008268
1740.000000	0.007987
1739.000000	0.007629
1738.000000	0.007209
1737.000000	0.006809
1736.000000	0.006510
1735.000000	0.006297
1734.000000	0.006077
1733.000000	0.005804
1732.000000	0.005493
1731.000000	0.005205
1730.000000	0.005012
1729.000000	0.004919
1728.000000	0.004871
1727.000000	0.004804
1726.000000	0.004708
1725.000000	0.004606
1724.000000	0.004504
1723.000000	0.004399
1722.000000	0.004287
1721.000000	0.004188
1720.000000	0.004133
1719.000000	0.004119
1718.000000	0.004105
1717.000000	0.004081
1716.000000	0.004088
1715.000000	0.004134
1714.000000	0.004218
1713.000000	0.004338
1712.000000	0.004463
1711.000000	0.004590
1710.000000	0.004705
1709.000000	0.004882
1708.000000	0.005245
1707.000000	0.005420
1706.000000	0.005641
1705.000000	0.005887
1704.000000	0.006155
1703.000000	0.006398
1702.000000	0.006648
1701.000000	0.006995
1700.000000	0.007441
1699.000000	0.007839
1698.000000	0.008155
1697.000000	0.008501
1696.000000	0.008945
1695.000000	0.009404
1694.000000	0.009796
1693.000000	0.010124
1692.000000	0.010464
1691.000000	0.010759
1690.000000	0.010879
1689.000000	0.011198
1688.000000	0.011446
1687.000000	0.011694
1686.000000	0.012020
1685.000000	0.012537
1684.000000	0.013165
1683.000000	0.013697
1682.000000	0.014083
1681.000000	0.014430
1680.000000	0.014860
1679.000000	0.015338
1678.000000	0.015823
1677.000000	0.016398
1676.000000	0.017137
1675.000000	0.017906
1674.000000	0.018473
1673.000000	0.018837
1672.000000	0.019199
1671.000000	0.019722
1670.000000	0.020407
1669.000000	0.021168
1668.000000	0.021876
1667.000000	0.022443
1666.000000	0.022916
1665.000000	0.023432
1664.000000	0.024064
1663.000000	0.024743
1662.000000	0.025359
1661.000000	0.025897
1660.000000	0.026409
1659.000000	0.026872
1658.000000	0.027319
1657.000000	0.027851
1656.000000	0.028214
1655.000000	0.028602
1654.000000	0.029004
1653.000000	0.029439
1652.000000	0.029827
1651.000000	0.030136
1650.000000	0.030408
1649.000000	0.030690
1648.000000	0.030988
1647.000000	0.031243
1646.000000	0.031456
1645.000000	0.031665
1644.000000	0.031854
1643.000000	0.032102
1642.000000	0.032307
1641.000000	0.032519
1640.000000	0.032709
1639.000000	0.032856
1638.000000	0.032986
1637.000000	0.033177
1636.000000	0.033465
1635.000000	0.033784
1634.000000	0.034008
1633.000000	0.034064
1632.000000	0.034056
1631.000000	0.034056
1630.000000	0.034039
1629.000000	0.033970
1628.000000	0.033839
1627.000000	0.033648
1626.000000	0.033395
1625.000000	0.033082
1624.000000	0.032695
1623.000000	0.032228
1622.000000	0.031728
1621.000000	0.031248
1620.000000	0.030798
1619.000000	0.030360
1618.000000	0.029856
1617.000000	0.029210
1616.000000	0.028482
1615.000000	0.027804
1614.000000	0.027198
1613.000000	0.026631
1612.000000	0.026065
1611.000000	0.025473
1610.000000	0.024867
1609.000000	0.024278
1608.000000	0.023724
1607.000000	0.023207
1606.000000	0.022726
1605.000000	0.022268
1604.000000	0.021809
1603.000000	0.021357
1602.000000	0.020945
1601.000000	0.020588
1600.000000	0.020276
1599.000000	0.019993
1598.000000	0.019725
1597.000000	0.019456
1596.000000	0.019190
1595.000000	0.018963
1594.000000	0.018809
1593.000000	0.018709
1592.000000	0.018622
1591.000000	0.018539
1590.000000	0.018482
1589.000000	0.018469
1588.000000	0.018493
1587.000000	0.018549
1586.000000	0.018623
1585.000000	0.018700
1584.000000	0.018771
1583.000000	0.018853
1582.000000	0.018977
1581.000000	0.019121
1580.000000	0.019237
1579.000000	0.019331
1578.000000	0.019476
1577.000000	0.019717
1576.000000	0.020030
1575.000000	0.020343
1574.000000	0.020590
1573.000000	0.020789
1572.000000	0.021022
1571.000000	0.021352
1570.000000	0.021742
1569.000000	0.022135
1568.000000	0.022444
1567.000000	0.022773
1566.000000	0.023265
1565.000000	0.023638
1564.000000	0.024043
1563.000000	0.024412
1562.000000	0.024774
1561.000000	0.025134
1560.000000	0.025517
1559.000000	0.025919
1558.000000	0.026328
1557.000000	0.026680
1556.000000	0.026904
1555.000000	0.027162
1554.000000	0.027496
1553.000000	0.027823
1552.000000	0.028068
1551.000000	0.028277
1550.000000	0.028492
1549.000000	0.028704
1548.000000	0.028897
1547.000000	0.029064
1546.000000	0.029203
1545.000000	0.029263
1544.000000	0.029229
1543.000000	0.029187
1542.000000	0.029222
1541.000000	0.029277
1540.000000	0.029301
1539.000000	0.029385
1538.000000	0.029486
1537.000000	0.029464
1536.000000	0.029413
1535.000000	0.029390
1534.000000	0.029337
1533.000000	0.029203
1532.000000	0.029033
1531.000000	0.028872
1530.000000	0.028717
1529.000000	0.028558
1528.000000	0.028381
1527.000000	0.028182
1526.000000	0.027984
1525.000000	0.027793
1524.000000	0.027581
1523.000000	0.027329
1522.000000	0.027023
1521.000000	0.026716
1520.000000	0.026474
1519.000000	0.026259
1518.000000	0.026036
1517.000000	0.025808
1516.000000	0.025603
1515.000000	0.025434
1514.000000	0.025263
1513.000000	0.025050
1512.000000	0.024761
1511.000000	0.024382
1510.000000	0.023939
1509.000000	0.023465
1508.000000	0.022903
1507.000000	0.022245
1506.000000	0.021823
1505.000000	0.021707
1504.000000	0.021497
1503.000000	0.021168
1502.000000	0.020830
1501.000000	0.020495
1500.000000	0.020140
1499.000000	0.019748
1498.000000	0.019321
1497.000000	0.018892
1496.000000	0.018505
1495.000000	0.018148
1494.000000	0.017783
1493.000000	0.017423
1492.000000	0.017077
1491.000000	0.016692
1490.000000	0.016235
1489.000000	0.015815
1488.000000	0.015552
1487.000000	0.015416
1486.000000	0.015322
1485.000000	0.015251
1484.000000	0.015207
1483.000000	0.015179
1482.000000	0.015165
1481.000000	0.015173
1480.000000	0.015209
1479.000000	0.015266
1478.000000	0.015343
1477.000000	0.015438
1476.000000	0.015548
1475.000000	0.015682
1474.000000	0.015901
1473.000000	0.016269
1472.000000	0.016764
1471.000000	0.017284
1470.000000	0.017740
1469.000000	0.018145
1468.000000	0.018534
1467.000000	0.018898
1466.000000	0.019233
1465.000000	0.019555
1464.000000	0.019847
1463.000000	0.020071
1462.000000	0.020229
1461.000000	0.020383
1460.000000	0.020573
1459.000000	0.020806
1458.000000	0.021100
1457.000000	0.021486
1456.000000	0.021896
1455.000000	0.022146
1454.000000	0.022241
1453.000000	0.022335
1452.000000	0.022454
1451.000000	0.022555
1450.000000	0.022614
1449.000000	0.022640
1448.000000	0.022634
1447.000000	0.022595
1446.000000	0.022548
1445.000000	0.022508
1444.000000	0.022454
1443.000000	0.022375
1442.000000	0.022267
1441.000000	0.022129
1440.000000	0.021969
1439.000000	0.021817
1438.000000	0.021676
1437.000000	0.021499
1436.000000	0.021247
1435.000000	0.020948
1434.000000	0.020659
1433.000000	0.020427
1432.000000	0.020245
1431.000000	0.020065
1430.000000	0.019867
1429.000000	0.019689
1428.000000	0.019569
1427.000000	0.019483
1426.000000	0.019399
1425.000000	0.019304
1424.000000	0.019194
1423.000000	0.019101
1422.000000	0.019064
1421.000000	0.019094
1420.000000	0.019147
1419.000000	0.019140
1418.000000	0.019066
1417.000000	0.019003
1416.000000	0.018997
1415.000000	0.019037
1414.000000	0.019087
1413.000000	0.019122
1412.000000	0.019153
1411.000000	0.019209
1410.000000	0.019294
1409.000000	0.019387
1408.000000	0.019471
1407.000000	0.019541
1406.000000	0.019599
1405.000000	0.019664
1404.000000	0.019739
1403.000000	0.019811
1402.000000	0.019868
1401.000000	0.019912
1400.000000	0.019933
1399.000000	0.019901
1398.000000	0.019822
1397.000000	0.019736
1396.000000	0.019672
1395.000000	0.019624
1394.000000	0.019578
1393.000000	0.019524
1392.000000	0.019459
1391.000000	0.019396
1390.000000	0.019342
1389.000000	0.019274
1388.000000	0.019168
1387.000000	0.019042
1386.000000	0.018941
1385.000000	0.018884
1384.000000	0.018844
1383.000000	0.018793
1382.000000	0.018717
1381.000000	0.018623
1380.000000	0.018532
1379.000000	0.018439
1378.000000	0.018325
1377.000000	0.018172
1376.000000	0.017978
1375.000000	0.017752
1374.000000	0.017528
1373.000000	0.017343
1372.000000	0.017191
1371.000000	0.017035
1370.000000	0.016854
1369.000000	0.016657
1368.000000	0.016454
1367.000000	0.016256
1366.000000	0.016054
1365.000000	0.015827
1364.000000	0.015566
1363.000000	0.015305
1362.000000	0.015109
1361.000000	0.015007
1360.000000	0.014952
1359.000000	0.014896
1358.000000	0.014836
1357.000000	0.014791
1356.000000	0.014776
1355.000000	0.014791
1354.000000	0.014835
1353.000000	0.014900
1352.000000	0.014981
1351.000000	0.015072
1350.000000	0.015174
1349.000000	0.015297
1348.000000	0.015442
1347.000000	0.015603
1346.000000	0.015771
1345.000000	0.015939
1344.000000	0.016096
1343.000000	0.016226
1342.000000	0.016317
1341.000000	0.016369
1340.000000	0.016402
1339.000000	0.016452
1338.000000	0.016546
1337.000000	0.016668
1336.000000	0.016780
1335.000000	0.016843
1334.000000	0.016843
1333.000000	0.016785
1332.000000	0.016684
1331.000000	0.016553
1330.000000	0.016400
1329.000000	0.016242
1328.000000	0.016098
1327.000000	0.015988
1326.000000	0.015914
1325.000000	0.015864
1324.000000	0.015819
1323.000000	0.015771
1322.000000	0.015723
1321.000000	0.015681
1320.000000	0.015652
1319.000000	0.015638
1318.000000	0.015640
1317.000000	0.015646
1316.000000	0.015637
1315.000000	0.015597
1314.000000	0.015519
1313.000000	0.015412
1312.000000	0.015291
1311.000000	0.015173
1310.000000	0.015068
1309.000000	0.014977
1308.000000	0.014895
1307.000000	0.014812
1306.000000	0.014719
1305.000000	0.014617
1304.000000	0.014511
1303.000000	0.014406
1302.000000	0.014307
1301.000000	0.014216
1300.000000	0.014135
1299.000000	0.014062
1298.000000	0.013993
1297.000000	0.013926
1296.000000	0.013866
1295.000000	0.013832
1294.000000	0.013844
1293.000000	0.013905
1292.000000	0.014001
1291.000000	0.014115
1290.000000	0.014235
1289.000000	0.014355
1288.000000	0.014473
1287.000000	0.014589
1286.000000	0.014710
1285.000000	0.014837
1284.000000	0.014956
1283.000000	0.015048
1282.000000	0.015108
1281.000000	0.015143
1280.000000	0.015166
1279.000000	0.015181
1278.000000	0.015190
1277.000000	0.015195
1276.000000	0.015196
1275.000000	0.015182
1274.000000	0.015146
1273.000000	0.015094
1272.000000	0.015051
1271.000000	0.015046
1270.000000	0.015086
1269.000000	0.015151
1268.000000	0.015216
1267.000000	0.015268
1266.000000	0.015321
1265.000000	0.015388
1264.000000	0.015470
1263.000000	0.015561
1262.000000	0.015659
1261.000000	0.015768
1260.000000	0.015891
1259.000000	0.016022
1258.000000	0.016151
1257.000000	0.016276
1256.000000	0.016396
1255.000000	0.016515
1254.000000	0.016649
1253.000000	0.016817
1252.000000	0.017027
1251.000000	0.017269
1250.000000	0.017524
1249.000000	0.017778
1248.000000	0.018024
1247.000000	0.018257
1246.000000	0.018480
1245.000000	0.018696
1244.000000	0.018899
1243.000000	0.019084
1242.000000	0.019252
1241.000000	0.019413
1240.000000	0.019569
1239.000000	0.019706
1238.000000	0.019809
1237.000000	0.019873
1236.000000	0.019900
1235.000000	0.019894
1234.000000	0.019858
1233.000000	0.019796
1232.000000	0.019700
1231.000000	0.019562
1230.000000	0.019386
1229.000000	0.019179
1228.000000	0.018941
1227.000000	0.018664
1226.000000	0.018350
1225.000000	0.018014
1224.000000	0.017670
1223.000000	0.017326
1222.000000	0.016985
1221.000000	0.016650
1220.000000	0.016330
1219.000000	0.016032
1218.000000	0.015769
1217.000000	0.015551
1216.000000	0.015375
1215.000000	0.015233
1214.000000	0.015122
1213.000000	0.015047
1212.000000	0.015017
1211.000000	0.015036
1210.000000	0.015100
1209.000000	0.015194
1208.000000	0.015290
1207.000000	0.015366
1206.000000	0.015416
1205.000000	0.015458
1204.000000	0.015508
1203.000000	0.015556
1202.000000	0.015577
1201.000000	0.015546
1200.000000	0.015457
1199.000000	0.015320
1198.000000	0.015154
1197.000000	0.014976
1196.000000	0.014791
1195.000000	0.014601
1194.000000	0.014413
1193.000000	0.014245
1192.000000	0.014097
1191.000000	0.013953
1190.000000	0.013794
1189.000000	0.013623
1188.000000	0.013454
1187.000000	0.013301
1186.000000	0.013167
1185.000000	0.013048
1184.000000	0.012946
1183.000000	0.012862
1182.000000	0.012800
1181.000000	0.012771
1180.000000	0.012784
1179.000000	0.012837
1178.000000	0.012910
1177.000000	0.012982
1176.000000	0.013040
1175.000000	0.013087
1174.000000	0.013142
1173.000000	0.013227
1172.000000	0.013349
1171.000000	0.013489
1170.000000	0.013620
1169.000000	0.013730
1168.000000	0.013831
1167.000000	0.013939
1166.000000	0.014054
1165.000000	0.014167
1164.000000	0.014273
1163.000000	0.014371
1162.000000	0.014453
1161.000000	0.014506
1160.000000	0.014512
1159.000000	0.014471
1158.000000	0.014392
1157.000000	0.014286
1156.000000	0.014155
1155.000000	0.014000
1154.000000	0.013825
1153.000000	0.013639
1152.000000	0.013452
1151.000000	0.013268
1150.000000	0.013095
1149.000000	0.012932
1148.000000	0.012770
1147.000000	0.012598
1146.000000	0.012410
1145.000000	0.012211
1144.000000	0.012014
1143.000000	0.011823
1142.000000	0.011637
1141.000000	0.011456
1140.000000	0.011278
1139.000000	0.011097
1138.000000	0.010908
1137.000000	0.010719
1136.000000	0.010546
1135.000000	0.010399
1134.000000	0.010280
1133.000000	0.010182
1132.000000	0.010100
1131.000000	0.010023
1130.000000	0.009943
1129.000000	0.009871
1128.000000	0.009835
1127.000000	0.009854
1126.000000	0.009910
1125.000000	0.009971
1124.000000	0.010025
1123.000000	0.010085
1122.000000	0.010163
1121.000000	0.010256
1120.000000	0.010350
1119.000000	0.010440
1118.000000	0.010523
1117.000000	0.010593
1116.000000	0.010642
1115.000000	0.010670
1114.000000	0.010690
1113.000000	0.010715
1112.000000	0.010749
1111.000000	0.010788
1110.000000	0.010825
1109.000000	0.010852
1108.000000	0.010870
1107.000000	0.010885
1106.000000	0.010912
1105.000000	0.010969
1104.000000	0.011057
1103.000000	0.011156
1102.000000	0.011233
1101.000000	0.011278
1100.000000	0.011306
1099.000000	0.011335
1098.000000	0.011360
1097.000000	0.011363
1096.000000	0.011345
1095.000000	0.011338
1094.000000	0.011376
1093.000000	0.011466
1092.000000	0.011588
1091.000000	0.011724
1090.000000	0.011869
1089.000000	0.012031
1088.000000	0.012220
1087.000000	0.012434
1086.000000	0.012652
1085.000000	0.012846
1084.000000	0.012997
1083.000000	0.013105
1082.000000	0.013176
1081.000000	0.013208
1080.000000	0.013189
1079.000000	0.013124
1078.000000	0.013028
1077.000000	0.012909
1076.000000	0.012758
1075.000000	0.012570
1074.000000	0.012361
1073.000000	0.012168
1072.000000	0.012019
1071.000000	0.011923
1070.000000	0.011866
1069.000000	0.011829
1068.000000	0.011805
1067.000000	0.011804
1066.000000	0.011839
1065.000000	0.011904
1064.000000	0.011981
1063.000000	0.012056
1062.000000	0.012120
1061.000000	0.012166
1060.000000	0.012182
1059.000000	0.012170
1058.000000	0.012148
1057.000000	0.012132
1056.000000	0.012118
1055.000000	0.012086
1054.000000	0.012028
1053.000000	0.011953
1052.000000	0.011875
1051.000000	0.011798
1050.000000	0.011734
1049.000000	0.011693
1048.000000	0.011677
1047.000000	0.011671
1046.000000	0.011649
1045.000000	0.011602
1044.000000	0.011545
1043.000000	0.011505
1042.000000	0.011508
1041.000000	0.011558
1040.000000	0.011642
1039.000000	0.011750
1038.000000	0.011878
1037.000000	0.012027
1036.000000	0.012190
1035.000000	0.012351
1034.000000	0.012504
1033.000000	0.012648
1032.000000	0.012783
1031.000000	0.012898
1030.000000	0.012976
1029.000000	0.012998
1028.000000	0.012942
1027.000000	0.012801
1026.000000	0.012605
1025.000000	0.012412
1024.000000	0.012267
1023.000000	0.012170
1022.000000	0.012084
1021.000000	0.011978
1020.000000	0.011851
1019.000000	0.011726
1018.000000	0.011623
1017.000000	0.011541
1016.000000	0.011456
1015.000000	0.011342
1014.000000	0.011195
1013.000000	0.011029
1012.000000	0.010862
1011.000000	0.010702
1010.000000	0.010546
1009.000000	0.010391
1008.000000	0.010240
1007.000000	0.010096
1006.000000	0.009963
1005.000000	0.009844
1004.000000	0.009735
1003.000000	0.009623
1002.000000	0.009494
1001.000000	0.009345
1000.000000	0.009193
999.000000	0.009058
998.000000	0.008954
997.000000	0.008871
996.000000	0.008790
995.000000	0.008691
994.000000	0.008566
993.000000	0.008416
992.000000	0.008251
991.000000	0.008091
990.000000	0.007957
989.000000	0.007862
988.000000	0.007801
987.000000	0.007760
986.000000	0.007726
985.000000	0.007696
984.000000	0.007668
983.000000	0.007637
982.000000	0.007604
981.000000	0.007570
980.000000	0.007535
979.000000	0.007496
978.000000	0.007454
977.000000	0.007416
976.000000	0.007386
975.000000	0.007353
974.000000	0.007298
973.000000	0.007220
972.000000	0.007138
971.000000	0.007073
970.000000	0.007025
969.000000	0.006974
968.000000	0.006899
967.000000	0.006793
966.000000	0.006671
965.000000	0.006557
964.000000	0.006462
963.000000	0.006371
962.000000	0.006261
961.000000	0.006125
960.000000	0.005982
959.000000	0.005850
958.000000	0.005738
957.000000	0.005641
956.000000	0.005558
955.000000	0.005484
954.000000	0.005408
953.000000	0.005327
952.000000	0.005248
951.000000	0.005181
950.000000	0.005132
949.000000	0.005102
948.000000	0.005090
947.000000	0.005090
946.000000	0.005087
945.000000	0.005075
944.000000	0.005060
943.000000	0.005043
942.000000	0.005015
941.000000	0.004974
940.000000	0.004936
939.000000	0.004913
938.000000	0.004891
937.000000	0.004843
936.000000	0.004771
935.000000	0.004704
934.000000	0.004661
933.000000	0.004633
932.000000	0.004600
931.000000	0.004560
930.000000	0.004522
929.000000	0.004493
928.000000	0.004465
927.000000	0.004425
926.000000	0.004373
925.000000	0.004325
924.000000	0.004308
923.000000	0.004331
922.000000	0.004369
921.000000	0.004382
920.000000	0.004352
919.000000	0.004294
918.000000	0.004226
917.000000	0.004148
916.000000	0.004057
915.000000	0.003965
914.000000	0.003893
913.000000	0.003843
912.000000	0.003800
911.000000	0.003752
910.000000	0.003696
909.000000	0.003637
908.000000	0.003591
907.000000	0.003578
906.000000	0.003600
905.000000	0.003633
904.000000	0.003648
903.000000	0.003643
902.000000	0.003639
901.000000	0.003648
900.000000	0.003649
899.000000	0.003616
898.000000	0.003546
897.000000	0.003462
896.000000	0.003389
895.000000	0.003341
894.000000	0.003318
893.000000	0.003311
892.000000	0.003309
891.000000	0.003312
890.000000	0.003330
889.000000	0.003363
888.000000	0.003397
887.000000	0.003420
886.000000	0.003437
885.000000	0.003474
884.000000	0.003543
883.000000	0.003636
882.000000	0.003735
881.000000	0.003835
880.000000	0.003941
879.000000	0.004057
878.000000	0.004182
877.000000	0.004306
876.000000	0.004420
875.000000	0.004509
874.000000	0.004553
873.000000	0.004530
872.000000	0.004434
871.000000	0.004293
870.000000	0.004147
869.000000	0.004022
868.000000	0.003918
867.000000	0.003827
866.000000	0.003747
865.000000	0.003677
864.000000	0.003611
863.000000	0.003549
862.000000	0.003510
861.000000	0.003510
860.000000	0.003536
859.000000	0.003550
858.000000	0.003526
857.000000	0.003483
856.000000	0.003466
855.000000	0.003509
854.000000	0.003608
853.000000	0.003724
852.000000	0.003807
851.000000	0.003825
850.000000	0.003784
849.000000	0.003723
848.000000	0.003673
847.000000	0.003647
846.000000	0.003639
845.000000	0.003642
844.000000	0.003650
843.000000	0.003652
842.000000	0.003637
841.000000	0.003599
840.000000	0.003536
839.000000	0.003467
838.000000	0.003426
837.000000	0.003437
836.000000	0.003482
835.000000	0.003513
834.000000	0.003498
833.000000	0.003455
832.000000	0.003415
831.000000	0.003385
830.000000	0.003350
829.000000	0.003310
828.000000	0.003278
827.000000	0.003261
826.000000	0.003258
825.000000	0.003275
824.000000	0.003324
823.000000	0.003393
822.000000	0.003445
821.000000	0.003454
820.000000	0.003429
819.000000	0.003398
818.000000	0.003386
817.000000	0.003406
816.000000	0.003459
815.000000	0.003522
814.000000	0.003556
813.000000	0.003538
812.000000	0.003490
811.000000	0.003460
810.000000	0.003470
809.000000	0.003497
808.000000	0.003506
807.000000	0.003487
806.000000	0.003460
805.000000	0.003436
804.000000	0.003403
803.000000	0.003345
802.000000	0.003281
801.000000	0.003254
800.000000	0.003282
799.000000	0.003339
798.000000	0.003380
797.000000	0.003387
796.000000	0.003377
795.000000	0.003377
794.000000	0.003398
793.000000	0.003432
792.000000	0.003465
791.000000	0.003484
790.000000	0.003488
789.000000	0.003490
788.000000	0.003507
787.000000	0.003537
786.000000	0.003566
785.000000	0.003581
784.000000	0.003589
783.000000	0.003607
782.000000	0.003639
781.000000	0.003664
780.000000	0.003655
779.000000	0.003616
778.000000	0.003583
777.000000	0.003596
776.000000	0.003651
775.000000	0.003699
774.000000	0.003687
773.000000	0.003604
772.000000	0.003491
771.000000	0.003410
770.000000	0.003404
769.000000	0.003476
768.000000	0.003588
767.000000	0.003690
766.000000	0.003757
765.000000	0.003792
764.000000	0.003806
763.000000	0.003800
762.000000	0.003772
761.000000	0.003724
760.000000	0.003663
759.000000	0.003603
758.000000	0.003569
757.000000	0.003583
756.000000	0.003637
755.000000	0.003690
754.000000	0.003706
753.000000	0.003690
752.000000	0.003675
751.000000	0.003692
750.000000	0.003749
749.000000	0.003840
748.000000	0.003940
747.000000	0.004017
746.000000	0.004055
745.000000	0.004074
744.000000	0.004097
743.000000	0.004133
742.000000	0.004185
741.000000	0.004265
740.000000	0.004375
739.000000	0.004479
738.000000	0.004536
737.000000	0.004553
736.000000	0.004576
735.000000	0.004624
734.000000	0.004677
733.000000	0.004723
732.000000	0.004790
731.000000	0.004909
730.000000	0.005065
729.000000	0.005218
728.000000	0.005347
727.000000	0.005462
726.000000	0.005577
725.000000	0.005685
724.000000	0.005776
723.000000	0.005849
722.000000	0.005907
721.000000	0.005954
720.000000	0.005992
719.000000	0.006020
718.000000	0.006033
717.000000	0.006031
716.000000	0.006031
715.000000	0.006059
714.000000	0.006133
713.000000	0.006235
712.000000	0.006333
711.000000	0.006407
710.000000	0.006463
709.000000	0.006517
708.000000	0.006565
707.000000	0.006590
706.000000	0.006591
705.000000	0.006597
704.000000	0.006635
703.000000	0.006695
702.000000	0.006738
701.000000	0.006738
700.000000	0.006717
699.000000	0.006724
698.000000	0.006782
697.000000	0.006863
696.000000	0.006920
695.000000	0.006941
694.000000	0.006949
693.000000	0.006966
692.000000	0.006986
691.000000	0.006998
690.000000	0.007014
689.000000	0.007042
688.000000	0.007061
687.000000	0.007040
686.000000	0.006994
685.000000	0.006979
684.000000	0.007042
683.000000	0.007176
682.000000	0.007340
681.000000	0.007490
680.000000	0.007586
679.000000	0.007605
678.000000	0.007570
677.000000	0.007553
676.000000	0.007611
675.000000	0.007729
674.000000	0.007853
673.000000	0.007958
672.000000	0.008065
671.000000	0.008195
670.000000	0.008339
669.000000	0.008446
668.000000	0.008415
667.000000	0.008295
666.000000	0.008245
665.000000	0.008286
664.000000	0.008363
663.000000	0.008417
662.000000	0.008400
661.000000	0.008311
660.000000	0.008211
659.000000	0.008165
658.000000	0.008189
657.000000	0.008243
656.000000	0.008281
655.000000	0.008289
654.000000	0.008282
653.000000	0.008280
652.000000	0.008288
651.000000	0.008303
650.000000	0.008336
649.000000	0.008388
648.000000	0.008433
647.000000	0.008434
646.000000	0.008396
645.000000	0.008354
644.000000	0.008326
643.000000	0.008293
642.000000	0.008244
641.000000	0.008210
640.000000	0.008214
639.000000	0.008244
638.000000	0.008271
637.000000	0.008288
636.000000	0.008298
635.000000	0.008294
634.000000	0.008272
633.000000	0.008257
632.000000	0.008282
631.000000	0.008351
630.000000	0.008435
629.000000	0.008510
628.000000	0.008564
627.000000	0.008597
626.000000	0.008617
625.000000	0.008640
624.000000	0.008668
623.000000	0.008688
622.000000	0.008693
621.000000	0.008703
620.000000	0.008741
619.000000	0.008790
618.000000	0.008811
617.000000	0.008784
616.000000	0.008723
615.000000	0.008659
614.000000	0.008629
613.000000	0.008666
612.000000	0.008766
611.000000	0.008865
610.000000	0.008895
609.000000	0.008853
608.000000	0.008785
607.000000	0.008720
606.000000	0.008641
605.000000	0.008534
604.000000	0.008433
603.000000	0.008398
602.000000	0.008457
601.000000	0.008569
600.000000	0.008657
599.000000	0.008684
598.000000	0.008692
597.000000	0.008752
596.000000	0.008860
595.000000	0.008929
594.000000	0.008906
593.000000	0.008852
592.000000	0.008867
591.000000	0.008956
590.000000	0.009033
589.000000	0.009052
588.000000	0.009054
587.000000	0.009066
586.000000	0.009048
585.000000	0.008953
584.000000	0.008815
583.000000	0.008721
582.000000	0.008727
581.000000	0.008825
580.000000	0.008974
579.000000	0.009114
578.000000	0.009190
577.000000	0.009181
576.000000	0.009123
575.000000	0.009098
574.000000	0.009170
573.000000	0.009313
572.000000	0.009418
571.000000	0.009394
570.000000	0.009274
569.000000	0.009205
568.000000	0.009296
567.000000	0.009507
566.000000	0.009721
565.000000	0.009873
564.000000	0.009965
563.000000	0.010008
562.000000	0.010007
561.000000	0.010000
560.000000	0.010016
559.000000	0.010034
558.000000	0.010022
557.000000	0.010017
556.000000	0.010082
555.000000	0.010187
554.000000	0.010225
553.000000	0.010156
552.000000	0.010072
551.000000	0.010083
550.000000	0.010190
549.000000	0.010296
548.000000	0.010317
547.000000	0.010234
546.000000	0.010092
545.000000	0.009943
544.000000	0.009805
543.000000	0.009654
542.000000	0.009485
541.000000	0.009353
540.000000	0.009318
539.000000	0.009384
538.000000	0.009530
537.000000	0.009767
536.000000	0.010085
535.000000	0.010377
534.000000	0.010519
533.000000	0.010521
532.000000	0.010507
531.000000	0.010532
530.000000	0.010506
529.000000	0.010351
528.000000	0.010122
527.000000	0.009934
526.000000	0.009847
525.000000	0.009856
524.000000	0.009949
523.000000	0.010100
522.000000	0.010228
521.000000	0.010220
520.000000	0.010021
519.000000	0.009690
518.000000	0.009363
517.000000	0.009164
516.000000	0.009122
515.000000	0.009163
514.000000	0.009188
513.000000	0.009166
512.000000	0.009131
511.000000	0.009111
510.000000	0.009078
509.000000	0.008994
508.000000	0.008853
507.000000	0.008686
506.000000	0.008538
505.000000	0.008445
504.000000	0.008401
503.000000	0.008334
502.000000	0.008156
501.000000	0.007859
500.000000	0.007526
499.000000	0.007251
498.000000	0.007076
497.000000	0.006998
496.000000	0.006987
495.000000	0.006983
494.000000	0.006935
493.000000	0.006852
492.000000	0.006797
491.000000	0.006821
490.000000	0.006931
489.000000	0.007086
488.000000	0.007189
487.000000	0.007098
486.000000	0.006735
485.000000	0.006222
484.000000	0.005821
483.000000	0.005688
482.000000	0.005754
481.000000	0.005891
480.000000	0.006080
479.000000	0.006333
478.000000	0.006548
477.000000	0.006570
476.000000	0.006369
475.000000	0.006094
474.000000	0.005942
473.000000	0.006007
472.000000	0.006203
471.000000	0.006310
470.000000	0.006172
469.000000	0.005830
468.000000	0.005449
467.000000	0.005175
466.000000	0.005064
465.000000	0.005092
464.000000	0.005181
463.000000	0.005193
462.000000	0.005010
461.000000	0.004692
460.000000	0.004451
459.000000	0.004398
458.000000	0.004396
457.000000	0.004232
456.000000	0.003905
455.000000	0.003594
454.000000	0.003417
453.000000	0.003357
452.000000	0.003358
451.000000	0.003403
450.000000	0.003476
