PE IR       SUBTECH     SPECTRUM    ASCII       PEDS        4.00        
   -1
3C-N10-F038_1.ASC
22/02/16
15:53:21.00
22/02/16
15:56:00.00
uco
Sample 038 By uco Date Wednesday, February 16 2022
450.000000
#HDR
-1
-1
#GR
cm-1
A
1.0
0.0
4000.000000
-1.000000
3551
8
0.065605
0.005934
#DATA
4000.000000	0.006375
3999.000000	0.006372
3998.000000	0.006380
3997.000000	0.006399
3996.000000	0.006422
3995.000000	0.006446
3994.000000	0.006468
3993.000000	0.006482
3992.000000	0.006487
3991.000000	0.006484
3990.000000	0.006479
3989.000000	0.006474
3988.000000	0.006469
3987.000000	0.006463
3986.000000	0.006456
3985.000000	0.006450
3984.000000	0.006447
3983.000000	0.006448
3982.000000	0.006453
3981.000000	0.006462
3980.000000	0.006472
3979.000000	0.006480
3978.000000	0.006481
3977.000000	0.006476
3976.000000	0.006465
3975.000000	0.006454
3974.000000	0.006443
3973.000000	0.006439
3972.000000	0.006444
3971.000000	0.006460
3970.000000	0.006482
3969.000000	0.006501
3968.000000	0.006511
3967.000000	0.006509
3966.000000	0.006504
3965.000000	0.006503
3964.000000	0.006507
3963.000000	0.006513
3962.000000	0.006512
3961.000000	0.006505
3960.000000	0.006496
3959.000000	0.006495
3958.000000	0.006508
3957.000000	0.006534
3956.000000	0.006565
3955.000000	0.006589
3954.000000	0.006600
3953.000000	0.006594
3952.000000	0.006579
3951.000000	0.006563
3950.000000	0.006553
3949.000000	0.006547
3948.000000	0.006538
3947.000000	0.006523
3946.000000	0.006501
3945.000000	0.006482
3944.000000	0.006476
3943.000000	0.006490
3942.000000	0.006519
3941.000000	0.006550
3940.000000	0.006570
3939.000000	0.006578
3938.000000	0.006580
3937.000000	0.006582
3936.000000	0.006587
3935.000000	0.006590
3934.000000	0.006586
3933.000000	0.006575
3932.000000	0.006557
3931.000000	0.006539
3930.000000	0.006525
3929.000000	0.006515
3928.000000	0.006511
3927.000000	0.006514
3926.000000	0.006524
3925.000000	0.006542
3924.000000	0.006563
3923.000000	0.006573
3922.000000	0.006566
3921.000000	0.006546
3920.000000	0.006525
3919.000000	0.006515
3918.000000	0.006515
3917.000000	0.006517
3916.000000	0.006513
3915.000000	0.006502
3914.000000	0.006490
3913.000000	0.006480
3912.000000	0.006473
3911.000000	0.006471
3910.000000	0.006478
3909.000000	0.006498
3908.000000	0.006532
3907.000000	0.006569
3906.000000	0.006589
3905.000000	0.006581
3904.000000	0.006555
3903.000000	0.006532
3902.000000	0.006523
3901.000000	0.006522
3900.000000	0.006521
3899.000000	0.006517
3898.000000	0.006514
3897.000000	0.006518
3896.000000	0.006531
3895.000000	0.006552
3894.000000	0.006572
3893.000000	0.006582
3892.000000	0.006578
3891.000000	0.006569
3890.000000	0.006562
3889.000000	0.006560
3888.000000	0.006556
3887.000000	0.006545
3886.000000	0.006528
3885.000000	0.006513
3884.000000	0.006510
3883.000000	0.006521
3882.000000	0.006546
3881.000000	0.006577
3880.000000	0.006599
3879.000000	0.006599
3878.000000	0.006578
3877.000000	0.006549
3876.000000	0.006525
3875.000000	0.006519
3874.000000	0.006536
3873.000000	0.006564
3872.000000	0.006584
3871.000000	0.006588
3870.000000	0.006585
3869.000000	0.006588
3868.000000	0.006599
3867.000000	0.006611
3866.000000	0.006619
3865.000000	0.006626
3864.000000	0.006636
3863.000000	0.006647
3862.000000	0.006660
3861.000000	0.006676
3860.000000	0.006698
3859.000000	0.006719
3858.000000	0.006728
3857.000000	0.006717
3856.000000	0.006686
3855.000000	0.006653
3854.000000	0.006629
3853.000000	0.006604
3852.000000	0.006571
3851.000000	0.006543
3850.000000	0.006534
3849.000000	0.006546
3848.000000	0.006574
3847.000000	0.006612
3846.000000	0.006648
3845.000000	0.006669
3844.000000	0.006671
3843.000000	0.006660
3842.000000	0.006647
3841.000000	0.006634
3840.000000	0.006622
3839.000000	0.006614
3838.000000	0.006617
3837.000000	0.006630
3836.000000	0.006644
3835.000000	0.006655
3834.000000	0.006661
3833.000000	0.006666
3832.000000	0.006670
3831.000000	0.006672
3830.000000	0.006664
3829.000000	0.006643
3828.000000	0.006609
3827.000000	0.006572
3826.000000	0.006544
3825.000000	0.006536
3824.000000	0.006555
3823.000000	0.006601
3822.000000	0.006660
3821.000000	0.006703
3820.000000	0.006708
3819.000000	0.006679
3818.000000	0.006637
3817.000000	0.006603
3816.000000	0.006588
3815.000000	0.006580
3814.000000	0.006562
3813.000000	0.006532
3812.000000	0.006501
3811.000000	0.006487
3810.000000	0.006498
3809.000000	0.006523
3808.000000	0.006545
3807.000000	0.006557
3806.000000	0.006568
3805.000000	0.006587
3804.000000	0.006614
3803.000000	0.006639
3802.000000	0.006654
3801.000000	0.006649
3800.000000	0.006627
3799.000000	0.006603
3798.000000	0.006584
3797.000000	0.006568
3796.000000	0.006545
3795.000000	0.006511
3794.000000	0.006467
3793.000000	0.006425
3792.000000	0.006394
3791.000000	0.006381
3790.000000	0.006385
3789.000000	0.006400
3788.000000	0.006426
3787.000000	0.006461
3786.000000	0.006501
3785.000000	0.006537
3784.000000	0.006564
3783.000000	0.006578
3782.000000	0.006576
3781.000000	0.006559
3780.000000	0.006532
3779.000000	0.006513
3778.000000	0.006509
3777.000000	0.006516
3776.000000	0.006519
3775.000000	0.006514
3774.000000	0.006507
3773.000000	0.006511
3772.000000	0.006528
3771.000000	0.006552
3770.000000	0.006566
3769.000000	0.006563
3768.000000	0.006549
3767.000000	0.006536
3766.000000	0.006525
3765.000000	0.006513
3764.000000	0.006499
3763.000000	0.006487
3762.000000	0.006479
3761.000000	0.006475
3760.000000	0.006472
3759.000000	0.006470
3758.000000	0.006475
3757.000000	0.006484
3756.000000	0.006494
3755.000000	0.006499
3754.000000	0.006499
3753.000000	0.006502
3752.000000	0.006511
3751.000000	0.006521
3750.000000	0.006519
3749.000000	0.006509
3748.000000	0.006507
3747.000000	0.006509
3746.000000	0.006507
3745.000000	0.006498
3744.000000	0.006485
3743.000000	0.006476
3742.000000	0.006478
3741.000000	0.006488
3740.000000	0.006498
3739.000000	0.006509
3738.000000	0.006527
3737.000000	0.006551
3736.000000	0.006574
3735.000000	0.006587
3734.000000	0.006584
3733.000000	0.006567
3732.000000	0.006544
3731.000000	0.006522
3730.000000	0.006506
3729.000000	0.006489
3728.000000	0.006457
3727.000000	0.006408
3726.000000	0.006357
3725.000000	0.006330
3724.000000	0.006342
3723.000000	0.006380
3722.000000	0.006412
3721.000000	0.006411
3720.000000	0.006383
3719.000000	0.006354
3718.000000	0.006343
3717.000000	0.006351
3716.000000	0.006371
3715.000000	0.006400
3714.000000	0.006440
3713.000000	0.006495
3712.000000	0.006562
3711.000000	0.006625
3710.000000	0.006657
3709.000000	0.006638
3708.000000	0.006579
3707.000000	0.006515
3706.000000	0.006485
3705.000000	0.006501
3704.000000	0.006546
3703.000000	0.006585
3702.000000	0.006586
3701.000000	0.006546
3700.000000	0.006489
3699.000000	0.006440
3698.000000	0.006412
3697.000000	0.006403
3696.000000	0.006412
3695.000000	0.006442
3694.000000	0.006488
3693.000000	0.006536
3692.000000	0.006569
3691.000000	0.006583
3690.000000	0.006592
3689.000000	0.006601
3688.000000	0.006600
3687.000000	0.006587
3686.000000	0.006574
3685.000000	0.006574
3684.000000	0.006597
3683.000000	0.006642
3682.000000	0.006703
3681.000000	0.006772
3680.000000	0.006847
3679.000000	0.006926
3678.000000	0.006990
3677.000000	0.007013
3676.000000	0.006991
3675.000000	0.006952
3674.000000	0.006917
3673.000000	0.006887
3672.000000	0.006854
3671.000000	0.006826
3670.000000	0.006820
3669.000000	0.006838
3668.000000	0.006861
3667.000000	0.006881
3666.000000	0.006900
3665.000000	0.006919
3664.000000	0.006942
3663.000000	0.006967
3662.000000	0.006993
3661.000000	0.007017
3660.000000	0.007040
3659.000000	0.007064
3658.000000	0.007089
3657.000000	0.007116
3656.000000	0.007148
3655.000000	0.007188
3654.000000	0.007234
3653.000000	0.007280
3652.000000	0.007317
3651.000000	0.007357
3650.000000	0.007417
3649.000000	0.007504
3648.000000	0.007602
3647.000000	0.007694
3646.000000	0.007774
3645.000000	0.007834
3644.000000	0.007866
3643.000000	0.007870
3642.000000	0.007855
3641.000000	0.007844
3640.000000	0.007851
3639.000000	0.007878
3638.000000	0.007916
3637.000000	0.007955
3636.000000	0.007995
3635.000000	0.008045
3634.000000	0.008104
3633.000000	0.008160
3632.000000	0.008201
3631.000000	0.008234
3630.000000	0.008279
3629.000000	0.008350
3628.000000	0.008428
3627.000000	0.008488
3626.000000	0.008531
3625.000000	0.008562
3624.000000	0.008586
3623.000000	0.008600
3622.000000	0.008606
3621.000000	0.008611
3620.000000	0.008632
3619.000000	0.008688
3618.000000	0.008777
3617.000000	0.008881
3616.000000	0.008983
3615.000000	0.009077
3614.000000	0.009160
3613.000000	0.009234
3612.000000	0.009298
3611.000000	0.009360
3610.000000	0.009427
3609.000000	0.009498
3608.000000	0.009565
3607.000000	0.009621
3606.000000	0.009666
3605.000000	0.009706
3604.000000	0.009752
3603.000000	0.009812
3602.000000	0.009886
3601.000000	0.009962
3600.000000	0.010032
3599.000000	0.010091
3598.000000	0.010141
3597.000000	0.010188
3596.000000	0.010241
3595.000000	0.010314
3594.000000	0.010406
3593.000000	0.010499
3592.000000	0.010567
3591.000000	0.010602
3590.000000	0.010618
3589.000000	0.010650
3588.000000	0.010729
3587.000000	0.010859
3586.000000	0.011004
3585.000000	0.011125
3584.000000	0.011214
3583.000000	0.011284
3582.000000	0.011353
3581.000000	0.011428
3580.000000	0.011510
3579.000000	0.011598
3578.000000	0.011691
3577.000000	0.011783
3576.000000	0.011865
3575.000000	0.011937
3574.000000	0.012004
3573.000000	0.012068
3572.000000	0.012129
3571.000000	0.012186
3570.000000	0.012244
3569.000000	0.012316
3568.000000	0.012417
3567.000000	0.012550
3566.000000	0.012697
3565.000000	0.012832
3564.000000	0.012943
3563.000000	0.013035
3562.000000	0.013113
3561.000000	0.013183
3560.000000	0.013254
3559.000000	0.013332
3558.000000	0.013416
3557.000000	0.013501
3556.000000	0.013584
3555.000000	0.013671
3554.000000	0.013771
3553.000000	0.013882
3552.000000	0.013988
3551.000000	0.014078
3550.000000	0.014144
3549.000000	0.014193
3548.000000	0.014240
3547.000000	0.014301
3546.000000	0.014391
3545.000000	0.014511
3544.000000	0.014649
3543.000000	0.014783
3542.000000	0.014892
3541.000000	0.014969
3540.000000	0.015025
3539.000000	0.015086
3538.000000	0.015173
3537.000000	0.015287
3536.000000	0.015415
3535.000000	0.015541
3534.000000	0.015650
3533.000000	0.015736
3532.000000	0.015801
3531.000000	0.015858
3530.000000	0.015921
3529.000000	0.015993
3528.000000	0.016068
3527.000000	0.016145
3526.000000	0.016223
3525.000000	0.016305
3524.000000	0.016392
3523.000000	0.016483
3522.000000	0.016579
3521.000000	0.016680
3520.000000	0.016782
3519.000000	0.016883
3518.000000	0.016982
3517.000000	0.017076
3516.000000	0.017161
3515.000000	0.017237
3514.000000	0.017303
3513.000000	0.017367
3512.000000	0.017435
3511.000000	0.017516
3510.000000	0.017608
3509.000000	0.017696
3508.000000	0.017768
3507.000000	0.017826
3506.000000	0.017881
3505.000000	0.017947
3504.000000	0.018028
3503.000000	0.018125
3502.000000	0.018230
3501.000000	0.018333
3500.000000	0.018430
3499.000000	0.018520
3498.000000	0.018608
3497.000000	0.018692
3496.000000	0.018764
3495.000000	0.018817
3494.000000	0.018854
3493.000000	0.018887
3492.000000	0.018929
3491.000000	0.018989
3490.000000	0.019063
3489.000000	0.019141
3488.000000	0.019214
3487.000000	0.019278
3486.000000	0.019336
3485.000000	0.019397
3484.000000	0.019468
3483.000000	0.019551
3482.000000	0.019638
3481.000000	0.019718
3480.000000	0.019788
3479.000000	0.019852
3478.000000	0.019915
3477.000000	0.019978
3476.000000	0.020038
3475.000000	0.020099
3474.000000	0.020159
3473.000000	0.020216
3472.000000	0.020275
3471.000000	0.020346
3470.000000	0.020433
3469.000000	0.020525
3468.000000	0.020606
3467.000000	0.020668
3466.000000	0.020716
3465.000000	0.020757
3464.000000	0.020799
3463.000000	0.020851
3462.000000	0.020918
3461.000000	0.020993
3460.000000	0.021065
3459.000000	0.021123
3458.000000	0.021172
3457.000000	0.021221
3456.000000	0.021275
3455.000000	0.021337
3454.000000	0.021400
3453.000000	0.021463
3452.000000	0.021526
3451.000000	0.021589
3450.000000	0.021652
3449.000000	0.021718
3448.000000	0.021793
3447.000000	0.021881
3446.000000	0.021970
3445.000000	0.022046
3444.000000	0.022104
3443.000000	0.022158
3442.000000	0.022220
3441.000000	0.022295
3440.000000	0.022376
3439.000000	0.022458
3438.000000	0.022536
3437.000000	0.022608
3436.000000	0.022675
3435.000000	0.022738
3434.000000	0.022801
3433.000000	0.022865
3432.000000	0.022935
3431.000000	0.023015
3430.000000	0.023101
3429.000000	0.023179
3428.000000	0.023239
3427.000000	0.023287
3426.000000	0.023339
3425.000000	0.023398
3424.000000	0.023459
3423.000000	0.023515
3422.000000	0.023567
3421.000000	0.023619
3420.000000	0.023674
3419.000000	0.023730
3418.000000	0.023786
3417.000000	0.023843
3416.000000	0.023906
3415.000000	0.023981
3414.000000	0.024068
3413.000000	0.024163
3412.000000	0.024256
3411.000000	0.024340
3410.000000	0.024414
3409.000000	0.024483
3408.000000	0.024555
3407.000000	0.024634
3406.000000	0.024707
3405.000000	0.024759
3404.000000	0.024788
3403.000000	0.024811
3402.000000	0.024843
3401.000000	0.024890
3400.000000	0.024945
3399.000000	0.025004
3398.000000	0.025067
3397.000000	0.025136
3396.000000	0.025212
3395.000000	0.025292
3394.000000	0.025374
3393.000000	0.025449
3392.000000	0.025515
3391.000000	0.025575
3390.000000	0.025635
3389.000000	0.025699
3388.000000	0.025765
3387.000000	0.025839
3386.000000	0.025925
3385.000000	0.026018
3384.000000	0.026109
3383.000000	0.026190
3382.000000	0.026262
3381.000000	0.026330
3380.000000	0.026402
3379.000000	0.026488
3378.000000	0.026589
3377.000000	0.026699
3376.000000	0.026800
3375.000000	0.026882
3374.000000	0.026940
3373.000000	0.026987
3372.000000	0.027044
3371.000000	0.027133
3370.000000	0.027257
3369.000000	0.027398
3368.000000	0.027530
3367.000000	0.027637
3366.000000	0.027720
3365.000000	0.027787
3364.000000	0.027854
3363.000000	0.027929
3362.000000	0.028013
3361.000000	0.028103
3360.000000	0.028202
3359.000000	0.028319
3358.000000	0.028454
3357.000000	0.028595
3356.000000	0.028727
3355.000000	0.028844
3354.000000	0.028950
3353.000000	0.029055
3352.000000	0.029166
3351.000000	0.029287
3350.000000	0.029412
3349.000000	0.029526
3348.000000	0.029624
3347.000000	0.029714
3346.000000	0.029808
3345.000000	0.029911
3344.000000	0.030024
3343.000000	0.030151
3342.000000	0.030293
3341.000000	0.030438
3340.000000	0.030568
3339.000000	0.030676
3338.000000	0.030768
3337.000000	0.030854
3336.000000	0.030941
3335.000000	0.031032
3334.000000	0.031124
3333.000000	0.031219
3332.000000	0.031318
3331.000000	0.031422
3330.000000	0.031518
3329.000000	0.031595
3328.000000	0.031654
3327.000000	0.031715
3326.000000	0.031795
3325.000000	0.031894
3324.000000	0.031995
3323.000000	0.032085
3322.000000	0.032160
3321.000000	0.032223
3320.000000	0.032280
3319.000000	0.032338
3318.000000	0.032402
3317.000000	0.032474
3316.000000	0.032550
3315.000000	0.032631
3314.000000	0.032713
3313.000000	0.032786
3312.000000	0.032841
3311.000000	0.032878
3310.000000	0.032905
3309.000000	0.032927
3308.000000	0.032945
3307.000000	0.032963
3306.000000	0.032991
3305.000000	0.033043
3304.000000	0.033125
3303.000000	0.033227
3302.000000	0.033329
3301.000000	0.033407
3300.000000	0.033453
3299.000000	0.033475
3298.000000	0.033492
3297.000000	0.033516
3296.000000	0.033544
3295.000000	0.033569
3294.000000	0.033579
3293.000000	0.033569
3292.000000	0.033545
3291.000000	0.033526
3290.000000	0.033530
3289.000000	0.033560
3288.000000	0.033603
3287.000000	0.033641
3286.000000	0.033659
3285.000000	0.033655
3284.000000	0.033633
3283.000000	0.033599
3282.000000	0.033556
3281.000000	0.033511
3280.000000	0.033473
3279.000000	0.033450
3278.000000	0.033442
3277.000000	0.033434
3276.000000	0.033413
3275.000000	0.033369
3274.000000	0.033299
3273.000000	0.033207
3272.000000	0.033108
3271.000000	0.033025
3270.000000	0.032973
3269.000000	0.032949
3268.000000	0.032935
3267.000000	0.032912
3266.000000	0.032870
3265.000000	0.032812
3264.000000	0.032757
3263.000000	0.032717
3262.000000	0.032687
3261.000000	0.032644
3260.000000	0.032567
3259.000000	0.032456
3258.000000	0.032332
3257.000000	0.032211
3256.000000	0.032107
3255.000000	0.032020
3254.000000	0.031938
3253.000000	0.031848
3252.000000	0.031748
3251.000000	0.031649
3250.000000	0.031563
3249.000000	0.031491
3248.000000	0.031428
3247.000000	0.031367
3246.000000	0.031310
3245.000000	0.031261
3244.000000	0.031219
3243.000000	0.031179
3242.000000	0.031129
3241.000000	0.031059
3240.000000	0.030975
3239.000000	0.030897
3238.000000	0.030835
3237.000000	0.030783
3236.000000	0.030727
3235.000000	0.030662
3234.000000	0.030594
3233.000000	0.030528
3232.000000	0.030466
3231.000000	0.030409
3230.000000	0.030358
3229.000000	0.030301
3228.000000	0.030228
3227.000000	0.030137
3226.000000	0.030046
3225.000000	0.029972
3224.000000	0.029925
3223.000000	0.029897
3222.000000	0.029870
3221.000000	0.029826
3220.000000	0.029760
3219.000000	0.029678
3218.000000	0.029594
3217.000000	0.029512
3216.000000	0.029439
3215.000000	0.029380
3214.000000	0.029337
3213.000000	0.029303
3212.000000	0.029258
3211.000000	0.029189
3210.000000	0.029090
3209.000000	0.028976
3208.000000	0.028868
3207.000000	0.028784
3206.000000	0.028725
3205.000000	0.028678
3204.000000	0.028628
3203.000000	0.028571
3202.000000	0.028512
3201.000000	0.028450
3200.000000	0.028381
3199.000000	0.028303
3198.000000	0.028217
3197.000000	0.028131
3196.000000	0.028049
3195.000000	0.027973
3194.000000	0.027899
3193.000000	0.027819
3192.000000	0.027727
3191.000000	0.027623
3190.000000	0.027512
3189.000000	0.027396
3188.000000	0.027278
3187.000000	0.027164
3186.000000	0.027056
3185.000000	0.026956
3184.000000	0.026867
3183.000000	0.026794
3182.000000	0.026734
3181.000000	0.026674
3180.000000	0.026602
3179.000000	0.026519
3178.000000	0.026434
3177.000000	0.026351
3176.000000	0.026262
3175.000000	0.026165
3174.000000	0.026061
3173.000000	0.025952
3172.000000	0.025839
3171.000000	0.025726
3170.000000	0.025617
3169.000000	0.025515
3168.000000	0.025417
3167.000000	0.025319
3166.000000	0.025219
3165.000000	0.025124
3164.000000	0.025043
3163.000000	0.024982
3162.000000	0.024930
3161.000000	0.024868
3160.000000	0.024781
3159.000000	0.024669
3158.000000	0.024548
3157.000000	0.024432
3156.000000	0.024328
3155.000000	0.024235
3154.000000	0.024150
3153.000000	0.024069
3152.000000	0.023997
3151.000000	0.023937
3150.000000	0.023889
3149.000000	0.023841
3148.000000	0.023784
3147.000000	0.023719
3146.000000	0.023653
3145.000000	0.023585
3144.000000	0.023512
3143.000000	0.023435
3142.000000	0.023358
3141.000000	0.023288
3140.000000	0.023224
3139.000000	0.023163
3138.000000	0.023095
3137.000000	0.023017
3136.000000	0.022936
3135.000000	0.022867
3134.000000	0.022817
3133.000000	0.022775
3132.000000	0.022725
3131.000000	0.022662
3130.000000	0.022599
3129.000000	0.022548
3128.000000	0.022513
3127.000000	0.022492
3126.000000	0.022483
3125.000000	0.022473
3124.000000	0.022443
3123.000000	0.022384
3122.000000	0.022306
3121.000000	0.022235
3120.000000	0.022192
3119.000000	0.022181
3118.000000	0.022194
3117.000000	0.022216
3116.000000	0.022237
3115.000000	0.022244
3114.000000	0.022235
3113.000000	0.022213
3112.000000	0.022188
3111.000000	0.022170
3110.000000	0.022167
3109.000000	0.022176
3108.000000	0.022191
3107.000000	0.022211
3106.000000	0.022233
3105.000000	0.022253
3104.000000	0.022263
3103.000000	0.022260
3102.000000	0.022253
3101.000000	0.022254
3100.000000	0.022268
3099.000000	0.022296
3098.000000	0.022333
3097.000000	0.022372
3096.000000	0.022409
3095.000000	0.022439
3094.000000	0.022460
3093.000000	0.022473
3092.000000	0.022482
3091.000000	0.022494
3090.000000	0.022511
3089.000000	0.022531
3088.000000	0.022551
3087.000000	0.022566
3086.000000	0.022577
3085.000000	0.022588
3084.000000	0.022600
3083.000000	0.022612
3082.000000	0.022620
3081.000000	0.022620
3080.000000	0.022612
3079.000000	0.022607
3078.000000	0.022614
3077.000000	0.022633
3076.000000	0.022656
3075.000000	0.022678
3074.000000	0.022695
3073.000000	0.022712
3072.000000	0.022724
3071.000000	0.022722
3070.000000	0.022701
3069.000000	0.022663
3068.000000	0.022617
3067.000000	0.022572
3066.000000	0.022528
3065.000000	0.022480
3064.000000	0.022427
3063.000000	0.022373
3062.000000	0.022316
3061.000000	0.022253
3060.000000	0.022178
3059.000000	0.022093
3058.000000	0.022007
3057.000000	0.021929
3056.000000	0.021866
3055.000000	0.021813
3054.000000	0.021762
3053.000000	0.021705
3052.000000	0.021640
3051.000000	0.021570
3050.000000	0.021498
3049.000000	0.021423
3048.000000	0.021348
3047.000000	0.021273
3046.000000	0.021197
3045.000000	0.021116
3044.000000	0.021027
3043.000000	0.020934
3042.000000	0.020842
3041.000000	0.020756
3040.000000	0.020680
3039.000000	0.020608
3038.000000	0.020531
3037.000000	0.020442
3036.000000	0.020345
3035.000000	0.020254
3034.000000	0.020183
3033.000000	0.020134
3032.000000	0.020096
3031.000000	0.020057
3030.000000	0.020004
3029.000000	0.019934
3028.000000	0.019854
3027.000000	0.019779
3026.000000	0.019723
3025.000000	0.019691
3024.000000	0.019667
3023.000000	0.019628
3022.000000	0.019560
3021.000000	0.019476
3020.000000	0.019405
3019.000000	0.019365
3018.000000	0.019355
3017.000000	0.019361
3016.000000	0.019370
3015.000000	0.019381
3014.000000	0.019395
3013.000000	0.019412
3012.000000	0.019431
3011.000000	0.019452
3010.000000	0.019473
3009.000000	0.019482
3008.000000	0.019474
3007.000000	0.019456
3006.000000	0.019441
3005.000000	0.019439
3004.000000	0.019450
3003.000000	0.019462
3002.000000	0.019468
3001.000000	0.019465
3000.000000	0.019455
2999.000000	0.019440
2998.000000	0.019419
2997.000000	0.019399
2996.000000	0.019391
2995.000000	0.019407
2994.000000	0.019447
2993.000000	0.019506
2992.000000	0.019574
2991.000000	0.019650
2990.000000	0.019736
2989.000000	0.019834
2988.000000	0.019939
2987.000000	0.020048
2986.000000	0.020154
2985.000000	0.020260
2984.000000	0.020369
2983.000000	0.020487
2982.000000	0.020617
2981.000000	0.020758
2980.000000	0.020905
2979.000000	0.021059
2978.000000	0.021218
2977.000000	0.021386
2976.000000	0.021567
2975.000000	0.021767
2974.000000	0.021984
2973.000000	0.022212
2972.000000	0.022447
2971.000000	0.022689
2970.000000	0.022944
2969.000000	0.023219
2968.000000	0.023521
2967.000000	0.023850
2966.000000	0.024203
2965.000000	0.024568
2964.000000	0.024935
2963.000000	0.025292
2962.000000	0.025627
2961.000000	0.025933
2960.000000	0.026204
2959.000000	0.026440
2958.000000	0.026640
2957.000000	0.026808
2956.000000	0.026941
2955.000000	0.027042
2954.000000	0.027115
2953.000000	0.027167
2952.000000	0.027211
2951.000000	0.027258
2950.000000	0.027313
2949.000000	0.027385
2948.000000	0.027488
2947.000000	0.027644
2946.000000	0.027875
2945.000000	0.028184
2944.000000	0.028561
2943.000000	0.028992
2942.000000	0.029474
2941.000000	0.030010
2940.000000	0.030602
2939.000000	0.031252
2938.000000	0.031957
2937.000000	0.032707
2936.000000	0.033488
2935.000000	0.034282
2934.000000	0.035081
2933.000000	0.035886
2932.000000	0.036690
2931.000000	0.037479
2930.000000	0.038230
2929.000000	0.038929
2928.000000	0.039571
2927.000000	0.040151
2926.000000	0.040653
2925.000000	0.041044
2924.000000	0.041284
2923.000000	0.041343
2922.000000	0.041213
2921.000000	0.040905
2920.000000	0.040439
2919.000000	0.039836
2918.000000	0.039113
2917.000000	0.038290
2916.000000	0.037393
2915.000000	0.036450
2914.000000	0.035489
2913.000000	0.034543
2912.000000	0.033640
2911.000000	0.032799
2910.000000	0.032024
2909.000000	0.031308
2908.000000	0.030651
2907.000000	0.030062
2906.000000	0.029551
2905.000000	0.029113
2904.000000	0.028722
2903.000000	0.028349
2902.000000	0.027978
2901.000000	0.027616
2900.000000	0.027280
2899.000000	0.026977
2898.000000	0.026700
2897.000000	0.026432
2896.000000	0.026159
2895.000000	0.025877
2894.000000	0.025590
2893.000000	0.025311
2892.000000	0.025054
2891.000000	0.024828
2890.000000	0.024632
2889.000000	0.024453
2888.000000	0.024278
2887.000000	0.024098
2886.000000	0.023924
2885.000000	0.023773
2884.000000	0.023659
2883.000000	0.023579
2882.000000	0.023527
2881.000000	0.023496
2880.000000	0.023489
2879.000000	0.023507
2878.000000	0.023545
2877.000000	0.023601
2876.000000	0.023675
2875.000000	0.023766
2874.000000	0.023862
2873.000000	0.023941
2872.000000	0.023989
2871.000000	0.024006
2870.000000	0.024008
2869.000000	0.024015
2868.000000	0.024050
2867.000000	0.024128
2866.000000	0.024266
2865.000000	0.024477
2864.000000	0.024768
2863.000000	0.025144
2862.000000	0.025613
2861.000000	0.026181
2860.000000	0.026841
2859.000000	0.027557
2858.000000	0.028281
2857.000000	0.028973
2856.000000	0.029602
2855.000000	0.030128
2854.000000	0.030486
2853.000000	0.030613
2852.000000	0.030471
2851.000000	0.030063
2850.000000	0.029417
2849.000000	0.028574
2848.000000	0.027594
2847.000000	0.026546
2846.000000	0.025499
2845.000000	0.024508
2844.000000	0.023607
2843.000000	0.022812
2842.000000	0.022122
2841.000000	0.021528
2840.000000	0.021015
2839.000000	0.020570
2838.000000	0.020188
2837.000000	0.019867
2836.000000	0.019599
2835.000000	0.019370
2834.000000	0.019165
2833.000000	0.018972
2832.000000	0.018787
2831.000000	0.018610
2830.000000	0.018444
2829.000000	0.018293
2828.000000	0.018160
2827.000000	0.018038
2826.000000	0.017920
2825.000000	0.017804
2824.000000	0.017694
2823.000000	0.017597
2822.000000	0.017510
2821.000000	0.017426
2820.000000	0.017339
2819.000000	0.017247
2818.000000	0.017156
2817.000000	0.017071
2816.000000	0.016997
2815.000000	0.016929
2814.000000	0.016861
2813.000000	0.016791
2812.000000	0.016722
2811.000000	0.016660
2810.000000	0.016606
2809.000000	0.016555
2808.000000	0.016500
2807.000000	0.016434
2806.000000	0.016360
2805.000000	0.016286
2804.000000	0.016221
2803.000000	0.016171
2802.000000	0.016133
2801.000000	0.016101
2800.000000	0.016067
2799.000000	0.016026
2798.000000	0.015982
2797.000000	0.015941
2796.000000	0.015908
2795.000000	0.015875
2794.000000	0.015833
2793.000000	0.015785
2792.000000	0.015738
2791.000000	0.015698
2790.000000	0.015660
2789.000000	0.015619
2788.000000	0.015579
2787.000000	0.015542
2786.000000	0.015507
2785.000000	0.015469
2784.000000	0.015425
2783.000000	0.015376
2782.000000	0.015323
2781.000000	0.015267
2780.000000	0.015215
2779.000000	0.015171
2778.000000	0.015140
2777.000000	0.015121
2776.000000	0.015108
2775.000000	0.015094
2774.000000	0.015068
2773.000000	0.015030
2772.000000	0.014989
2771.000000	0.014958
2770.000000	0.014937
2769.000000	0.014915
2768.000000	0.014883
2767.000000	0.014841
2766.000000	0.014791
2765.000000	0.014736
2764.000000	0.014678
2763.000000	0.014621
2762.000000	0.014569
2761.000000	0.014527
2760.000000	0.014502
2759.000000	0.014494
2758.000000	0.014494
2757.000000	0.014490
2756.000000	0.014472
2755.000000	0.014448
2754.000000	0.014430
2753.000000	0.014420
2752.000000	0.014409
2751.000000	0.014391
2750.000000	0.014367
2749.000000	0.014339
2748.000000	0.014304
2747.000000	0.014260
2746.000000	0.014213
2745.000000	0.014173
2744.000000	0.014149
2743.000000	0.014136
2742.000000	0.014127
2741.000000	0.014117
2740.000000	0.014102
2739.000000	0.014083
2738.000000	0.014060
2737.000000	0.014038
2736.000000	0.014017
2735.000000	0.013992
2734.000000	0.013965
2733.000000	0.013937
2732.000000	0.013915
2731.000000	0.013897
2730.000000	0.013878
2729.000000	0.013855
2728.000000	0.013826
2727.000000	0.013790
2726.000000	0.013749
2725.000000	0.013707
2724.000000	0.013669
2723.000000	0.013634
2722.000000	0.013599
2721.000000	0.013569
2720.000000	0.013552
2719.000000	0.013548
2718.000000	0.013550
2717.000000	0.013546
2716.000000	0.013528
2715.000000	0.013498
2714.000000	0.013469
2713.000000	0.013451
2712.000000	0.013444
2711.000000	0.013436
2710.000000	0.013418
2709.000000	0.013392
2708.000000	0.013367
2707.000000	0.013348
2706.000000	0.013334
2705.000000	0.013320
2704.000000	0.013300
2703.000000	0.013276
2702.000000	0.013248
2701.000000	0.013222
2700.000000	0.013199
2699.000000	0.013177
2698.000000	0.013153
2697.000000	0.013129
2696.000000	0.013110
2695.000000	0.013098
2694.000000	0.013093
2693.000000	0.013092
2692.000000	0.013092
2691.000000	0.013093
2690.000000	0.013096
2689.000000	0.013101
2688.000000	0.013106
2687.000000	0.013108
2686.000000	0.013099
2685.000000	0.013077
2684.000000	0.013047
2683.000000	0.013023
2682.000000	0.013014
2681.000000	0.013022
2680.000000	0.013033
2679.000000	0.013029
2678.000000	0.012999
2677.000000	0.012953
2676.000000	0.012915
2675.000000	0.012903
2674.000000	0.012912
2673.000000	0.012926
2672.000000	0.012927
2671.000000	0.012913
2670.000000	0.012891
2669.000000	0.012869
2668.000000	0.012853
2667.000000	0.012845
2666.000000	0.012843
2665.000000	0.012843
2664.000000	0.012835
2663.000000	0.012815
2662.000000	0.012787
2661.000000	0.012763
2660.000000	0.012747
2659.000000	0.012733
2658.000000	0.012713
2657.000000	0.012688
2656.000000	0.012669
2655.000000	0.012657
2654.000000	0.012640
2653.000000	0.012606
2652.000000	0.012562
2651.000000	0.012524
2650.000000	0.012503
2649.000000	0.012493
2648.000000	0.012481
2647.000000	0.012461
2646.000000	0.012437
2645.000000	0.012416
2644.000000	0.012398
2643.000000	0.012375
2642.000000	0.012339
2641.000000	0.012287
2640.000000	0.012226
2639.000000	0.012173
2638.000000	0.012140
2637.000000	0.012132
2636.000000	0.012134
2635.000000	0.012131
2634.000000	0.012117
2633.000000	0.012093
2632.000000	0.012062
2631.000000	0.012025
2630.000000	0.011987
2629.000000	0.011955
2628.000000	0.011932
2627.000000	0.011909
2626.000000	0.011875
2625.000000	0.011829
2624.000000	0.011781
2623.000000	0.011739
2622.000000	0.011708
2621.000000	0.011687
2620.000000	0.011680
2619.000000	0.011683
2618.000000	0.011684
2617.000000	0.011663
2616.000000	0.011612
2615.000000	0.011545
2614.000000	0.011489
2613.000000	0.011461
2612.000000	0.011457
2611.000000	0.011454
2610.000000	0.011436
2609.000000	0.011400
2608.000000	0.011354
2607.000000	0.011309
2606.000000	0.011274
2605.000000	0.011251
2604.000000	0.011233
2603.000000	0.011216
2602.000000	0.011209
2601.000000	0.011218
2600.000000	0.011241
2599.000000	0.011259
2598.000000	0.011253
2597.000000	0.011221
2596.000000	0.011175
2595.000000	0.011137
2594.000000	0.011124
2593.000000	0.011136
2592.000000	0.011151
2591.000000	0.011148
2590.000000	0.011123
2589.000000	0.011088
2588.000000	0.011051
2587.000000	0.011014
2586.000000	0.010986
2585.000000	0.010978
2584.000000	0.010987
2583.000000	0.010986
2582.000000	0.010954
2581.000000	0.010891
2580.000000	0.010816
2579.000000	0.010743
2578.000000	0.010688
2577.000000	0.010662
2576.000000	0.010668
2575.000000	0.010691
2574.000000	0.010702
2573.000000	0.010680
2572.000000	0.010630
2571.000000	0.010576
2570.000000	0.010554
2569.000000	0.010580
2568.000000	0.010637
2567.000000	0.010686
2566.000000	0.010701
2565.000000	0.010683
2564.000000	0.010656
2563.000000	0.010635
2562.000000	0.010627
2561.000000	0.010631
2560.000000	0.010642
2559.000000	0.010655
2558.000000	0.010663
2557.000000	0.010666
2556.000000	0.010654
2555.000000	0.010618
2554.000000	0.010557
2553.000000	0.010484
2552.000000	0.010426
2551.000000	0.010404
2550.000000	0.010421
2549.000000	0.010460
2548.000000	0.010484
2547.000000	0.010471
2546.000000	0.010427
2545.000000	0.010384
2544.000000	0.010368
2543.000000	0.010380
2542.000000	0.010407
2541.000000	0.010434
2540.000000	0.010451
2539.000000	0.010451
2538.000000	0.010440
2537.000000	0.010426
2536.000000	0.010411
2535.000000	0.010386
2534.000000	0.010351
2533.000000	0.010317
2532.000000	0.010297
2531.000000	0.010292
2530.000000	0.010298
2529.000000	0.010312
2528.000000	0.010333
2527.000000	0.010362
2526.000000	0.010396
2525.000000	0.010424
2524.000000	0.010426
2523.000000	0.010395
2522.000000	0.010353
2521.000000	0.010328
2520.000000	0.010319
2519.000000	0.010298
2518.000000	0.010250
2517.000000	0.010193
2516.000000	0.010149
2515.000000	0.010127
2514.000000	0.010120
2513.000000	0.010126
2512.000000	0.010138
2511.000000	0.010143
2510.000000	0.010133
2509.000000	0.010116
2508.000000	0.010099
2507.000000	0.010086
2506.000000	0.010084
2505.000000	0.010096
2504.000000	0.010111
2503.000000	0.010110
2502.000000	0.010095
2501.000000	0.010089
2500.000000	0.010106
2499.000000	0.010129
2498.000000	0.010138
2497.000000	0.010134
2496.000000	0.010131
2495.000000	0.010131
2494.000000	0.010120
2493.000000	0.010096
2492.000000	0.010062
2491.000000	0.010015
2490.000000	0.009957
2489.000000	0.009901
2488.000000	0.009869
2487.000000	0.009872
2486.000000	0.009901
2485.000000	0.009938
2484.000000	0.009955
2483.000000	0.009937
2482.000000	0.009892
2481.000000	0.009853
2480.000000	0.009844
2479.000000	0.009860
2478.000000	0.009883
2477.000000	0.009903
2476.000000	0.009916
2475.000000	0.009909
2474.000000	0.009874
2473.000000	0.009817
2472.000000	0.009760
2471.000000	0.009721
2470.000000	0.009706
2469.000000	0.009708
2468.000000	0.009714
2467.000000	0.009711
2466.000000	0.009704
2465.000000	0.009711
2464.000000	0.009739
2463.000000	0.009766
2462.000000	0.009771
2461.000000	0.009754
2460.000000	0.009735
2459.000000	0.009723
2458.000000	0.009720
2457.000000	0.009726
2456.000000	0.009742
2455.000000	0.009760
2454.000000	0.009767
2453.000000	0.009762
2452.000000	0.009760
2451.000000	0.009769
2450.000000	0.009784
2449.000000	0.009795
2448.000000	0.009793
2447.000000	0.009782
2446.000000	0.009768
2445.000000	0.009758
2444.000000	0.009751
2443.000000	0.009749
2442.000000	0.009758
2441.000000	0.009779
2440.000000	0.009793
2439.000000	0.009775
2438.000000	0.009722
2437.000000	0.009657
2436.000000	0.009600
2435.000000	0.009556
2434.000000	0.009528
2433.000000	0.009527
2432.000000	0.009545
2431.000000	0.009552
2430.000000	0.009528
2429.000000	0.009491
2428.000000	0.009478
2427.000000	0.009494
2426.000000	0.009511
2425.000000	0.009506
2424.000000	0.009485
2423.000000	0.009481
2422.000000	0.009511
2421.000000	0.009559
2420.000000	0.009590
2419.000000	0.009584
2418.000000	0.009555
2417.000000	0.009528
2416.000000	0.009517
2415.000000	0.009512
2414.000000	0.009511
2413.000000	0.009519
2412.000000	0.009535
2411.000000	0.009542
2410.000000	0.009524
2409.000000	0.009484
2408.000000	0.009440
2407.000000	0.009404
2406.000000	0.009382
2405.000000	0.009375
2404.000000	0.009380
2403.000000	0.009387
2402.000000	0.009400
2401.000000	0.009426
2400.000000	0.009459
2399.000000	0.009479
2398.000000	0.009475
2397.000000	0.009461
2396.000000	0.009459
2395.000000	0.009470
2394.000000	0.009481
2393.000000	0.009489
2392.000000	0.009496
2391.000000	0.009502
2390.000000	0.009500
2389.000000	0.009494
2388.000000	0.009489
2387.000000	0.009489
2386.000000	0.009491
2385.000000	0.009493
2384.000000	0.009496
2383.000000	0.009499
2382.000000	0.009498
2381.000000	0.009491
2380.000000	0.009481
2379.000000	0.009477
2378.000000	0.009483
2377.000000	0.009496
2376.000000	0.009504
2375.000000	0.009503
2374.000000	0.009498
2373.000000	0.009499
2372.000000	0.009495
2371.000000	0.009462
2370.000000	0.009395
2369.000000	0.009319
2368.000000	0.009282
2367.000000	0.009322
2366.000000	0.009435
2365.000000	0.009564
2364.000000	0.009630
2363.000000	0.009610
2362.000000	0.009555
2361.000000	0.009525
2360.000000	0.009548
2359.000000	0.009601
2358.000000	0.009641
2357.000000	0.009643
2356.000000	0.009610
2355.000000	0.009588
2354.000000	0.009585
2353.000000	0.009557
2352.000000	0.009476
2351.000000	0.009388
2350.000000	0.009377
2349.000000	0.009477
2348.000000	0.009650
2347.000000	0.009796
2346.000000	0.009825
2345.000000	0.009754
2344.000000	0.009662
2343.000000	0.009614
2342.000000	0.009599
2341.000000	0.009599
2340.000000	0.009616
2339.000000	0.009646
2338.000000	0.009680
2337.000000	0.009708
2336.000000	0.009738
2335.000000	0.009760
2334.000000	0.009763
2333.000000	0.009736
2332.000000	0.009700
2331.000000	0.009661
2330.000000	0.009638
2329.000000	0.009631
2328.000000	0.009673
2327.000000	0.009777
2326.000000	0.009940
2325.000000	0.010107
2324.000000	0.010199
2323.000000	0.010167
2322.000000	0.010050
2321.000000	0.009934
2320.000000	0.009879
2319.000000	0.009861
2318.000000	0.009845
2317.000000	0.009812
2316.000000	0.009779
2315.000000	0.009733
2314.000000	0.009684
2313.000000	0.009648
2312.000000	0.009641
2311.000000	0.009630
2310.000000	0.009587
2309.000000	0.009517
2308.000000	0.009462
2307.000000	0.009438
2306.000000	0.009443
2305.000000	0.009467
2304.000000	0.009508
2303.000000	0.009537
2302.000000	0.009528
2301.000000	0.009481
2300.000000	0.009437
2299.000000	0.009425
2298.000000	0.009447
2297.000000	0.009472
2296.000000	0.009477
2295.000000	0.009452
2294.000000	0.009408
2293.000000	0.009369
2292.000000	0.009353
2291.000000	0.009358
2290.000000	0.009374
2289.000000	0.009402
2288.000000	0.009442
2287.000000	0.009478
2286.000000	0.009493
2285.000000	0.009481
2284.000000	0.009456
2283.000000	0.009426
2282.000000	0.009389
2281.000000	0.009335
2280.000000	0.009261
2279.000000	0.009178
2278.000000	0.009115
2277.000000	0.009101
2276.000000	0.009127
2275.000000	0.009157
2274.000000	0.009169
2273.000000	0.009181
2272.000000	0.009209
2271.000000	0.009233
2270.000000	0.009217
2269.000000	0.009156
2268.000000	0.009082
2267.000000	0.009025
2266.000000	0.008997
2265.000000	0.009000
2264.000000	0.009028
2263.000000	0.009071
2262.000000	0.009113
2261.000000	0.009138
2260.000000	0.009132
2259.000000	0.009095
2258.000000	0.009042
2257.000000	0.008980
2256.000000	0.008894
2255.000000	0.008777
2254.000000	0.008668
2253.000000	0.008624
2252.000000	0.008647
2251.000000	0.008687
2250.000000	0.008712
2249.000000	0.008731
2248.000000	0.008746
2247.000000	0.008737
2246.000000	0.008707
2245.000000	0.008696
2244.000000	0.008718
2243.000000	0.008736
2242.000000	0.008714
2241.000000	0.008659
2240.000000	0.008591
2239.000000	0.008510
2238.000000	0.008425
2237.000000	0.008376
2236.000000	0.008384
2235.000000	0.008420
2234.000000	0.008458
2233.000000	0.008512
2232.000000	0.008598
2231.000000	0.008693
2230.000000	0.008756
2229.000000	0.008755
2228.000000	0.008670
2227.000000	0.008517
2226.000000	0.008383
2225.000000	0.008377
2224.000000	0.008512
2223.000000	0.008673
2222.000000	0.008746
2221.000000	0.008723
2220.000000	0.008668
2219.000000	0.008621
2218.000000	0.008604
2217.000000	0.008641
2216.000000	0.008725
2215.000000	0.008786
2214.000000	0.008751
2213.000000	0.008628
2212.000000	0.008483
2211.000000	0.008375
2210.000000	0.008330
2209.000000	0.008348
2208.000000	0.008403
2207.000000	0.008453
2206.000000	0.008484
2205.000000	0.008520
2204.000000	0.008578
2203.000000	0.008645
2202.000000	0.008715
2201.000000	0.008791
2200.000000	0.008839
2199.000000	0.008809
2198.000000	0.008728
2197.000000	0.008695
2196.000000	0.008769
2195.000000	0.008895
2194.000000	0.008980
2193.000000	0.008964
2192.000000	0.008816
2191.000000	0.008551
2190.000000	0.008271
2189.000000	0.008114
2188.000000	0.008110
2187.000000	0.008173
2186.000000	0.008246
2185.000000	0.008369
2184.000000	0.008540
2183.000000	0.008644
2182.000000	0.008597
2181.000000	0.008463
2180.000000	0.008347
2179.000000	0.008273
2178.000000	0.008229
2177.000000	0.008234
2176.000000	0.008254
2175.000000	0.008175
2174.000000	0.007955
2173.000000	0.007735
2172.000000	0.007682
2171.000000	0.007794
2170.000000	0.007952
2169.000000	0.008087
2168.000000	0.008195
2167.000000	0.008254
2166.000000	0.008226
2165.000000	0.008139
2164.000000	0.008063
2163.000000	0.008027
2162.000000	0.007995
2161.000000	0.007901
2160.000000	0.007672
2159.000000	0.007296
2158.000000	0.006919
2157.000000	0.006740
2156.000000	0.006789
2155.000000	0.006939
2154.000000	0.007120
2153.000000	0.007364
2152.000000	0.007659
2151.000000	0.007902
2150.000000	0.008018
2149.000000	0.008029
2148.000000	0.007973
2147.000000	0.007860
2146.000000	0.007744
2145.000000	0.007716
2144.000000	0.007783
2143.000000	0.007843
2142.000000	0.007829
2141.000000	0.007786
2140.000000	0.007768
2139.000000	0.007747
2138.000000	0.007679
2137.000000	0.007585
2136.000000	0.007501
2135.000000	0.007416
2134.000000	0.007338
2133.000000	0.007328
2132.000000	0.007431
2131.000000	0.007608
2130.000000	0.007789
2129.000000	0.007938
2128.000000	0.008048
2127.000000	0.008101
2126.000000	0.008101
2125.000000	0.008086
2124.000000	0.008087
2123.000000	0.008093
2122.000000	0.008095
2121.000000	0.008128
2120.000000	0.008228
2119.000000	0.008382
2118.000000	0.008541
2117.000000	0.008661
2116.000000	0.008721
2115.000000	0.008713
2114.000000	0.008665
2113.000000	0.008624
2112.000000	0.008614
2111.000000	0.008617
2110.000000	0.008623
2109.000000	0.008651
2108.000000	0.008699
2107.000000	0.008724
2106.000000	0.008688
2105.000000	0.008619
2104.000000	0.008573
2103.000000	0.008577
2102.000000	0.008615
2101.000000	0.008661
2100.000000	0.008679
2099.000000	0.008631
2098.000000	0.008521
2097.000000	0.008402
2096.000000	0.008318
2095.000000	0.008261
2094.000000	0.008207
2093.000000	0.008168
2092.000000	0.008163
2091.000000	0.008187
2090.000000	0.008214
2089.000000	0.008238
2088.000000	0.008264
2087.000000	0.008292
2086.000000	0.008322
2085.000000	0.008356
2084.000000	0.008384
2083.000000	0.008394
2082.000000	0.008393
2081.000000	0.008413
2080.000000	0.008457
2079.000000	0.008505
2078.000000	0.008535
2077.000000	0.008528
2076.000000	0.008452
2075.000000	0.008287
2074.000000	0.008093
2073.000000	0.007979
2072.000000	0.007990
2071.000000	0.008065
2070.000000	0.008123
2069.000000	0.008135
2068.000000	0.008105
2067.000000	0.008042
2066.000000	0.007989
2065.000000	0.007999
2064.000000	0.008077
2063.000000	0.008162
2062.000000	0.008197
2061.000000	0.008158
2060.000000	0.008034
2059.000000	0.007850
2058.000000	0.007703
2057.000000	0.007683
2056.000000	0.007749
2055.000000	0.007783
2054.000000	0.007760
2053.000000	0.007767
2052.000000	0.007830
2051.000000	0.007841
2050.000000	0.007718
2049.000000	0.007532
2048.000000	0.007403
2047.000000	0.007363
2046.000000	0.007400
2045.000000	0.007530
2044.000000	0.007721
2043.000000	0.007846
2042.000000	0.007820
2041.000000	0.007707
2040.000000	0.007594
2039.000000	0.007478
2038.000000	0.007324
2037.000000	0.007152
2036.000000	0.006998
2035.000000	0.006877
2034.000000	0.006850
2033.000000	0.006969
2032.000000	0.007111
2031.000000	0.007044
2030.000000	0.006741
2029.000000	0.006448
2028.000000	0.006370
2027.000000	0.006461
2026.000000	0.006600
2025.000000	0.006791
2024.000000	0.007040
2023.000000	0.007220
2022.000000	0.007184
2021.000000	0.006925
2020.000000	0.006549
2019.000000	0.006192
2018.000000	0.006016
2017.000000	0.006127
2016.000000	0.006402
2015.000000	0.006566
2014.000000	0.006500
2013.000000	0.006345
2012.000000	0.006284
2011.000000	0.006353
2010.000000	0.006522
2009.000000	0.006758
2008.000000	0.006953
2007.000000	0.006963
2006.000000	0.006826
2005.000000	0.006754
2004.000000	0.006846
2003.000000	0.006985
2002.000000	0.007053
2001.000000	0.007079
2000.000000	0.007096
1999.000000	0.007037
1998.000000	0.006866
1997.000000	0.006671
1996.000000	0.006543
1995.000000	0.006488
1994.000000	0.006515
1993.000000	0.006678
1992.000000	0.006942
1991.000000	0.007115
1990.000000	0.007062
1989.000000	0.006871
1988.000000	0.006730
1987.000000	0.006726
1986.000000	0.006828
1985.000000	0.006967
1984.000000	0.007057
1983.000000	0.007051
1982.000000	0.007032
1981.000000	0.007134
1980.000000	0.007334
1979.000000	0.007427
1978.000000	0.007305
1977.000000	0.007099
1976.000000	0.006958
1975.000000	0.006837
1974.000000	0.006667
1973.000000	0.006508
1972.000000	0.006433
1971.000000	0.006408
1970.000000	0.006389
1969.000000	0.006389
1968.000000	0.006396
1967.000000	0.006346
1966.000000	0.006269
1965.000000	0.006293
1964.000000	0.006449
1963.000000	0.006617
1962.000000	0.006718
1961.000000	0.006795
1960.000000	0.006876
1959.000000	0.006886
1958.000000	0.006793
1957.000000	0.006686
1956.000000	0.006641
1955.000000	0.006627
1954.000000	0.006609
1953.000000	0.006631
1952.000000	0.006721
1951.000000	0.006812
1950.000000	0.006840
1949.000000	0.006848
1948.000000	0.006894
1947.000000	0.006954
1946.000000	0.006969
1945.000000	0.006935
1944.000000	0.006883
1943.000000	0.006838
1942.000000	0.006841
1941.000000	0.006928
1940.000000	0.007063
1939.000000	0.007152
1938.000000	0.007150
1937.000000	0.007089
1936.000000	0.007007
1935.000000	0.006913
1934.000000	0.006838
1933.000000	0.006837
1932.000000	0.006906
1931.000000	0.006961
1930.000000	0.006950
1929.000000	0.006923
1928.000000	0.006921
1927.000000	0.006917
1926.000000	0.006885
1925.000000	0.006870
1924.000000	0.006922
1923.000000	0.006989
1922.000000	0.006999
1921.000000	0.006964
1920.000000	0.006948
1919.000000	0.006969
1918.000000	0.007000
1917.000000	0.007030
1916.000000	0.007056
1915.000000	0.007061
1914.000000	0.007028
1913.000000	0.006961
1912.000000	0.006878
1911.000000	0.006796
1910.000000	0.006748
1909.000000	0.006769
1908.000000	0.006841
1907.000000	0.006918
1906.000000	0.006967
1905.000000	0.007005
1904.000000	0.007046
1903.000000	0.007078
1902.000000	0.007105
1901.000000	0.007149
1900.000000	0.007185
1899.000000	0.007167
1898.000000	0.007102
1897.000000	0.007056
1896.000000	0.007054
1895.000000	0.007031
1894.000000	0.006938
1893.000000	0.006818
1892.000000	0.006748
1891.000000	0.006745
1890.000000	0.006777
1889.000000	0.006813
1888.000000	0.006835
1887.000000	0.006842
1886.000000	0.006865
1885.000000	0.006921
1884.000000	0.006975
1883.000000	0.006964
1882.000000	0.006884
1881.000000	0.006799
1880.000000	0.006748
1879.000000	0.006729
1878.000000	0.006740
1877.000000	0.006794
1876.000000	0.006875
1875.000000	0.006927
1874.000000	0.006901
1873.000000	0.006815
1872.000000	0.006711
1871.000000	0.006603
1870.000000	0.006488
1869.000000	0.006381
1868.000000	0.006316
1867.000000	0.006312
1866.000000	0.006389
1865.000000	0.006536
1864.000000	0.006688
1863.000000	0.006775
1862.000000	0.006806
1861.000000	0.006841
1860.000000	0.006900
1859.000000	0.006940
1858.000000	0.006940
1857.000000	0.006916
1856.000000	0.006876
1855.000000	0.006815
1854.000000	0.006754
1853.000000	0.006730
1852.000000	0.006721
1851.000000	0.006699
1850.000000	0.006673
1849.000000	0.006642
1848.000000	0.006573
1847.000000	0.006469
1846.000000	0.006423
1845.000000	0.006499
1844.000000	0.006606
1843.000000	0.006596
1842.000000	0.006509
1841.000000	0.006501
1840.000000	0.006595
1839.000000	0.006681
1838.000000	0.006681
1837.000000	0.006650
1836.000000	0.006656
1835.000000	0.006658
1834.000000	0.006608
1833.000000	0.006537
1832.000000	0.006481
1831.000000	0.006427
1830.000000	0.006338
1829.000000	0.006241
1828.000000	0.006214
1827.000000	0.006293
1826.000000	0.006435
1825.000000	0.006541
1824.000000	0.006561
1823.000000	0.006536
1822.000000	0.006547
1821.000000	0.006613
1820.000000	0.006678
1819.000000	0.006686
1818.000000	0.006644
1817.000000	0.006615
1816.000000	0.006624
1815.000000	0.006631
1814.000000	0.006616
1813.000000	0.006588
1812.000000	0.006556
1811.000000	0.006504
1810.000000	0.006438
1809.000000	0.006415
1808.000000	0.006461
1807.000000	0.006525
1806.000000	0.006562
1805.000000	0.006586
1804.000000	0.006615
1803.000000	0.006619
1802.000000	0.006583
1801.000000	0.006520
1800.000000	0.006470
1799.000000	0.006459
1798.000000	0.006484
1797.000000	0.006530
1796.000000	0.006563
1795.000000	0.006562
1794.000000	0.006553
1793.000000	0.006542
1792.000000	0.006504
1791.000000	0.006429
1790.000000	0.006382
1789.000000	0.006427
1788.000000	0.006542
1787.000000	0.006644
1786.000000	0.006697
1785.000000	0.006720
1784.000000	0.006712
1783.000000	0.006654
1782.000000	0.006611
1781.000000	0.006620
1780.000000	0.006640
1779.000000	0.006620
1778.000000	0.006569
1777.000000	0.006525
1776.000000	0.006465
1775.000000	0.006380
1774.000000	0.006319
1773.000000	0.006290
1772.000000	0.006227
1771.000000	0.006139
1770.000000	0.006171
1769.000000	0.006428
1768.000000	0.006800
1767.000000	0.007035
1766.000000	0.007077
1765.000000	0.007107
1764.000000	0.007289
1763.000000	0.007591
1762.000000	0.007899
1761.000000	0.008165
1760.000000	0.008458
1759.000000	0.008863
1758.000000	0.009446
1757.000000	0.010169
1756.000000	0.010850
1755.000000	0.011399
1754.000000	0.011957
1753.000000	0.012702
1752.000000	0.013584
1751.000000	0.014353
1750.000000	0.014866
1749.000000	0.015281
1748.000000	0.015716
1747.000000	0.016080
1746.000000	0.016300
1745.000000	0.016365
1744.000000	0.016266
1743.000000	0.015976
1742.000000	0.015545
1741.000000	0.015081
1740.000000	0.014585
1739.000000	0.013936
1738.000000	0.013189
1737.000000	0.012606
1736.000000	0.012313
1735.000000	0.012081
1734.000000	0.011569
1733.000000	0.010834
1732.000000	0.010234
1731.000000	0.009946
1730.000000	0.009879
1729.000000	0.009867
1728.000000	0.009793
1727.000000	0.009653
1726.000000	0.009512
1725.000000	0.009393
1724.000000	0.009288
1723.000000	0.009133
1722.000000	0.008899
1721.000000	0.008677
1720.000000	0.008560
1719.000000	0.008507
1718.000000	0.008401
1717.000000	0.008283
1716.000000	0.008295
1715.000000	0.008457
1714.000000	0.008720
1713.000000	0.009056
1712.000000	0.009434
1711.000000	0.009798
1710.000000	0.010124
1709.000000	0.010416
1708.000000	0.010698
1707.000000	0.011041
1706.000000	0.011485
1705.000000	0.011949
1704.000000	0.012323
1703.000000	0.012719
1702.000000	0.013418
1701.000000	0.014485
1700.000000	0.015402
1699.000000	0.015711
1698.000000	0.015954
1697.000000	0.016835
1696.000000	0.018285
1695.000000	0.019538
1694.000000	0.020224
1693.000000	0.020760
1692.000000	0.021498
1691.000000	0.022366
1690.000000	0.023168
1689.000000	0.023834
1688.000000	0.024384
1687.000000	0.024939
1686.000000	0.025669
1685.000000	0.026713
1684.000000	0.027862
1683.000000	0.028682
1682.000000	0.029346
1681.000000	0.030259
1680.000000	0.031373
1679.000000	0.032390
1678.000000	0.033262
1677.000000	0.034258
1676.000000	0.035538
1675.000000	0.036804
1674.000000	0.037709
1673.000000	0.038398
1672.000000	0.039254
1671.000000	0.040412
1670.000000	0.041786
1669.000000	0.043213
1668.000000	0.044508
1667.000000	0.045588
1666.000000	0.046552
1665.000000	0.047594
1664.000000	0.048833
1663.000000	0.050133
1662.000000	0.051302
1661.000000	0.052328
1660.000000	0.053310
1659.000000	0.054246
1658.000000	0.055007
1657.000000	0.055546
1656.000000	0.056015
1655.000000	0.056702
1654.000000	0.057800
1653.000000	0.059101
1652.000000	0.059843
1651.000000	0.059920
1650.000000	0.059941
1649.000000	0.060277
1648.000000	0.060941
1647.000000	0.061744
1646.000000	0.062455
1645.000000	0.063017
1644.000000	0.063503
1643.000000	0.063939
1642.000000	0.064337
1641.000000	0.064670
1640.000000	0.064857
1639.000000	0.064888
1638.000000	0.064868
1637.000000	0.064993
1636.000000	0.065301
1635.000000	0.065576
1634.000000	0.065605
1633.000000	0.065520
1632.000000	0.065479
1631.000000	0.065422
1630.000000	0.065227
1629.000000	0.064855
1628.000000	0.064333
1627.000000	0.063681
1626.000000	0.062942
1625.000000	0.062144
1624.000000	0.061259
1623.000000	0.060244
1622.000000	0.059158
1621.000000	0.058119
1620.000000	0.057187
1619.000000	0.056316
1618.000000	0.055332
1617.000000	0.054066
1616.000000	0.052606
1615.000000	0.051234
1614.000000	0.050107
1613.000000	0.049157
1612.000000	0.048210
1611.000000	0.047149
1610.000000	0.046028
1609.000000	0.044949
1608.000000	0.043941
1607.000000	0.042992
1606.000000	0.042116
1605.000000	0.041302
1604.000000	0.040512
1603.000000	0.039763
1602.000000	0.039085
1601.000000	0.038477
1600.000000	0.037925
1599.000000	0.037429
1598.000000	0.036994
1597.000000	0.036599
1596.000000	0.036230
1595.000000	0.035911
1594.000000	0.035672
1593.000000	0.035501
1592.000000	0.035371
1591.000000	0.035290
1590.000000	0.035274
1589.000000	0.035306
1588.000000	0.035356
1587.000000	0.035436
1586.000000	0.035575
1585.000000	0.035773
1584.000000	0.035987
1583.000000	0.036246
1582.000000	0.036581
1581.000000	0.036911
1580.000000	0.037142
1579.000000	0.037344
1578.000000	0.037675
1577.000000	0.038187
1576.000000	0.038751
1575.000000	0.039173
1574.000000	0.039466
1573.000000	0.039783
1572.000000	0.040216
1571.000000	0.040765
1570.000000	0.041382
1569.000000	0.041996
1568.000000	0.042551
1567.000000	0.043149
1566.000000	0.043883
1565.000000	0.044677
1564.000000	0.045311
1563.000000	0.045724
1562.000000	0.046072
1561.000000	0.046534
1560.000000	0.047169
1559.000000	0.047967
1558.000000	0.048726
1557.000000	0.049337
1556.000000	0.050056
1555.000000	0.050978
1554.000000	0.051910
1553.000000	0.052614
1552.000000	0.053140
1551.000000	0.053686
1550.000000	0.054256
1549.000000	0.054735
1548.000000	0.055086
1547.000000	0.055395
1546.000000	0.055698
1545.000000	0.055902
1544.000000	0.055934
1543.000000	0.055876
1542.000000	0.055849
1541.000000	0.055946
1540.000000	0.056197
1539.000000	0.056454
1538.000000	0.056510
1537.000000	0.056425
1536.000000	0.056365
1535.000000	0.056341
1534.000000	0.056245
1533.000000	0.056000
1532.000000	0.055692
1531.000000	0.055421
1530.000000	0.055168
1529.000000	0.054888
1528.000000	0.054563
1527.000000	0.054181
1526.000000	0.053722
1525.000000	0.053189
1524.000000	0.052660
1523.000000	0.052210
1522.000000	0.051799
1521.000000	0.051346
1520.000000	0.050842
1519.000000	0.050383
1518.000000	0.050045
1517.000000	0.049764
1516.000000	0.049431
1515.000000	0.049011
1514.000000	0.048557
1513.000000	0.048051
1512.000000	0.047406
1511.000000	0.046574
1510.000000	0.045648
1509.000000	0.044732
1508.000000	0.043772
1507.000000	0.042655
1506.000000	0.041615
1505.000000	0.040861
1504.000000	0.040303
1503.000000	0.039830
1502.000000	0.039325
1501.000000	0.038692
1500.000000	0.037914
1499.000000	0.037056
1498.000000	0.036193
1497.000000	0.035382
1496.000000	0.034652
1495.000000	0.033941
1494.000000	0.033237
1493.000000	0.032600
1492.000000	0.032004
1491.000000	0.031313
1490.000000	0.030502
1489.000000	0.029801
1488.000000	0.029395
1487.000000	0.029188
1486.000000	0.029042
1485.000000	0.028954
1484.000000	0.028915
1483.000000	0.028907
1482.000000	0.028915
1481.000000	0.028963
1480.000000	0.029073
1479.000000	0.029236
1478.000000	0.029435
1477.000000	0.029659
1476.000000	0.029900
1475.000000	0.030179
1474.000000	0.030641
1473.000000	0.031429
1472.000000	0.032456
1471.000000	0.033459
1470.000000	0.034347
1469.000000	0.035186
1468.000000	0.035974
1467.000000	0.036642
1466.000000	0.037211
1465.000000	0.037764
1464.000000	0.038281
1463.000000	0.038686
1462.000000	0.038974
1461.000000	0.039224
1460.000000	0.039491
1459.000000	0.039841
1458.000000	0.040387
1457.000000	0.041165
1456.000000	0.041868
1455.000000	0.042262
1454.000000	0.042537
1453.000000	0.042851
1452.000000	0.043134
1451.000000	0.043274
1450.000000	0.043297
1449.000000	0.043310
1448.000000	0.043333
1447.000000	0.043294
1446.000000	0.043222
1445.000000	0.043164
1444.000000	0.043114
1443.000000	0.043025
1442.000000	0.042844
1441.000000	0.042577
1440.000000	0.042274
1439.000000	0.041995
1438.000000	0.041723
1437.000000	0.041390
1436.000000	0.040945
1435.000000	0.040440
1434.000000	0.039982
1433.000000	0.039621
1432.000000	0.039298
1431.000000	0.038947
1430.000000	0.038585
1429.000000	0.038297
1428.000000	0.038106
1427.000000	0.037946
1426.000000	0.037808
1425.000000	0.037690
1424.000000	0.037566
1423.000000	0.037432
1422.000000	0.037338
1421.000000	0.037336
1420.000000	0.037381
1419.000000	0.037364
1418.000000	0.037272
1417.000000	0.037239
1416.000000	0.037341
1415.000000	0.037491
1414.000000	0.037574
1413.000000	0.037585
1412.000000	0.037604
1411.000000	0.037666
1410.000000	0.037734
1409.000000	0.037784
1408.000000	0.037840
1407.000000	0.037897
1406.000000	0.037960
1405.000000	0.038045
1404.000000	0.038135
1403.000000	0.038188
1402.000000	0.038195
1401.000000	0.038188
1400.000000	0.038151
1399.000000	0.038017
1398.000000	0.037792
1397.000000	0.037583
1396.000000	0.037454
1395.000000	0.037347
1394.000000	0.037198
1393.000000	0.037023
1392.000000	0.036870
1391.000000	0.036742
1390.000000	0.036606
1389.000000	0.036443
1388.000000	0.036247
1387.000000	0.036008
1386.000000	0.035752
1385.000000	0.035540
1384.000000	0.035394
1383.000000	0.035258
1382.000000	0.035068
1381.000000	0.034850
1380.000000	0.034646
1379.000000	0.034431
1378.000000	0.034141
1377.000000	0.033780
1376.000000	0.033390
1375.000000	0.032986
1374.000000	0.032572
1373.000000	0.032175
1372.000000	0.031824
1371.000000	0.031504
1370.000000	0.031182
1369.000000	0.030829
1368.000000	0.030439
1367.000000	0.030023
1366.000000	0.029591
1365.000000	0.029152
1364.000000	0.028708
1363.000000	0.028281
1362.000000	0.027921
1361.000000	0.027674
1360.000000	0.027534
1359.000000	0.027450
1358.000000	0.027386
1357.000000	0.027341
1356.000000	0.027323
1355.000000	0.027327
1354.000000	0.027349
1353.000000	0.027407
1352.000000	0.027525
1351.000000	0.027687
1350.000000	0.027867
1349.000000	0.028060
1348.000000	0.028280
1347.000000	0.028530
1346.000000	0.028802
1345.000000	0.029075
1344.000000	0.029326
1343.000000	0.029531
1342.000000	0.029691
1341.000000	0.029836
1340.000000	0.029987
1339.000000	0.030135
1338.000000	0.030256
1337.000000	0.030346
1336.000000	0.030397
1335.000000	0.030389
1334.000000	0.030311
1333.000000	0.030184
1332.000000	0.030026
1331.000000	0.029829
1330.000000	0.029589
1329.000000	0.029337
1328.000000	0.029109
1327.000000	0.028918
1326.000000	0.028761
1325.000000	0.028635
1324.000000	0.028535
1323.000000	0.028443
1322.000000	0.028352
1321.000000	0.028276
1320.000000	0.028224
1319.000000	0.028177
1318.000000	0.028121
1317.000000	0.028068
1316.000000	0.028029
1315.000000	0.027980
1314.000000	0.027886
1313.000000	0.027743
1312.000000	0.027575
1311.000000	0.027401
1310.000000	0.027234
1309.000000	0.027087
1308.000000	0.026958
1307.000000	0.026823
1306.000000	0.026667
1305.000000	0.026504
1304.000000	0.026351
1303.000000	0.026205
1302.000000	0.026057
1301.000000	0.025922
1300.000000	0.025811
1299.000000	0.025710
1298.000000	0.025609
1297.000000	0.025523
1296.000000	0.025475
1295.000000	0.025467
1294.000000	0.025493
1293.000000	0.025557
1292.000000	0.025669
1291.000000	0.025816
1290.000000	0.025985
1289.000000	0.026185
1288.000000	0.026414
1287.000000	0.026636
1286.000000	0.026821
1285.000000	0.026985
1284.000000	0.027154
1283.000000	0.027321
1282.000000	0.027456
1281.000000	0.027556
1280.000000	0.027635
1279.000000	0.027689
1278.000000	0.027714
1277.000000	0.027728
1276.000000	0.027746
1275.000000	0.027752
1274.000000	0.027728
1273.000000	0.027691
1272.000000	0.027680
1271.000000	0.027709
1270.000000	0.027770
1269.000000	0.027860
1268.000000	0.027978
1267.000000	0.028105
1266.000000	0.028225
1265.000000	0.028349
1264.000000	0.028501
1263.000000	0.028681
1262.000000	0.028877
1261.000000	0.029097
1260.000000	0.029344
1259.000000	0.029604
1258.000000	0.029861
1257.000000	0.030117
1256.000000	0.030380
1255.000000	0.030642
1254.000000	0.030906
1253.000000	0.031200
1252.000000	0.031541
1251.000000	0.031907
1250.000000	0.032272
1249.000000	0.032642
1248.000000	0.033031
1247.000000	0.033431
1246.000000	0.033819
1245.000000	0.034189
1244.000000	0.034532
1243.000000	0.034833
1242.000000	0.035099
1241.000000	0.035363
1240.000000	0.035636
1239.000000	0.035875
1238.000000	0.036036
1237.000000	0.036122
1236.000000	0.036149
1235.000000	0.036110
1234.000000	0.036000
1233.000000	0.035838
1232.000000	0.035638
1231.000000	0.035386
1230.000000	0.035074
1229.000000	0.034717
1228.000000	0.034320
1227.000000	0.033857
1226.000000	0.033309
1225.000000	0.032711
1224.000000	0.032106
1223.000000	0.031507
1222.000000	0.030910
1221.000000	0.030330
1220.000000	0.029784
1219.000000	0.029273
1218.000000	0.028801
1217.000000	0.028391
1216.000000	0.028056
1215.000000	0.027782
1214.000000	0.027555
1213.000000	0.027388
1212.000000	0.027294
1211.000000	0.027264
1210.000000	0.027289
1209.000000	0.027373
1208.000000	0.027499
1207.000000	0.027618
1206.000000	0.027701
1205.000000	0.027765
1204.000000	0.027826
1203.000000	0.027857
1202.000000	0.027820
1201.000000	0.027717
1200.000000	0.027568
1199.000000	0.027372
1198.000000	0.027122
1197.000000	0.026838
1196.000000	0.026543
1195.000000	0.026237
1194.000000	0.025919
1193.000000	0.025614
1192.000000	0.025337
1191.000000	0.025066
1190.000000	0.024778
1189.000000	0.024491
1188.000000	0.024239
1187.000000	0.024026
1186.000000	0.023844
1185.000000	0.023696
1184.000000	0.023583
1183.000000	0.023489
1182.000000	0.023405
1181.000000	0.023359
1180.000000	0.023371
1179.000000	0.023417
1178.000000	0.023462
1177.000000	0.023513
1176.000000	0.023594
1175.000000	0.023709
1174.000000	0.023847
1173.000000	0.024011
1172.000000	0.024204
1171.000000	0.024402
1170.000000	0.024594
1169.000000	0.024806
1168.000000	0.025057
1167.000000	0.025326
1166.000000	0.025574
1165.000000	0.025797
1164.000000	0.026005
1163.000000	0.026181
1162.000000	0.026306
1161.000000	0.026388
1160.000000	0.026438
1159.000000	0.026441
1158.000000	0.026380
1157.000000	0.026266
1156.000000	0.026109
1155.000000	0.025893
1154.000000	0.025618
1153.000000	0.025326
1152.000000	0.025059
1151.000000	0.024811
1150.000000	0.024550
1149.000000	0.024272
1148.000000	0.023979
1147.000000	0.023657
1146.000000	0.023305
1145.000000	0.022955
1144.000000	0.022638
1143.000000	0.022342
1142.000000	0.022039
1141.000000	0.021727
1140.000000	0.021410
1139.000000	0.021075
1138.000000	0.020724
1137.000000	0.020389
1136.000000	0.020096
1135.000000	0.019830
1134.000000	0.019579
1133.000000	0.019373
1132.000000	0.019238
1131.000000	0.019148
1130.000000	0.019065
1129.000000	0.019000
1128.000000	0.018988
1127.000000	0.019027
1126.000000	0.019093
1125.000000	0.019181
1124.000000	0.019301
1123.000000	0.019443
1122.000000	0.019583
1121.000000	0.019712
1120.000000	0.019821
1119.000000	0.019896
1118.000000	0.019943
1117.000000	0.019997
1116.000000	0.020074
1115.000000	0.020149
1114.000000	0.020205
1113.000000	0.020263
1112.000000	0.020340
1111.000000	0.020404
1110.000000	0.020428
1109.000000	0.020442
1108.000000	0.020483
1107.000000	0.020545
1106.000000	0.020612
1105.000000	0.020708
1104.000000	0.020858
1103.000000	0.021032
1102.000000	0.021181
1101.000000	0.021303
1100.000000	0.021416
1099.000000	0.021514
1098.000000	0.021580
1097.000000	0.021627
1096.000000	0.021679
1095.000000	0.021739
1094.000000	0.021817
1093.000000	0.021958
1092.000000	0.022194
1091.000000	0.022500
1090.000000	0.022835
1089.000000	0.023193
1088.000000	0.023578
1087.000000	0.023968
1086.000000	0.024344
1085.000000	0.024713
1084.000000	0.025067
1083.000000	0.025351
1082.000000	0.025522
1081.000000	0.025596
1080.000000	0.025597
1079.000000	0.025500
1078.000000	0.025290
1077.000000	0.025002
1076.000000	0.024679
1075.000000	0.024322
1074.000000	0.023930
1073.000000	0.023552
1072.000000	0.023238
1071.000000	0.022985
1070.000000	0.022770
1069.000000	0.022610
1068.000000	0.022527
1067.000000	0.022505
1066.000000	0.022514
1065.000000	0.022550
1064.000000	0.022618
1063.000000	0.022690
1062.000000	0.022740
1061.000000	0.022776
1060.000000	0.022806
1059.000000	0.022810
1058.000000	0.022781
1057.000000	0.022755
1056.000000	0.022761
1055.000000	0.022778
1054.000000	0.022782
1053.000000	0.022791
1052.000000	0.022827
1051.000000	0.022877
1050.000000	0.022929
1049.000000	0.023007
1048.000000	0.023114
1047.000000	0.023193
1046.000000	0.023202
1045.000000	0.023174
1044.000000	0.023162
1043.000000	0.023178
1042.000000	0.023220
1041.000000	0.023310
1040.000000	0.023457
1039.000000	0.023632
1038.000000	0.023820
1037.000000	0.024056
1036.000000	0.024358
1035.000000	0.024684
1034.000000	0.024978
1033.000000	0.025236
1032.000000	0.025464
1031.000000	0.025634
1030.000000	0.025727
1029.000000	0.025779
1028.000000	0.025820
1027.000000	0.025835
1026.000000	0.025808
1025.000000	0.025775
1024.000000	0.025773
1023.000000	0.025787
1022.000000	0.025790
1021.000000	0.025798
1020.000000	0.025829
1019.000000	0.025857
1018.000000	0.025841
1017.000000	0.025763
1016.000000	0.025599
1015.000000	0.025302
1014.000000	0.024877
1013.000000	0.024393
1012.000000	0.023909
1011.000000	0.023415
1010.000000	0.022900
1009.000000	0.022408
1008.000000	0.021972
1007.000000	0.021562
1006.000000	0.021142
1005.000000	0.020727
1004.000000	0.020347
1003.000000	0.019988
1002.000000	0.019629
1001.000000	0.019289
1000.000000	0.018989
999.000000	0.018708
998.000000	0.018414
997.000000	0.018116
996.000000	0.017827
995.000000	0.017531
994.000000	0.017219
993.000000	0.016919
992.000000	0.016645
991.000000	0.016364
990.000000	0.016050
989.000000	0.015736
988.000000	0.015453
987.000000	0.015185
986.000000	0.014907
985.000000	0.014637
984.000000	0.014395
983.000000	0.014170
982.000000	0.013962
981.000000	0.013803
980.000000	0.013699
979.000000	0.013589
978.000000	0.013435
977.000000	0.013274
976.000000	0.013164
975.000000	0.013089
974.000000	0.012997
973.000000	0.012868
972.000000	0.012711
971.000000	0.012525
970.000000	0.012318
969.000000	0.012130
968.000000	0.011974
967.000000	0.011806
966.000000	0.011588
965.000000	0.011348
964.000000	0.011135
963.000000	0.010952
962.000000	0.010782
961.000000	0.010630
960.000000	0.010490
959.000000	0.010322
958.000000	0.010111
957.000000	0.009908
956.000000	0.009757
955.000000	0.009641
954.000000	0.009520
953.000000	0.009401
952.000000	0.009302
951.000000	0.009211
950.000000	0.009121
949.000000	0.009065
948.000000	0.009063
947.000000	0.009075
946.000000	0.009058
945.000000	0.009030
944.000000	0.009029
943.000000	0.009051
942.000000	0.009080
941.000000	0.009125
940.000000	0.009184
939.000000	0.009209
938.000000	0.009164
937.000000	0.009083
936.000000	0.009014
935.000000	0.008959
934.000000	0.008900
933.000000	0.008848
932.000000	0.008810
931.000000	0.008764
930.000000	0.008704
929.000000	0.008674
928.000000	0.008687
927.000000	0.008686
926.000000	0.008622
925.000000	0.008531
924.000000	0.008475
923.000000	0.008456
922.000000	0.008436
921.000000	0.008407
920.000000	0.008358
919.000000	0.008247
918.000000	0.008062
917.000000	0.007861
916.000000	0.007710
915.000000	0.007600
914.000000	0.007490
913.000000	0.007382
912.000000	0.007291
911.000000	0.007203
910.000000	0.007107
909.000000	0.007034
908.000000	0.007002
907.000000	0.006970
906.000000	0.006904
905.000000	0.006837
904.000000	0.006816
903.000000	0.006820
902.000000	0.006806
901.000000	0.006767
900.000000	0.006714
899.000000	0.006632
898.000000	0.006518
897.000000	0.006415
896.000000	0.006358
895.000000	0.006323
894.000000	0.006290
893.000000	0.006281
892.000000	0.006311
891.000000	0.006344
890.000000	0.006349
889.000000	0.006355
888.000000	0.006382
887.000000	0.006408
886.000000	0.006430
885.000000	0.006514
884.000000	0.006700
883.000000	0.006938
882.000000	0.007181
881.000000	0.007465
880.000000	0.007836
879.000000	0.008254
878.000000	0.008642
877.000000	0.008958
876.000000	0.009175
875.000000	0.009234
874.000000	0.009124
873.000000	0.008919
872.000000	0.008684
871.000000	0.008407
870.000000	0.008084
869.000000	0.007786
868.000000	0.007576
867.000000	0.007419
866.000000	0.007265
865.000000	0.007132
864.000000	0.007056
863.000000	0.007019
862.000000	0.007000
861.000000	0.007024
860.000000	0.007090
859.000000	0.007118
858.000000	0.007059
857.000000	0.006976
856.000000	0.006956
855.000000	0.007000
854.000000	0.007065
853.000000	0.007143
852.000000	0.007221
851.000000	0.007237
850.000000	0.007170
849.000000	0.007091
848.000000	0.007062
847.000000	0.007049
846.000000	0.006998
845.000000	0.006936
844.000000	0.006907
843.000000	0.006883
842.000000	0.006826
841.000000	0.006755
840.000000	0.006700
839.000000	0.006638
838.000000	0.006555
837.000000	0.006500
836.000000	0.006498
835.000000	0.006495
834.000000	0.006448
833.000000	0.006402
832.000000	0.006391
831.000000	0.006365
830.000000	0.006285
829.000000	0.006214
828.000000	0.006226
827.000000	0.006283
826.000000	0.006316
825.000000	0.006339
824.000000	0.006389
823.000000	0.006431
822.000000	0.006419
821.000000	0.006395
820.000000	0.006412
819.000000	0.006450
818.000000	0.006470
817.000000	0.006498
816.000000	0.006554
815.000000	0.006591
814.000000	0.006571
813.000000	0.006534
812.000000	0.006522
811.000000	0.006511
810.000000	0.006477
809.000000	0.006458
808.000000	0.006469
807.000000	0.006449
806.000000	0.006374
805.000000	0.006308
804.000000	0.006299
803.000000	0.006293
802.000000	0.006258
801.000000	0.006274
800.000000	0.006393
799.000000	0.006525
798.000000	0.006558
797.000000	0.006517
796.000000	0.006488
795.000000	0.006491
794.000000	0.006508
793.000000	0.006567
792.000000	0.006687
791.000000	0.006807
790.000000	0.006863
789.000000	0.006886
788.000000	0.006923
787.000000	0.006951
786.000000	0.006943
785.000000	0.006938
784.000000	0.006979
783.000000	0.007024
782.000000	0.007027
781.000000	0.007011
780.000000	0.007014
779.000000	0.007034
778.000000	0.007074
777.000000	0.007175
776.000000	0.007326
775.000000	0.007424
774.000000	0.007410
773.000000	0.007348
772.000000	0.007316
771.000000	0.007306
770.000000	0.007303
769.000000	0.007351
768.000000	0.007459
767.000000	0.007545
766.000000	0.007561
765.000000	0.007577
764.000000	0.007655
763.000000	0.007732
762.000000	0.007725
761.000000	0.007669
760.000000	0.007641
759.000000	0.007651
758.000000	0.007670
757.000000	0.007714
756.000000	0.007787
755.000000	0.007847
754.000000	0.007876
753.000000	0.007927
752.000000	0.008013
751.000000	0.008062
750.000000	0.008036
749.000000	0.008012
748.000000	0.008061
747.000000	0.008145
746.000000	0.008212
745.000000	0.008287
744.000000	0.008381
743.000000	0.008434
742.000000	0.008426
741.000000	0.008452
740.000000	0.008571
739.000000	0.008700
738.000000	0.008760
737.000000	0.008808
736.000000	0.008926
735.000000	0.009083
734.000000	0.009221
733.000000	0.009374
732.000000	0.009590
731.000000	0.009813
730.000000	0.009965
729.000000	0.010079
728.000000	0.010230
727.000000	0.010410
726.000000	0.010576
725.000000	0.010743
724.000000	0.010935
723.000000	0.011115
722.000000	0.011258
721.000000	0.011400
720.000000	0.011544
719.000000	0.011607
718.000000	0.011557
717.000000	0.011497
716.000000	0.011526
715.000000	0.011630
714.000000	0.011769
713.000000	0.011958
712.000000	0.012176
711.000000	0.012314
710.000000	0.012319
709.000000	0.012289
708.000000	0.012320
707.000000	0.012378
706.000000	0.012414
705.000000	0.012483
704.000000	0.012613
703.000000	0.012710
702.000000	0.012707
701.000000	0.012692
700.000000	0.012765
699.000000	0.012861
698.000000	0.012871
697.000000	0.012819
696.000000	0.012801
695.000000	0.012828
694.000000	0.012859
693.000000	0.012899
692.000000	0.012962
691.000000	0.012992
690.000000	0.012967
689.000000	0.012965
688.000000	0.013033
687.000000	0.013091
686.000000	0.013077
685.000000	0.013078
684.000000	0.013189
683.000000	0.013356
682.000000	0.013470
681.000000	0.013528
680.000000	0.013571
679.000000	0.013588
678.000000	0.013580
677.000000	0.013653
676.000000	0.013864
675.000000	0.014108
674.000000	0.014252
673.000000	0.014303
672.000000	0.014315
671.000000	0.014261
670.000000	0.014091
669.000000	0.013859
668.000000	0.013787
667.000000	0.013996
666.000000	0.014189
665.000000	0.014351
664.000000	0.014556
663.000000	0.014697
662.000000	0.014679
661.000000	0.014599
660.000000	0.014577
659.000000	0.014567
658.000000	0.014500
657.000000	0.014464
656.000000	0.014535
655.000000	0.014617
654.000000	0.014624
653.000000	0.014634
652.000000	0.014715
651.000000	0.014781
650.000000	0.014750
649.000000	0.014694
648.000000	0.014667
647.000000	0.014592
646.000000	0.014445
645.000000	0.014353
644.000000	0.014375
643.000000	0.014396
642.000000	0.014346
641.000000	0.014335
640.000000	0.014440
639.000000	0.014543
638.000000	0.014540
637.000000	0.014512
636.000000	0.014529
635.000000	0.014486
634.000000	0.014322
633.000000	0.014181
632.000000	0.014204
631.000000	0.014321
630.000000	0.014408
629.000000	0.014482
628.000000	0.014568
627.000000	0.014583
626.000000	0.014503
625.000000	0.014476
624.000000	0.014586
623.000000	0.014706
622.000000	0.014717
621.000000	0.014703
620.000000	0.014752
619.000000	0.014774
618.000000	0.014692
617.000000	0.014634
616.000000	0.014727
615.000000	0.014878
614.000000	0.014955
613.000000	0.014990
612.000000	0.015042
611.000000	0.015030
610.000000	0.014898
609.000000	0.014778
608.000000	0.014792
607.000000	0.014868
606.000000	0.014906
605.000000	0.014947
604.000000	0.015012
603.000000	0.014992
602.000000	0.014853
601.000000	0.014747
600.000000	0.014762
599.000000	0.014771
598.000000	0.014688
597.000000	0.014651
596.000000	0.014746
595.000000	0.014820
594.000000	0.014742
593.000000	0.014642
592.000000	0.014674
591.000000	0.014749
590.000000	0.014745
589.000000	0.014747
588.000000	0.014858
587.000000	0.014973
586.000000	0.014971
585.000000	0.014920
584.000000	0.014902
583.000000	0.014846
582.000000	0.014735
581.000000	0.014758
580.000000	0.015017
579.000000	0.015308
578.000000	0.015412
577.000000	0.015395
576.000000	0.015404
575.000000	0.015416
574.000000	0.015391
573.000000	0.015432
572.000000	0.015562
571.000000	0.015610
570.000000	0.015511
569.000000	0.015472
568.000000	0.015619
567.000000	0.015762
566.000000	0.015751
565.000000	0.015752
564.000000	0.015916
563.000000	0.016070
562.000000	0.016034
561.000000	0.015951
560.000000	0.016013
559.000000	0.016123
558.000000	0.016119
557.000000	0.016069
556.000000	0.016065
555.000000	0.015988
554.000000	0.015764
553.000000	0.015592
552.000000	0.015632
551.000000	0.015726
550.000000	0.015691
549.000000	0.015625
548.000000	0.015656
547.000000	0.015674
546.000000	0.015596
545.000000	0.015595
544.000000	0.015769
543.000000	0.015899
542.000000	0.015807
541.000000	0.015662
540.000000	0.015647
539.000000	0.015633
538.000000	0.015494
537.000000	0.015419
536.000000	0.015584
535.000000	0.015811
534.000000	0.015896
533.000000	0.015979
532.000000	0.016231
531.000000	0.016458
530.000000	0.016403
529.000000	0.016172
528.000000	0.016033
527.000000	0.016014
526.000000	0.016008
525.000000	0.016038
524.000000	0.016091
523.000000	0.015984
522.000000	0.015667
521.000000	0.015385
520.000000	0.015269
519.000000	0.015058
518.000000	0.014509
517.000000	0.013848
516.000000	0.013431
515.000000	0.013267
514.000000	0.013223
513.000000	0.013308
512.000000	0.013464
511.000000	0.013421
510.000000	0.013082
509.000000	0.012747
508.000000	0.012646
507.000000	0.012579
506.000000	0.012320
505.000000	0.012025
504.000000	0.011883
503.000000	0.011750
502.000000	0.011466
501.000000	0.011212
500.000000	0.011149
499.000000	0.011079
498.000000	0.010838
497.000000	0.010641
496.000000	0.010717
495.000000	0.010893
494.000000	0.010921
493.000000	0.010881
492.000000	0.010919
491.000000	0.010887
490.000000	0.010647
489.000000	0.010407
488.000000	0.010358
487.000000	0.010312
486.000000	0.010056
485.000000	0.009761
484.000000	0.009672
483.000000	0.009657
482.000000	0.009487
481.000000	0.009224
480.000000	0.008986
479.000000	0.008668
478.000000	0.008260
477.000000	0.008075
476.000000	0.008291
475.000000	0.008634
474.000000	0.008844
473.000000	0.009063
472.000000	0.009382
471.000000	0.009438
470.000000	0.009036
469.000000	0.008602
468.000000	0.008551
467.000000	0.008713
466.000000	0.008764
465.000000	0.008788
464.000000	0.008897
463.000000	0.008762
462.000000	0.008109
461.000000	0.007283
460.000000	0.006739
459.000000	0.006416
458.000000	0.006088
457.000000	0.005934
456.000000	0.006121
455.000000	0.006339
454.000000	0.006362
453.000000	0.006425
452.000000	0.006701
451.000000	0.006880
450.000000	0.006705
