PE IR       SUBTECH     SPECTRUM    ASCII       PEDS        4.00        
   -1
3C-N10-C038_1.ASC
22/02/16
15:01:12.00
22/02/16
15:05:49.00
uco
Sample 038 By uco Date Wednesday, February 16 2022
450.000000
#HDR
-1
-1
#GR
cm-1
A
1.0
0.0
4000.000000
-1.000000
3551
8
0.080932
0.004630
#DATA
4000.000000	0.007663
3999.000000	0.007585
3998.000000	0.007538
3997.000000	0.007554
3996.000000	0.007604
3995.000000	0.007642
3994.000000	0.007679
3993.000000	0.007743
3992.000000	0.007829
3991.000000	0.007892
3990.000000	0.007911
3989.000000	0.007909
3988.000000	0.007904
3987.000000	0.007878
3986.000000	0.007823
3985.000000	0.007773
3984.000000	0.007750
3983.000000	0.007748
3982.000000	0.007746
3981.000000	0.007743
3980.000000	0.007760
3979.000000	0.007814
3978.000000	0.007894
3977.000000	0.007982
3976.000000	0.008085
3975.000000	0.008199
3974.000000	0.008282
3973.000000	0.008308
3972.000000	0.008305
3971.000000	0.008312
3970.000000	0.008318
3969.000000	0.008293
3968.000000	0.008211
3967.000000	0.008069
3966.000000	0.007895
3965.000000	0.007763
3964.000000	0.007765
3963.000000	0.007915
3962.000000	0.008131
3961.000000	0.008319
3960.000000	0.008442
3959.000000	0.008495
3958.000000	0.008462
3957.000000	0.008391
3956.000000	0.008361
3955.000000	0.008361
3954.000000	0.008335
3953.000000	0.008242
3952.000000	0.008133
3951.000000	0.008104
3950.000000	0.008269
3949.000000	0.008597
3948.000000	0.008819
3947.000000	0.008826
3946.000000	0.008767
3945.000000	0.008835
3944.000000	0.009037
3943.000000	0.009184
3942.000000	0.009202
3941.000000	0.009193
3940.000000	0.009196
3939.000000	0.009114
3938.000000	0.008812
3937.000000	0.008377
3936.000000	0.008077
3935.000000	0.008007
3934.000000	0.008165
3933.000000	0.008492
3932.000000	0.009004
3931.000000	0.009550
3930.000000	0.009783
3929.000000	0.009575
3928.000000	0.009154
3927.000000	0.008952
3926.000000	0.009042
3925.000000	0.009100
3924.000000	0.009089
3923.000000	0.009250
3922.000000	0.009442
3921.000000	0.009293
3920.000000	0.008889
3919.000000	0.008869
3918.000000	0.009331
3917.000000	0.009699
3916.000000	0.009662
3915.000000	0.009483
3914.000000	0.009395
3913.000000	0.009278
3912.000000	0.009042
3911.000000	0.008936
3910.000000	0.008936
3909.000000	0.008887
3908.000000	0.008813
3907.000000	0.008834
3906.000000	0.009012
3905.000000	0.009034
3904.000000	0.008870
3903.000000	0.009016
3902.000000	0.009855
3901.000000	0.011030
3900.000000	0.011601
3899.000000	0.011238
3898.000000	0.010565
3897.000000	0.010167
3896.000000	0.009901
3895.000000	0.009592
3894.000000	0.009451
3893.000000	0.009955
3892.000000	0.010563
3891.000000	0.010104
3890.000000	0.008970
3889.000000	0.008552
3888.000000	0.009208
3887.000000	0.009891
3886.000000	0.009689
3885.000000	0.008851
3884.000000	0.008615
3883.000000	0.009524
3882.000000	0.010720
3881.000000	0.011308
3880.000000	0.011050
3879.000000	0.010273
3878.000000	0.009823
3877.000000	0.009986
3876.000000	0.010205
3875.000000	0.009952
3874.000000	0.009256
3873.000000	0.009023
3872.000000	0.009944
3871.000000	0.011039
3870.000000	0.010707
3869.000000	0.009434
3868.000000	0.009193
3867.000000	0.010267
3866.000000	0.010727
3865.000000	0.009989
3864.000000	0.009621
3863.000000	0.010228
3862.000000	0.010714
3861.000000	0.010667
3860.000000	0.010555
3859.000000	0.010800
3858.000000	0.011213
3857.000000	0.011297
3856.000000	0.010560
3855.000000	0.008830
3854.000000	0.006920
3853.000000	0.005231
3852.000000	0.004630
3851.000000	0.006220
3850.000000	0.008469
3849.000000	0.009763
3848.000000	0.010076
3847.000000	0.010093
3846.000000	0.009917
3845.000000	0.009743
3844.000000	0.009753
3843.000000	0.009705
3842.000000	0.009598
3841.000000	0.010005
3840.000000	0.010612
3839.000000	0.010736
3838.000000	0.010213
3837.000000	0.009438
3836.000000	0.009080
3835.000000	0.009326
3834.000000	0.009948
3833.000000	0.010468
3832.000000	0.010354
3831.000000	0.009684
3830.000000	0.009127
3829.000000	0.009260
3828.000000	0.009910
3827.000000	0.010292
3826.000000	0.009845
3825.000000	0.009319
3824.000000	0.009415
3823.000000	0.009892
3822.000000	0.010402
3821.000000	0.010183
3820.000000	0.009331
3819.000000	0.009355
3818.000000	0.010321
3817.000000	0.010551
3816.000000	0.009217
3815.000000	0.007608
3814.000000	0.007670
3813.000000	0.009038
3812.000000	0.009670
3811.000000	0.009069
3810.000000	0.008476
3809.000000	0.008780
3808.000000	0.009287
3807.000000	0.008696
3806.000000	0.007350
3805.000000	0.007103
3804.000000	0.008240
3803.000000	0.009512
3802.000000	0.009704
3801.000000	0.008489
3800.000000	0.007439
3799.000000	0.008018
3798.000000	0.009392
3797.000000	0.010142
3796.000000	0.010040
3795.000000	0.009642
3794.000000	0.009509
3793.000000	0.009422
3792.000000	0.009097
3791.000000	0.008797
3790.000000	0.008705
3789.000000	0.008579
3788.000000	0.008305
3787.000000	0.008199
3786.000000	0.008532
3785.000000	0.008976
3784.000000	0.009039
3783.000000	0.008870
3782.000000	0.008820
3781.000000	0.008968
3780.000000	0.009130
3779.000000	0.009145
3778.000000	0.009084
3777.000000	0.009222
3776.000000	0.009337
3775.000000	0.008951
3774.000000	0.008268
3773.000000	0.008049
3772.000000	0.008465
3771.000000	0.008876
3770.000000	0.008802
3769.000000	0.008545
3768.000000	0.008613
3767.000000	0.009053
3766.000000	0.009400
3765.000000	0.009175
3764.000000	0.008670
3763.000000	0.008531
3762.000000	0.008616
3761.000000	0.008482
3760.000000	0.008412
3759.000000	0.008999
3758.000000	0.009701
3757.000000	0.009799
3756.000000	0.009573
3755.000000	0.009250
3754.000000	0.008352
3753.000000	0.006783
3752.000000	0.006081
3751.000000	0.007222
3750.000000	0.008218
3749.000000	0.007795
3748.000000	0.007498
3747.000000	0.008615
3746.000000	0.010170
3745.000000	0.009931
3744.000000	0.007368
3743.000000	0.005453
3742.000000	0.006428
3741.000000	0.008387
3740.000000	0.008902
3739.000000	0.008488
3738.000000	0.008379
3737.000000	0.008678
3736.000000	0.009365
3735.000000	0.010536
3734.000000	0.011851
3733.000000	0.012221
3732.000000	0.011092
3731.000000	0.009351
3730.000000	0.008344
3729.000000	0.008368
3728.000000	0.008717
3727.000000	0.008703
3726.000000	0.008521
3725.000000	0.008726
3724.000000	0.009268
3723.000000	0.009559
3722.000000	0.009424
3721.000000	0.009200
3720.000000	0.009115
3719.000000	0.009197
3718.000000	0.009023
3717.000000	0.008394
3716.000000	0.007868
3715.000000	0.007573
3714.000000	0.007150
3713.000000	0.006908
3712.000000	0.007573
3711.000000	0.008913
3710.000000	0.009868
3709.000000	0.010169
3708.000000	0.010063
3707.000000	0.009597
3706.000000	0.009064
3705.000000	0.008747
3704.000000	0.008705
3703.000000	0.008897
3702.000000	0.009059
3701.000000	0.008947
3700.000000	0.008628
3699.000000	0.008471
3698.000000	0.008491
3697.000000	0.008317
3696.000000	0.008094
3695.000000	0.008164
3694.000000	0.008237
3693.000000	0.007929
3692.000000	0.007571
3691.000000	0.007818
3690.000000	0.008527
3689.000000	0.008700
3688.000000	0.007799
3687.000000	0.006991
3686.000000	0.007294
3685.000000	0.008171
3684.000000	0.008560
3683.000000	0.008379
3682.000000	0.008378
3681.000000	0.008590
3680.000000	0.008386
3679.000000	0.007770
3678.000000	0.007714
3677.000000	0.008764
3676.000000	0.010083
3675.000000	0.010060
3674.000000	0.009179
3673.000000	0.009114
3672.000000	0.009431
3671.000000	0.009315
3670.000000	0.009116
3669.000000	0.009104
3668.000000	0.009274
3667.000000	0.009482
3666.000000	0.009406
3665.000000	0.009068
3664.000000	0.008825
3663.000000	0.008924
3662.000000	0.009122
3661.000000	0.008982
3660.000000	0.008684
3659.000000	0.008653
3658.000000	0.009132
3657.000000	0.009570
3656.000000	0.009335
3655.000000	0.008842
3654.000000	0.008879
3653.000000	0.009008
3652.000000	0.008350
3651.000000	0.007831
3650.000000	0.008950
3649.000000	0.011089
3648.000000	0.012398
3647.000000	0.012474
3646.000000	0.012017
3645.000000	0.011487
3644.000000	0.010990
3643.000000	0.010593
3642.000000	0.010284
3641.000000	0.010076
3640.000000	0.010065
3639.000000	0.010078
3638.000000	0.009930
3637.000000	0.009785
3636.000000	0.010011
3635.000000	0.010481
3634.000000	0.010666
3633.000000	0.010535
3632.000000	0.010461
3631.000000	0.010511
3630.000000	0.010914
3629.000000	0.011330
3628.000000	0.010880
3627.000000	0.010554
3626.000000	0.010997
3625.000000	0.011392
3624.000000	0.011210
3623.000000	0.010860
3622.000000	0.010800
3621.000000	0.011016
3620.000000	0.011337
3619.000000	0.011570
3618.000000	0.011442
3617.000000	0.011269
3616.000000	0.011457
3615.000000	0.011918
3614.000000	0.012299
3613.000000	0.012427
3612.000000	0.012399
3611.000000	0.012302
3610.000000	0.012199
3609.000000	0.012299
3608.000000	0.012700
3607.000000	0.013166
3606.000000	0.013329
3605.000000	0.013044
3604.000000	0.012475
3603.000000	0.011979
3602.000000	0.011838
3601.000000	0.011987
3600.000000	0.012260
3599.000000	0.012515
3598.000000	0.012616
3597.000000	0.012598
3596.000000	0.012827
3595.000000	0.013267
3594.000000	0.013583
3593.000000	0.013597
3592.000000	0.013361
3591.000000	0.012956
3590.000000	0.012576
3589.000000	0.012684
3588.000000	0.013629
3587.000000	0.014687
3586.000000	0.015072
3585.000000	0.014900
3584.000000	0.014584
3583.000000	0.014230
3582.000000	0.013927
3581.000000	0.013770
3580.000000	0.013801
3579.000000	0.013909
3578.000000	0.013980
3577.000000	0.014041
3576.000000	0.014203
3575.000000	0.014457
3574.000000	0.014611
3573.000000	0.014571
3572.000000	0.014310
3571.000000	0.013878
3570.000000	0.013469
3569.000000	0.013565
3568.000000	0.014640
3567.000000	0.016330
3566.000000	0.017547
3565.000000	0.017836
3564.000000	0.017504
3563.000000	0.016942
3562.000000	0.016453
3561.000000	0.016243
3560.000000	0.016277
3559.000000	0.016360
3558.000000	0.016317
3557.000000	0.016123
3556.000000	0.015886
3555.000000	0.015802
3554.000000	0.016002
3553.000000	0.016426
3552.000000	0.016827
3551.000000	0.016954
3550.000000	0.016798
3549.000000	0.016556
3548.000000	0.016525
3547.000000	0.016927
3546.000000	0.017631
3545.000000	0.018234
3544.000000	0.018498
3543.000000	0.018448
3542.000000	0.018198
3541.000000	0.017885
3540.000000	0.017654
3539.000000	0.017612
3538.000000	0.017762
3537.000000	0.018033
3536.000000	0.018333
3535.000000	0.018514
3534.000000	0.018491
3533.000000	0.018319
3532.000000	0.018178
3531.000000	0.018212
3530.000000	0.018420
3529.000000	0.018704
3528.000000	0.018967
3527.000000	0.019165
3526.000000	0.019327
3525.000000	0.019550
3524.000000	0.019906
3523.000000	0.020289
3522.000000	0.020474
3521.000000	0.020387
3520.000000	0.020192
3519.000000	0.020050
3518.000000	0.019992
3517.000000	0.019992
3516.000000	0.020055
3515.000000	0.020118
3514.000000	0.020106
3513.000000	0.020072
3512.000000	0.020156
3511.000000	0.020414
3510.000000	0.020753
3509.000000	0.021003
3508.000000	0.021064
3507.000000	0.020957
3506.000000	0.020801
3505.000000	0.020792
3504.000000	0.021107
3503.000000	0.021652
3502.000000	0.022089
3501.000000	0.022203
3500.000000	0.022077
3499.000000	0.021910
3498.000000	0.021815
3497.000000	0.021833
3496.000000	0.021967
3495.000000	0.022150
3494.000000	0.022263
3493.000000	0.022269
3492.000000	0.022231
3491.000000	0.022210
3490.000000	0.022238
3489.000000	0.022358
3488.000000	0.022577
3487.000000	0.022807
3486.000000	0.022925
3485.000000	0.022926
3484.000000	0.022933
3483.000000	0.023036
3482.000000	0.023215
3481.000000	0.023397
3480.000000	0.023538
3479.000000	0.023606
3478.000000	0.023583
3477.000000	0.023528
3476.000000	0.023537
3475.000000	0.023628
3474.000000	0.023721
3473.000000	0.023760
3472.000000	0.023776
3471.000000	0.023793
3470.000000	0.023820
3469.000000	0.023899
3468.000000	0.024059
3467.000000	0.024233
3466.000000	0.024323
3465.000000	0.024331
3464.000000	0.024343
3463.000000	0.024413
3462.000000	0.024537
3461.000000	0.024700
3460.000000	0.024881
3459.000000	0.025026
3458.000000	0.025097
3457.000000	0.025128
3456.000000	0.025178
3455.000000	0.025251
3454.000000	0.025327
3453.000000	0.025378
3452.000000	0.025377
3451.000000	0.025332
3450.000000	0.025309
3449.000000	0.025412
3448.000000	0.025673
3447.000000	0.025996
3446.000000	0.026244
3445.000000	0.026368
3444.000000	0.026412
3443.000000	0.026426
3442.000000	0.026435
3441.000000	0.026456
3440.000000	0.026503
3439.000000	0.026571
3438.000000	0.026650
3437.000000	0.026737
3436.000000	0.026826
3435.000000	0.026910
3434.000000	0.026999
3433.000000	0.027094
3432.000000	0.027199
3431.000000	0.027322
3430.000000	0.027445
3429.000000	0.027540
3428.000000	0.027596
3427.000000	0.027642
3426.000000	0.027689
3425.000000	0.027728
3424.000000	0.027770
3423.000000	0.027855
3422.000000	0.028011
3421.000000	0.028216
3420.000000	0.028420
3419.000000	0.028571
3418.000000	0.028634
3417.000000	0.028614
3416.000000	0.028562
3415.000000	0.028544
3414.000000	0.028588
3413.000000	0.028677
3412.000000	0.028788
3411.000000	0.028909
3410.000000	0.029019
3409.000000	0.029102
3408.000000	0.029174
3407.000000	0.029253
3406.000000	0.029325
3405.000000	0.029376
3404.000000	0.029436
3403.000000	0.029538
3402.000000	0.029669
3401.000000	0.029808
3400.000000	0.029970
3399.000000	0.030154
3398.000000	0.030298
3397.000000	0.030349
3396.000000	0.030338
3395.000000	0.030343
3394.000000	0.030413
3393.000000	0.030542
3392.000000	0.030693
3391.000000	0.030819
3390.000000	0.030884
3389.000000	0.030904
3388.000000	0.030932
3387.000000	0.030990
3386.000000	0.031054
3385.000000	0.031100
3384.000000	0.031140
3383.000000	0.031181
3382.000000	0.031213
3381.000000	0.031251
3380.000000	0.031339
3379.000000	0.031483
3378.000000	0.031637
3377.000000	0.031763
3376.000000	0.031857
3375.000000	0.031920
3374.000000	0.031952
3373.000000	0.031988
3372.000000	0.032082
3371.000000	0.032236
3370.000000	0.032402
3369.000000	0.032553
3368.000000	0.032694
3367.000000	0.032818
3366.000000	0.032903
3365.000000	0.032961
3364.000000	0.033036
3363.000000	0.033157
3362.000000	0.033318
3361.000000	0.033498
3360.000000	0.033668
3359.000000	0.033794
3358.000000	0.033869
3357.000000	0.033937
3356.000000	0.034046
3355.000000	0.034178
3354.000000	0.034287
3353.000000	0.034375
3352.000000	0.034494
3351.000000	0.034668
3350.000000	0.034865
3349.000000	0.035055
3348.000000	0.035226
3347.000000	0.035365
3346.000000	0.035459
3345.000000	0.035531
3344.000000	0.035629
3343.000000	0.035763
3342.000000	0.035892
3341.000000	0.035990
3340.000000	0.036079
3339.000000	0.036193
3338.000000	0.036344
3337.000000	0.036535
3336.000000	0.036752
3335.000000	0.036948
3334.000000	0.037074
3333.000000	0.037125
3332.000000	0.037142
3331.000000	0.037169
3330.000000	0.037220
3329.000000	0.037295
3328.000000	0.037395
3327.000000	0.037511
3326.000000	0.037627
3325.000000	0.037745
3324.000000	0.037878
3323.000000	0.038011
3322.000000	0.038112
3321.000000	0.038176
3320.000000	0.038232
3319.000000	0.038305
3318.000000	0.038395
3317.000000	0.038490
3316.000000	0.038584
3315.000000	0.038673
3314.000000	0.038756
3313.000000	0.038831
3312.000000	0.038892
3311.000000	0.038923
3310.000000	0.038936
3309.000000	0.038969
3308.000000	0.039042
3307.000000	0.039126
3306.000000	0.039185
3305.000000	0.039229
3304.000000	0.039293
3303.000000	0.039383
3302.000000	0.039475
3301.000000	0.039553
3300.000000	0.039615
3299.000000	0.039651
3298.000000	0.039658
3297.000000	0.039652
3296.000000	0.039655
3295.000000	0.039665
3294.000000	0.039672
3293.000000	0.039691
3292.000000	0.039738
3291.000000	0.039786
3290.000000	0.039799
3289.000000	0.039776
3288.000000	0.039743
3287.000000	0.039717
3286.000000	0.039704
3285.000000	0.039723
3284.000000	0.039779
3283.000000	0.039827
3282.000000	0.039820
3281.000000	0.039775
3280.000000	0.039742
3279.000000	0.039723
3278.000000	0.039670
3277.000000	0.039575
3276.000000	0.039479
3275.000000	0.039420
3274.000000	0.039386
3273.000000	0.039362
3272.000000	0.039353
3271.000000	0.039361
3270.000000	0.039373
3269.000000	0.039375
3268.000000	0.039358
3267.000000	0.039310
3266.000000	0.039221
3265.000000	0.039114
3264.000000	0.039025
3263.000000	0.038960
3262.000000	0.038888
3261.000000	0.038804
3260.000000	0.038710
3259.000000	0.038589
3258.000000	0.038443
3257.000000	0.038329
3256.000000	0.038306
3255.000000	0.038352
3254.000000	0.038386
3253.000000	0.038351
3252.000000	0.038256
3251.000000	0.038124
3250.000000	0.037956
3249.000000	0.037775
3248.000000	0.037625
3247.000000	0.037540
3246.000000	0.037518
3245.000000	0.037535
3244.000000	0.037549
3243.000000	0.037513
3242.000000	0.037414
3241.000000	0.037301
3240.000000	0.037224
3239.000000	0.037170
3238.000000	0.037101
3237.000000	0.037014
3236.000000	0.036929
3235.000000	0.036853
3234.000000	0.036781
3233.000000	0.036722
3232.000000	0.036686
3231.000000	0.036659
3230.000000	0.036622
3229.000000	0.036590
3228.000000	0.036563
3227.000000	0.036502
3226.000000	0.036390
3225.000000	0.036270
3224.000000	0.036191
3223.000000	0.036133
3222.000000	0.036052
3221.000000	0.035960
3220.000000	0.035906
3219.000000	0.035877
3218.000000	0.035823
3217.000000	0.035747
3216.000000	0.035697
3215.000000	0.035687
3214.000000	0.035681
3213.000000	0.035645
3212.000000	0.035578
3211.000000	0.035502
3210.000000	0.035444
3209.000000	0.035424
3208.000000	0.035435
3207.000000	0.035432
3206.000000	0.035381
3205.000000	0.035294
3204.000000	0.035200
3203.000000	0.035100
3202.000000	0.034976
3201.000000	0.034837
3200.000000	0.034714
3199.000000	0.034630
3198.000000	0.034593
3197.000000	0.034586
3196.000000	0.034558
3195.000000	0.034466
3194.000000	0.034322
3193.000000	0.034190
3192.000000	0.034096
3191.000000	0.034004
3190.000000	0.033882
3189.000000	0.033750
3188.000000	0.033643
3187.000000	0.033563
3186.000000	0.033510
3185.000000	0.033493
3184.000000	0.033483
3183.000000	0.033411
3182.000000	0.033259
3181.000000	0.033090
3180.000000	0.032972
3179.000000	0.032912
3178.000000	0.032874
3177.000000	0.032833
3176.000000	0.032760
3175.000000	0.032630
3174.000000	0.032460
3173.000000	0.032314
3172.000000	0.032221
3171.000000	0.032140
3170.000000	0.032023
3169.000000	0.031885
3168.000000	0.031760
3167.000000	0.031654
3166.000000	0.031554
3165.000000	0.031462
3164.000000	0.031370
3163.000000	0.031262
3162.000000	0.031145
3161.000000	0.031049
3160.000000	0.030980
3159.000000	0.030917
3158.000000	0.030852
3157.000000	0.030788
3156.000000	0.030701
3155.000000	0.030564
3154.000000	0.030408
3153.000000	0.030306
3152.000000	0.030274
3151.000000	0.030252
3150.000000	0.030195
3149.000000	0.030119
3148.000000	0.030044
3147.000000	0.029951
3146.000000	0.029824
3145.000000	0.029688
3144.000000	0.029565
3143.000000	0.029449
3142.000000	0.029342
3141.000000	0.029274
3140.000000	0.029263
3139.000000	0.029267
3138.000000	0.029238
3137.000000	0.029177
3136.000000	0.029104
3135.000000	0.029021
3134.000000	0.028942
3133.000000	0.028898
3132.000000	0.028881
3131.000000	0.028842
3130.000000	0.028764
3129.000000	0.028685
3128.000000	0.028620
3127.000000	0.028536
3126.000000	0.028418
3125.000000	0.028303
3124.000000	0.028221
3123.000000	0.028176
3122.000000	0.028155
3121.000000	0.028153
3120.000000	0.028153
3119.000000	0.028136
3118.000000	0.028123
3117.000000	0.028154
3116.000000	0.028219
3115.000000	0.028255
3114.000000	0.028236
3113.000000	0.028192
3112.000000	0.028148
3111.000000	0.028100
3110.000000	0.028066
3109.000000	0.028078
3108.000000	0.028118
3107.000000	0.028137
3106.000000	0.028116
3105.000000	0.028083
3104.000000	0.028063
3103.000000	0.028073
3102.000000	0.028124
3101.000000	0.028205
3100.000000	0.028263
3099.000000	0.028254
3098.000000	0.028202
3097.000000	0.028189
3096.000000	0.028251
3095.000000	0.028338
3094.000000	0.028380
3093.000000	0.028365
3092.000000	0.028317
3091.000000	0.028265
3090.000000	0.028230
3089.000000	0.028222
3088.000000	0.028231
3087.000000	0.028237
3086.000000	0.028241
3085.000000	0.028258
3084.000000	0.028284
3083.000000	0.028295
3082.000000	0.028287
3081.000000	0.028279
3080.000000	0.028286
3079.000000	0.028298
3078.000000	0.028314
3077.000000	0.028335
3076.000000	0.028338
3075.000000	0.028298
3074.000000	0.028232
3073.000000	0.028180
3072.000000	0.028151
3071.000000	0.028119
3070.000000	0.028076
3069.000000	0.028047
3068.000000	0.028043
3067.000000	0.028055
3066.000000	0.028072
3065.000000	0.028096
3064.000000	0.028113
3063.000000	0.028095
3062.000000	0.028030
3061.000000	0.027935
3060.000000	0.027829
3059.000000	0.027723
3058.000000	0.027635
3057.000000	0.027584
3056.000000	0.027561
3055.000000	0.027529
3054.000000	0.027459
3053.000000	0.027358
3052.000000	0.027243
3051.000000	0.027122
3050.000000	0.027002
3049.000000	0.026894
3048.000000	0.026797
3047.000000	0.026692
3046.000000	0.026574
3045.000000	0.026462
3044.000000	0.026367
3043.000000	0.026281
3042.000000	0.026196
3041.000000	0.026124
3040.000000	0.026057
3039.000000	0.025955
3038.000000	0.025808
3037.000000	0.025660
3036.000000	0.025558
3035.000000	0.025495
3034.000000	0.025438
3033.000000	0.025386
3032.000000	0.025357
3031.000000	0.025332
3030.000000	0.025265
3029.000000	0.025136
3028.000000	0.024963
3027.000000	0.024784
3026.000000	0.024641
3025.000000	0.024554
3024.000000	0.024498
3023.000000	0.024433
3022.000000	0.024343
3021.000000	0.024252
3020.000000	0.024196
3019.000000	0.024193
3018.000000	0.024236
3017.000000	0.024300
3016.000000	0.024351
3015.000000	0.024369
3014.000000	0.024365
3013.000000	0.024368
3012.000000	0.024392
3011.000000	0.024417
3010.000000	0.024418
3009.000000	0.024380
3008.000000	0.024299
3007.000000	0.024195
3006.000000	0.024106
3005.000000	0.024062
3004.000000	0.024047
3003.000000	0.024017
3002.000000	0.023960
3001.000000	0.023902
3000.000000	0.023871
2999.000000	0.023878
2998.000000	0.023918
2997.000000	0.023987
2996.000000	0.024066
2995.000000	0.024126
2994.000000	0.024163
2993.000000	0.024200
2992.000000	0.024254
2991.000000	0.024321
2990.000000	0.024395
2989.000000	0.024479
2988.000000	0.024563
2987.000000	0.024619
2986.000000	0.024647
2985.000000	0.024686
2984.000000	0.024770
2983.000000	0.024890
2982.000000	0.025011
2981.000000	0.025109
2980.000000	0.025179
2979.000000	0.025235
2978.000000	0.025292
2977.000000	0.025361
2976.000000	0.025426
2975.000000	0.025456
2974.000000	0.025443
2973.000000	0.025410
2972.000000	0.025392
2971.000000	0.025421
2970.000000	0.025517
2969.000000	0.025684
2968.000000	0.025896
2967.000000	0.026120
2966.000000	0.026352
2965.000000	0.026604
2964.000000	0.026867
2963.000000	0.027105
2962.000000	0.027302
2961.000000	0.027474
2960.000000	0.027636
2959.000000	0.027784
2958.000000	0.027915
2957.000000	0.028035
2956.000000	0.028138
2955.000000	0.028211
2954.000000	0.028254
2953.000000	0.028271
2952.000000	0.028254
2951.000000	0.028201
2950.000000	0.028143
2949.000000	0.028118
2948.000000	0.028120
2947.000000	0.028119
2946.000000	0.028121
2945.000000	0.028165
2944.000000	0.028271
2943.000000	0.028401
2942.000000	0.028517
2941.000000	0.028613
2940.000000	0.028711
2939.000000	0.028840
2938.000000	0.029033
2937.000000	0.029306
2936.000000	0.029629
2935.000000	0.029946
2934.000000	0.030224
2933.000000	0.030460
2932.000000	0.030660
2931.000000	0.030848
2930.000000	0.031077
2929.000000	0.031392
2928.000000	0.031784
2927.000000	0.032199
2926.000000	0.032606
2925.000000	0.032997
2924.000000	0.033355
2923.000000	0.033646
2922.000000	0.033854
2921.000000	0.033983
2920.000000	0.034029
2919.000000	0.033970
2918.000000	0.033797
2917.000000	0.033509
2916.000000	0.033104
2915.000000	0.032593
2914.000000	0.032026
2913.000000	0.031464
2912.000000	0.030937
2911.000000	0.030445
2910.000000	0.030002
2909.000000	0.029636
2908.000000	0.029345
2907.000000	0.029090
2906.000000	0.028843
2905.000000	0.028604
2904.000000	0.028376
2903.000000	0.028165
2902.000000	0.027983
2901.000000	0.027839
2900.000000	0.027711
2899.000000	0.027568
2898.000000	0.027422
2897.000000	0.027306
2896.000000	0.027224
2895.000000	0.027140
2894.000000	0.027036
2893.000000	0.026929
2892.000000	0.026829
2891.000000	0.026727
2890.000000	0.026625
2889.000000	0.026550
2888.000000	0.026519
2887.000000	0.026520
2886.000000	0.026523
2885.000000	0.026500
2884.000000	0.026435
2883.000000	0.026344
2882.000000	0.026269
2881.000000	0.026236
2880.000000	0.026218
2879.000000	0.026168
2878.000000	0.026086
2877.000000	0.026010
2876.000000	0.025966
2875.000000	0.025946
2874.000000	0.025936
2873.000000	0.025923
2872.000000	0.025879
2871.000000	0.025778
2870.000000	0.025630
2869.000000	0.025471
2868.000000	0.025320
2867.000000	0.025177
2866.000000	0.025064
2865.000000	0.025023
2864.000000	0.025080
2863.000000	0.025224
2862.000000	0.025430
2861.000000	0.025666
2860.000000	0.025891
2859.000000	0.026088
2858.000000	0.026288
2857.000000	0.026524
2856.000000	0.026786
2855.000000	0.027033
2854.000000	0.027246
2853.000000	0.027431
2852.000000	0.027578
2851.000000	0.027652
2850.000000	0.027619
2849.000000	0.027458
2848.000000	0.027153
2847.000000	0.026717
2846.000000	0.026220
2845.000000	0.025746
2844.000000	0.025332
2843.000000	0.024967
2842.000000	0.024639
2841.000000	0.024355
2840.000000	0.024105
2839.000000	0.023874
2838.000000	0.023665
2837.000000	0.023493
2836.000000	0.023348
2835.000000	0.023201
2834.000000	0.023055
2833.000000	0.022934
2832.000000	0.022845
2831.000000	0.022767
2830.000000	0.022684
2829.000000	0.022609
2828.000000	0.022554
2827.000000	0.022512
2826.000000	0.022475
2825.000000	0.022440
2824.000000	0.022403
2823.000000	0.022360
2822.000000	0.022312
2821.000000	0.022246
2820.000000	0.022147
2819.000000	0.022021
2818.000000	0.021913
2817.000000	0.021856
2816.000000	0.021827
2815.000000	0.021784
2814.000000	0.021723
2813.000000	0.021667
2812.000000	0.021618
2811.000000	0.021560
2810.000000	0.021497
2809.000000	0.021448
2808.000000	0.021417
2807.000000	0.021387
2806.000000	0.021347
2805.000000	0.021294
2804.000000	0.021225
2803.000000	0.021153
2802.000000	0.021110
2801.000000	0.021115
2800.000000	0.021135
2799.000000	0.021131
2798.000000	0.021109
2797.000000	0.021100
2796.000000	0.021104
2795.000000	0.021090
2794.000000	0.021043
2793.000000	0.020982
2792.000000	0.020920
2791.000000	0.020863
2790.000000	0.020824
2789.000000	0.020818
2788.000000	0.020826
2787.000000	0.020815
2786.000000	0.020784
2785.000000	0.020752
2784.000000	0.020728
2783.000000	0.020698
2782.000000	0.020657
2781.000000	0.020614
2780.000000	0.020570
2779.000000	0.020513
2778.000000	0.020447
2777.000000	0.020387
2776.000000	0.020340
2775.000000	0.020310
2774.000000	0.020304
2773.000000	0.020315
2772.000000	0.020310
2771.000000	0.020263
2770.000000	0.020194
2769.000000	0.020141
2768.000000	0.020110
2767.000000	0.020081
2766.000000	0.020047
2765.000000	0.020017
2764.000000	0.019997
2763.000000	0.019981
2762.000000	0.019973
2761.000000	0.019973
2760.000000	0.019966
2759.000000	0.019937
2758.000000	0.019896
2757.000000	0.019863
2756.000000	0.019834
2755.000000	0.019797
2754.000000	0.019755
2753.000000	0.019719
2752.000000	0.019685
2751.000000	0.019640
2750.000000	0.019588
2749.000000	0.019541
2748.000000	0.019497
2747.000000	0.019467
2746.000000	0.019473
2745.000000	0.019519
2744.000000	0.019568
2743.000000	0.019579
2742.000000	0.019558
2741.000000	0.019531
2740.000000	0.019505
2739.000000	0.019473
2738.000000	0.019438
2737.000000	0.019405
2736.000000	0.019365
2735.000000	0.019321
2734.000000	0.019298
2733.000000	0.019301
2732.000000	0.019296
2731.000000	0.019253
2730.000000	0.019199
2729.000000	0.019179
2728.000000	0.019184
2727.000000	0.019173
2726.000000	0.019134
2725.000000	0.019087
2724.000000	0.019041
2723.000000	0.018999
2722.000000	0.018982
2721.000000	0.019013
2720.000000	0.019071
2719.000000	0.019102
2718.000000	0.019086
2717.000000	0.019043
2716.000000	0.018998
2715.000000	0.018958
2714.000000	0.018929
2713.000000	0.018911
2712.000000	0.018890
2711.000000	0.018856
2710.000000	0.018824
2709.000000	0.018812
2708.000000	0.018812
2707.000000	0.018810
2706.000000	0.018809
2705.000000	0.018814
2704.000000	0.018803
2703.000000	0.018758
2702.000000	0.018698
2701.000000	0.018661
2700.000000	0.018653
2699.000000	0.018650
2698.000000	0.018642
2697.000000	0.018629
2696.000000	0.018599
2695.000000	0.018552
2694.000000	0.018516
2693.000000	0.018520
2692.000000	0.018548
2691.000000	0.018561
2690.000000	0.018546
2689.000000	0.018521
2688.000000	0.018497
2687.000000	0.018474
2686.000000	0.018465
2685.000000	0.018482
2684.000000	0.018508
2683.000000	0.018517
2682.000000	0.018509
2681.000000	0.018497
2680.000000	0.018481
2679.000000	0.018453
2678.000000	0.018421
2677.000000	0.018400
2676.000000	0.018385
2675.000000	0.018361
2674.000000	0.018328
2673.000000	0.018297
2672.000000	0.018265
2671.000000	0.018226
2670.000000	0.018192
2669.000000	0.018169
2668.000000	0.018139
2667.000000	0.018085
2666.000000	0.018010
2665.000000	0.017914
2664.000000	0.017771
2663.000000	0.017566
2662.000000	0.017335
2661.000000	0.017135
2660.000000	0.016981
2659.000000	0.016852
2658.000000	0.016733
2657.000000	0.016626
2656.000000	0.016525
2655.000000	0.016420
2654.000000	0.016311
2653.000000	0.016202
2652.000000	0.016091
2651.000000	0.015987
2650.000000	0.015922
2649.000000	0.015904
2648.000000	0.015897
2647.000000	0.015857
2646.000000	0.015788
2645.000000	0.015714
2644.000000	0.015640
2643.000000	0.015569
2642.000000	0.015524
2641.000000	0.015517
2640.000000	0.015515
2639.000000	0.015481
2638.000000	0.015425
2637.000000	0.015378
2636.000000	0.015339
2635.000000	0.015290
2634.000000	0.015244
2633.000000	0.015224
2632.000000	0.015214
2631.000000	0.015182
2630.000000	0.015125
2629.000000	0.015060
2628.000000	0.015001
2627.000000	0.014964
2626.000000	0.014974
2625.000000	0.015015
2624.000000	0.015026
2623.000000	0.014965
2622.000000	0.014875
2621.000000	0.014820
2620.000000	0.014810
2619.000000	0.014818
2618.000000	0.014841
2617.000000	0.014881
2616.000000	0.014914
2615.000000	0.014925
2614.000000	0.014937
2613.000000	0.014955
2612.000000	0.014940
2611.000000	0.014878
2610.000000	0.014842
2609.000000	0.014900
2608.000000	0.015012
2607.000000	0.015090
2606.000000	0.015101
2605.000000	0.015079
2604.000000	0.015043
2603.000000	0.015000
2602.000000	0.014979
2601.000000	0.014997
2600.000000	0.015009
2599.000000	0.014965
2598.000000	0.014891
2597.000000	0.014847
2596.000000	0.014849
2595.000000	0.014864
2594.000000	0.014876
2593.000000	0.014885
2592.000000	0.014880
2591.000000	0.014863
2590.000000	0.014868
2589.000000	0.014899
2588.000000	0.014903
2587.000000	0.014855
2586.000000	0.014820
2585.000000	0.014856
2584.000000	0.014925
2583.000000	0.014950
2582.000000	0.014934
2581.000000	0.014926
2580.000000	0.014933
2579.000000	0.014942
2578.000000	0.014975
2577.000000	0.015052
2576.000000	0.015123
2575.000000	0.015126
2574.000000	0.015080
2573.000000	0.015043
2572.000000	0.015025
2571.000000	0.015001
2570.000000	0.014966
2569.000000	0.014928
2568.000000	0.014884
2567.000000	0.014860
2566.000000	0.014916
2565.000000	0.015053
2564.000000	0.015176
2563.000000	0.015208
2562.000000	0.015190
2561.000000	0.015186
2560.000000	0.015180
2559.000000	0.015134
2558.000000	0.015085
2557.000000	0.015079
2556.000000	0.015078
2555.000000	0.015037
2554.000000	0.015004
2553.000000	0.015046
2552.000000	0.015124
2551.000000	0.015146
2550.000000	0.015105
2549.000000	0.015070
2548.000000	0.015072
2547.000000	0.015085
2546.000000	0.015093
2545.000000	0.015088
2544.000000	0.015054
2543.000000	0.015004
2542.000000	0.015009
2541.000000	0.015103
2540.000000	0.015202
2539.000000	0.015209
2538.000000	0.015138
2537.000000	0.015076
2536.000000	0.015054
2535.000000	0.015044
2534.000000	0.015028
2533.000000	0.014998
2532.000000	0.014929
2531.000000	0.014842
2530.000000	0.014814
2529.000000	0.014878
2528.000000	0.014956
2527.000000	0.014970
2526.000000	0.014961
2525.000000	0.015004
2524.000000	0.015086
2523.000000	0.015138
2522.000000	0.015152
2521.000000	0.015142
2520.000000	0.015081
2519.000000	0.014962
2518.000000	0.014867
2517.000000	0.014879
2516.000000	0.014956
2515.000000	0.015006
2514.000000	0.015018
2513.000000	0.015048
2512.000000	0.015108
2511.000000	0.015160
2510.000000	0.015191
2509.000000	0.015202
2508.000000	0.015170
2507.000000	0.015096
2506.000000	0.015042
2505.000000	0.015053
2504.000000	0.015081
2503.000000	0.015057
2502.000000	0.014992
2501.000000	0.014933
2500.000000	0.014877
2499.000000	0.014823
2498.000000	0.014823
2497.000000	0.014914
2496.000000	0.015029
2495.000000	0.015076
2494.000000	0.015048
2493.000000	0.014991
2492.000000	0.014910
2491.000000	0.014800
2490.000000	0.014705
2489.000000	0.014675
2488.000000	0.014697
2487.000000	0.014731
2486.000000	0.014780
2485.000000	0.014846
2484.000000	0.014883
2483.000000	0.014864
2482.000000	0.014839
2481.000000	0.014865
2480.000000	0.014921
2479.000000	0.014962
2478.000000	0.014995
2477.000000	0.015029
2476.000000	0.015023
2475.000000	0.014953
2474.000000	0.014868
2473.000000	0.014807
2472.000000	0.014740
2471.000000	0.014655
2470.000000	0.014618
2469.000000	0.014673
2468.000000	0.014751
2467.000000	0.014756
2466.000000	0.014692
2465.000000	0.014631
2464.000000	0.014605
2463.000000	0.014614
2462.000000	0.014661
2461.000000	0.014717
2460.000000	0.014697
2459.000000	0.014580
2458.000000	0.014456
2457.000000	0.014401
2456.000000	0.014377
2455.000000	0.014317
2454.000000	0.014242
2453.000000	0.014195
2452.000000	0.014152
2451.000000	0.014093
2450.000000	0.014073
2449.000000	0.014127
2448.000000	0.014178
2447.000000	0.014160
2446.000000	0.014136
2445.000000	0.014207
2444.000000	0.014340
2443.000000	0.014430
2442.000000	0.014463
2441.000000	0.014509
2440.000000	0.014598
2439.000000	0.014689
2438.000000	0.014743
2437.000000	0.014731
2436.000000	0.014643
2435.000000	0.014535
2434.000000	0.014518
2433.000000	0.014626
2432.000000	0.014756
2431.000000	0.014820
2430.000000	0.014864
2429.000000	0.014952
2428.000000	0.015033
2427.000000	0.015024
2426.000000	0.014955
2425.000000	0.014913
2424.000000	0.014911
2423.000000	0.014918
2422.000000	0.014952
2421.000000	0.015030
2420.000000	0.015097
2419.000000	0.015090
2418.000000	0.015037
2417.000000	0.015002
2416.000000	0.014986
2415.000000	0.014957
2414.000000	0.014926
2413.000000	0.014903
2412.000000	0.014854
2411.000000	0.014768
2410.000000	0.014726
2409.000000	0.014805
2408.000000	0.014971
2407.000000	0.015150
2406.000000	0.015321
2405.000000	0.015472
2404.000000	0.015545
2403.000000	0.015526
2402.000000	0.015499
2401.000000	0.015523
2400.000000	0.015542
2399.000000	0.015496
2398.000000	0.015436
2397.000000	0.015431
2396.000000	0.015436
2395.000000	0.015387
2394.000000	0.015337
2393.000000	0.015378
2392.000000	0.015482
2391.000000	0.015542
2390.000000	0.015541
2389.000000	0.015548
2388.000000	0.015589
2387.000000	0.015629
2386.000000	0.015664
2385.000000	0.015719
2384.000000	0.015774
2383.000000	0.015809
2382.000000	0.015856
2381.000000	0.015950
2380.000000	0.016040
2379.000000	0.016025
2378.000000	0.015893
2377.000000	0.015694
2376.000000	0.015452
2375.000000	0.015190
2374.000000	0.015000
2373.000000	0.014963
2372.000000	0.015003
2371.000000	0.015000
2370.000000	0.014980
2369.000000	0.015062
2368.000000	0.015217
2367.000000	0.015293
2366.000000	0.015275
2365.000000	0.015257
2364.000000	0.015207
2363.000000	0.014955
2362.000000	0.014564
2361.000000	0.014359
2360.000000	0.014392
2359.000000	0.014445
2358.000000	0.014435
2357.000000	0.014469
2356.000000	0.014724
2355.000000	0.015167
2354.000000	0.015699
2353.000000	0.016096
2352.000000	0.015633
2351.000000	0.013698
2350.000000	0.010706
2349.000000	0.008335
2348.000000	0.008260
2347.000000	0.010774
2346.000000	0.014480
2345.000000	0.016887
2344.000000	0.016633
2343.000000	0.014749
2342.000000	0.013175
2341.000000	0.012742
2340.000000	0.012760
2339.000000	0.012750
2338.000000	0.012700
2337.000000	0.012698
2336.000000	0.012702
2335.000000	0.012695
2334.000000	0.012877
2333.000000	0.013321
2332.000000	0.013894
2331.000000	0.014249
2330.000000	0.014212
2329.000000	0.013730
2328.000000	0.012979
2327.000000	0.011974
2326.000000	0.011066
2325.000000	0.010382
2324.000000	0.010157
2323.000000	0.010295
2322.000000	0.010634
2321.000000	0.010982
2320.000000	0.011162
2319.000000	0.011215
2318.000000	0.011216
2317.000000	0.011302
2316.000000	0.011575
2315.000000	0.012023
2314.000000	0.012552
2313.000000	0.012847
2312.000000	0.012808
2311.000000	0.012479
2310.000000	0.012185
2309.000000	0.011972
2308.000000	0.011849
2307.000000	0.011710
2306.000000	0.011668
2305.000000	0.011685
2304.000000	0.011739
2303.000000	0.011749
2302.000000	0.011771
2301.000000	0.011768
2300.000000	0.011712
2299.000000	0.011592
2298.000000	0.011539
2297.000000	0.011553
2296.000000	0.011581
2295.000000	0.011547
2294.000000	0.011507
2293.000000	0.011420
2292.000000	0.011233
2291.000000	0.010951
2290.000000	0.010735
2289.000000	0.010648
2288.000000	0.010601
2287.000000	0.010500
2286.000000	0.010378
2285.000000	0.010307
2284.000000	0.010294
2283.000000	0.010366
2282.000000	0.010566
2281.000000	0.010839
2280.000000	0.011039
2279.000000	0.011150
2278.000000	0.011293
2277.000000	0.011499
2276.000000	0.011636
2275.000000	0.011659
2274.000000	0.011684
2273.000000	0.011763
2272.000000	0.011798
2271.000000	0.011748
2270.000000	0.011727
2269.000000	0.011780
2268.000000	0.011804
2267.000000	0.011780
2266.000000	0.011840
2265.000000	0.012019
2264.000000	0.012160
2263.000000	0.012178
2262.000000	0.012185
2261.000000	0.012228
2260.000000	0.012187
2259.000000	0.012019
2258.000000	0.011884
2257.000000	0.011899
2256.000000	0.011995
2255.000000	0.012136
2254.000000	0.012392
2253.000000	0.012689
2252.000000	0.012776
2251.000000	0.012582
2250.000000	0.012325
2249.000000	0.012150
2248.000000	0.011954
2247.000000	0.011691
2246.000000	0.011559
2245.000000	0.011680
2244.000000	0.011888
2243.000000	0.011988
2242.000000	0.011987
2241.000000	0.011923
2240.000000	0.011761
2239.000000	0.011583
2238.000000	0.011607
2237.000000	0.011825
2236.000000	0.011947
2235.000000	0.011845
2234.000000	0.011738
2233.000000	0.011799
2232.000000	0.011904
2231.000000	0.011948
2230.000000	0.012053
2229.000000	0.012268
2228.000000	0.012415
2227.000000	0.012413
2226.000000	0.012420
2225.000000	0.012493
2224.000000	0.012451
2223.000000	0.012262
2222.000000	0.012179
2221.000000	0.012314
2220.000000	0.012430
2219.000000	0.012367
2218.000000	0.012280
2217.000000	0.012284
2216.000000	0.012234
2215.000000	0.012069
2214.000000	0.011983
2213.000000	0.012027
2212.000000	0.011959
2211.000000	0.011683
2210.000000	0.011431
2209.000000	0.011329
2208.000000	0.011195
2207.000000	0.010977
2206.000000	0.010946
2205.000000	0.011227
2204.000000	0.011564
2203.000000	0.011776
2202.000000	0.011994
2201.000000	0.012236
2200.000000	0.012227
2199.000000	0.011892
2198.000000	0.011555
2197.000000	0.011424
2196.000000	0.011310
2195.000000	0.011090
2194.000000	0.010959
2193.000000	0.010981
2192.000000	0.010898
2191.000000	0.010649
2190.000000	0.010571
2189.000000	0.010815
2188.000000	0.011059
2187.000000	0.011047
2186.000000	0.010932
2185.000000	0.010864
2184.000000	0.010799
2183.000000	0.010908
2182.000000	0.011520
2181.000000	0.012369
2180.000000	0.012655
2179.000000	0.012150
2178.000000	0.011564
2177.000000	0.011536
2176.000000	0.011899
2175.000000	0.012250
2174.000000	0.012510
2173.000000	0.012585
2172.000000	0.012174
2171.000000	0.011296
2170.000000	0.010419
2169.000000	0.009772
2168.000000	0.009096
2167.000000	0.008361
2166.000000	0.007993
2165.000000	0.008027
2164.000000	0.007769
2163.000000	0.006877
2162.000000	0.006106
2161.000000	0.006534
2160.000000	0.008538
2159.000000	0.011820
2158.000000	0.015612
2157.000000	0.018610
2156.000000	0.019812
2155.000000	0.019537
2154.000000	0.018867
2153.000000	0.018251
2152.000000	0.017397
2151.000000	0.016326
2150.000000	0.015607
2149.000000	0.015447
2148.000000	0.015425
2147.000000	0.015355
2146.000000	0.015581
2145.000000	0.016167
2144.000000	0.016606
2143.000000	0.016594
2142.000000	0.016381
2141.000000	0.016184
2140.000000	0.015909
2139.000000	0.015616
2138.000000	0.015654
2137.000000	0.016098
2136.000000	0.016635
2135.000000	0.017107
2134.000000	0.017618
2133.000000	0.018027
2132.000000	0.017974
2131.000000	0.017497
2130.000000	0.017044
2129.000000	0.016808
2128.000000	0.016535
2127.000000	0.016089
2126.000000	0.015695
2125.000000	0.015476
2124.000000	0.015254
2123.000000	0.014946
2122.000000	0.014721
2121.000000	0.014621
2120.000000	0.014439
2119.000000	0.014129
2118.000000	0.013911
2117.000000	0.013830
2116.000000	0.013636
2115.000000	0.013258
2114.000000	0.012984
2113.000000	0.012963
2112.000000	0.012976
2111.000000	0.012868
2110.000000	0.012821
2109.000000	0.012947
2108.000000	0.013044
2107.000000	0.012980
2106.000000	0.012940
2105.000000	0.013067
2104.000000	0.013212
2103.000000	0.013244
2102.000000	0.013231
2101.000000	0.013161
2100.000000	0.012883
2099.000000	0.012494
2098.000000	0.012382
2097.000000	0.012693
2096.000000	0.013122
2095.000000	0.013428
2094.000000	0.013679
2093.000000	0.013857
2092.000000	0.013731
2091.000000	0.013310
2090.000000	0.012953
2089.000000	0.012844
2088.000000	0.012766
2087.000000	0.012566
2086.000000	0.012405
2085.000000	0.012343
2084.000000	0.012140
2083.000000	0.011707
2082.000000	0.011320
2081.000000	0.011165
2080.000000	0.011093
2079.000000	0.011008
2078.000000	0.011071
2077.000000	0.011286
2076.000000	0.011353
2075.000000	0.011190
2074.000000	0.011073
2073.000000	0.011114
2072.000000	0.011066
2071.000000	0.010846
2070.000000	0.010751
2069.000000	0.010888
2068.000000	0.010957
2067.000000	0.010841
2066.000000	0.010843
2065.000000	0.011082
2064.000000	0.011201
2063.000000	0.010999
2062.000000	0.010764
2061.000000	0.010711
2060.000000	0.010655
2059.000000	0.010476
2058.000000	0.010350
2057.000000	0.010285
2056.000000	0.010024
2055.000000	0.009585
2054.000000	0.009213
2053.000000	0.008720
2052.000000	0.007642
2051.000000	0.006266
2050.000000	0.005718
2049.000000	0.006544
2048.000000	0.007878
2047.000000	0.008718
2046.000000	0.009080
2045.000000	0.009257
2044.000000	0.009067
2043.000000	0.008542
2042.000000	0.008337
2041.000000	0.008693
2040.000000	0.008907
2039.000000	0.008561
2038.000000	0.008236
2037.000000	0.008396
2036.000000	0.008598
2035.000000	0.008550
2034.000000	0.008834
2033.000000	0.009721
2032.000000	0.010444
2031.000000	0.010538
2030.000000	0.010608
2029.000000	0.011095
2028.000000	0.011426
2027.000000	0.011188
2026.000000	0.010904
2025.000000	0.010991
2024.000000	0.011080
2023.000000	0.010973
2022.000000	0.011166
2021.000000	0.011749
2020.000000	0.011972
2019.000000	0.011522
2018.000000	0.011097
2017.000000	0.011119
2016.000000	0.011065
2015.000000	0.010698
2014.000000	0.010627
2013.000000	0.011063
2012.000000	0.011297
2011.000000	0.011005
2010.000000	0.010885
2009.000000	0.011431
2008.000000	0.012177
2007.000000	0.012772
2006.000000	0.013518
2005.000000	0.014340
2004.000000	0.014567
2003.000000	0.014093
2002.000000	0.013657
2001.000000	0.013474
2000.000000	0.012958
1999.000000	0.012002
1998.000000	0.011293
1997.000000	0.011176
1996.000000	0.011141
1995.000000	0.010858
1994.000000	0.010695
1993.000000	0.010846
1992.000000	0.010858
1991.000000	0.010571
1990.000000	0.010515
1989.000000	0.010840
1988.000000	0.010926
1987.000000	0.010515
1986.000000	0.010171
1985.000000	0.010149
1984.000000	0.009860
1983.000000	0.008914
1982.000000	0.007826
1981.000000	0.007069
1980.000000	0.006586
1979.000000	0.006607
1978.000000	0.007768
1977.000000	0.009817
1976.000000	0.011395
1975.000000	0.011903
1974.000000	0.012086
1973.000000	0.012497
1972.000000	0.012731
1971.000000	0.012548
1970.000000	0.012429
1969.000000	0.012570
1968.000000	0.012502
1967.000000	0.012128
1966.000000	0.012052
1965.000000	0.012439
1964.000000	0.012677
1963.000000	0.012550
1962.000000	0.012659
1961.000000	0.013344
1960.000000	0.014141
1959.000000	0.014642
1958.000000	0.014960
1957.000000	0.015079
1956.000000	0.014663
1955.000000	0.013821
1954.000000	0.013148
1953.000000	0.012904
1952.000000	0.012739
1951.000000	0.012515
1950.000000	0.012637
1949.000000	0.013123
1948.000000	0.013383
1947.000000	0.013194
1946.000000	0.013002
1945.000000	0.013072
1944.000000	0.013095
1943.000000	0.012923
1942.000000	0.012863
1941.000000	0.012971
1940.000000	0.012952
1939.000000	0.012770
1938.000000	0.012750
1937.000000	0.012986
1936.000000	0.013181
1935.000000	0.013226
1934.000000	0.013331
1933.000000	0.013547
1932.000000	0.013538
1931.000000	0.013232
1930.000000	0.013107
1929.000000	0.013208
1928.000000	0.013197
1927.000000	0.012941
1926.000000	0.012836
1925.000000	0.013072
1924.000000	0.013156
1923.000000	0.012868
1922.000000	0.012580
1921.000000	0.012489
1920.000000	0.012315
1919.000000	0.011945
1918.000000	0.011817
1917.000000	0.012033
1916.000000	0.012137
1915.000000	0.012037
1914.000000	0.012013
1913.000000	0.012120
1912.000000	0.012076
1911.000000	0.011906
1910.000000	0.012038
1909.000000	0.012379
1908.000000	0.012487
1907.000000	0.012245
1906.000000	0.012069
1905.000000	0.012122
1904.000000	0.011948
1903.000000	0.011589
1902.000000	0.011627
1901.000000	0.012012
1900.000000	0.012155
1899.000000	0.011872
1898.000000	0.011634
1897.000000	0.011690
1896.000000	0.011618
1895.000000	0.011290
1894.000000	0.011150
1893.000000	0.011318
1892.000000	0.011367
1891.000000	0.011169
1890.000000	0.011179
1889.000000	0.011484
1888.000000	0.011589
1887.000000	0.011474
1886.000000	0.011569
1885.000000	0.011865
1884.000000	0.011861
1883.000000	0.011553
1882.000000	0.011487
1881.000000	0.011685
1880.000000	0.011699
1879.000000	0.011460
1878.000000	0.011337
1877.000000	0.011472
1876.000000	0.011463
1875.000000	0.011136
1874.000000	0.010955
1873.000000	0.011141
1872.000000	0.011223
1871.000000	0.010879
1870.000000	0.010591
1869.000000	0.010835
1868.000000	0.011140
1867.000000	0.011180
1866.000000	0.011381
1865.000000	0.011767
1864.000000	0.011813
1863.000000	0.011450
1862.000000	0.011252
1861.000000	0.011401
1860.000000	0.011401
1859.000000	0.011088
1858.000000	0.010939
1857.000000	0.011109
1856.000000	0.011150
1855.000000	0.010912
1854.000000	0.010918
1853.000000	0.011153
1852.000000	0.011239
1851.000000	0.011165
1850.000000	0.011109
1849.000000	0.011120
1848.000000	0.011040
1847.000000	0.010940
1846.000000	0.010967
1845.000000	0.011000
1844.000000	0.010831
1843.000000	0.010553
1842.000000	0.010696
1841.000000	0.011200
1840.000000	0.011457
1839.000000	0.011214
1838.000000	0.010994
1837.000000	0.011102
1836.000000	0.011106
1835.000000	0.010844
1834.000000	0.010670
1833.000000	0.010631
1832.000000	0.010542
1831.000000	0.010318
1830.000000	0.010197
1829.000000	0.010283
1828.000000	0.010378
1827.000000	0.010440
1826.000000	0.010515
1825.000000	0.010729
1824.000000	0.010868
1823.000000	0.010748
1822.000000	0.010679
1821.000000	0.010873
1820.000000	0.011193
1819.000000	0.011362
1818.000000	0.011617
1817.000000	0.012144
1816.000000	0.012339
1815.000000	0.011933
1814.000000	0.011388
1813.000000	0.011259
1812.000000	0.011356
1811.000000	0.011121
1810.000000	0.010890
1809.000000	0.011040
1808.000000	0.011088
1807.000000	0.010718
1806.000000	0.010377
1805.000000	0.010412
1804.000000	0.010318
1803.000000	0.009898
1802.000000	0.009576
1801.000000	0.009782
1800.000000	0.010121
1799.000000	0.010074
1798.000000	0.009993
1797.000000	0.010164
1796.000000	0.010208
1795.000000	0.009917
1794.000000	0.009476
1793.000000	0.009375
1792.000000	0.009537
1791.000000	0.009454
1790.000000	0.009464
1789.000000	0.009818
1788.000000	0.010008
1787.000000	0.009716
1786.000000	0.009410
1785.000000	0.009445
1784.000000	0.009329
1783.000000	0.009162
1782.000000	0.009153
1781.000000	0.009333
1780.000000	0.009537
1779.000000	0.009460
1778.000000	0.009344
1777.000000	0.009293
1776.000000	0.009347
1775.000000	0.009415
1774.000000	0.009006
1773.000000	0.008252
1772.000000	0.008054
1771.000000	0.008157
1770.000000	0.008370
1769.000000	0.008797
1768.000000	0.008999
1767.000000	0.008734
1766.000000	0.008293
1765.000000	0.008226
1764.000000	0.008338
1763.000000	0.008176
1762.000000	0.007710
1761.000000	0.007438
1760.000000	0.007507
1759.000000	0.007713
1758.000000	0.007824
1757.000000	0.007677
1756.000000	0.007607
1755.000000	0.007690
1754.000000	0.007723
1753.000000	0.007448
1752.000000	0.007205
1751.000000	0.007250
1750.000000	0.007537
1749.000000	0.008025
1748.000000	0.008542
1747.000000	0.008933
1746.000000	0.008813
1745.000000	0.008494
1744.000000	0.008475
1743.000000	0.008511
1742.000000	0.008269
1741.000000	0.008022
1740.000000	0.007869
1739.000000	0.007623
1738.000000	0.007483
1737.000000	0.007862
1736.000000	0.008033
1735.000000	0.007367
1734.000000	0.007125
1733.000000	0.007094
1732.000000	0.007274
1731.000000	0.007924
1730.000000	0.008566
1729.000000	0.008703
1728.000000	0.008464
1727.000000	0.008295
1726.000000	0.008114
1725.000000	0.008100
1724.000000	0.008176
1723.000000	0.007954
1722.000000	0.007771
1721.000000	0.008062
1720.000000	0.008345
1719.000000	0.007818
1718.000000	0.007465
1717.000000	0.008236
1716.000000	0.008821
1715.000000	0.008887
1714.000000	0.009377
1713.000000	0.010355
1712.000000	0.010938
1711.000000	0.010942
1710.000000	0.011048
1709.000000	0.011483
1708.000000	0.011985
1707.000000	0.012351
1706.000000	0.013067
1705.000000	0.014269
1704.000000	0.015181
1703.000000	0.015807
1702.000000	0.015943
1701.000000	0.015956
1700.000000	0.016896
1699.000000	0.017597
1698.000000	0.019443
1697.000000	0.022294
1696.000000	0.023943
1695.000000	0.023758
1694.000000	0.023600
1693.000000	0.024862
1692.000000	0.026519
1691.000000	0.027538
1690.000000	0.028408
1689.000000	0.029573
1688.000000	0.031178
1687.000000	0.032579
1686.000000	0.032800
1685.000000	0.032627
1684.000000	0.033953
1683.000000	0.035451
1682.000000	0.036986
1681.000000	0.038743
1680.000000	0.040291
1679.000000	0.041567
1678.000000	0.042647
1677.000000	0.043487
1676.000000	0.044353
1675.000000	0.045831
1674.000000	0.047162
1673.000000	0.048423
1672.000000	0.050038
1671.000000	0.051889
1670.000000	0.053956
1669.000000	0.055802
1668.000000	0.057213
1667.000000	0.058595
1666.000000	0.059953
1665.000000	0.061157
1664.000000	0.062154
1663.000000	0.063598
1662.000000	0.065395
1661.000000	0.066698
1660.000000	0.067908
1659.000000	0.069271
1658.000000	0.070381
1657.000000	0.071311
1656.000000	0.072691
1655.000000	0.073604
1654.000000	0.073644
1653.000000	0.075059
1652.000000	0.074469
1651.000000	0.073629
1650.000000	0.074659
1649.000000	0.076430
1648.000000	0.077801
1647.000000	0.078937
1646.000000	0.079527
1645.000000	0.079443
1644.000000	0.079395
1643.000000	0.079769
1642.000000	0.080308
1641.000000	0.080408
1640.000000	0.080316
1639.000000	0.080334
1638.000000	0.080516
1637.000000	0.080531
1636.000000	0.080805
1635.000000	0.080932
1634.000000	0.080364
1633.000000	0.080138
1632.000000	0.080161
1631.000000	0.079943
1630.000000	0.079421
1629.000000	0.078734
1628.000000	0.077842
1627.000000	0.076914
1626.000000	0.075932
1625.000000	0.074673
1624.000000	0.073176
1623.000000	0.071865
1622.000000	0.070646
1621.000000	0.069310
1620.000000	0.068299
1619.000000	0.067452
1618.000000	0.066007
1617.000000	0.063642
1616.000000	0.061017
1615.000000	0.059127
1614.000000	0.058256
1613.000000	0.057514
1612.000000	0.056163
1611.000000	0.054759
1610.000000	0.053786
1609.000000	0.052814
1608.000000	0.051584
1607.000000	0.050594
1606.000000	0.049797
1605.000000	0.048670
1604.000000	0.047511
1603.000000	0.046758
1602.000000	0.046187
1601.000000	0.045397
1600.000000	0.044549
1599.000000	0.044018
1598.000000	0.043645
1597.000000	0.043136
1596.000000	0.042614
1595.000000	0.042400
1594.000000	0.042392
1593.000000	0.042196
1592.000000	0.041838
1591.000000	0.041709
1590.000000	0.041845
1589.000000	0.041883
1588.000000	0.041807
1587.000000	0.041942
1586.000000	0.042374
1585.000000	0.042509
1584.000000	0.042465
1583.000000	0.042919
1582.000000	0.043598
1581.000000	0.043864
1580.000000	0.044133
1579.000000	0.045049
1578.000000	0.045956
1577.000000	0.046114
1576.000000	0.046015
1575.000000	0.046194
1574.000000	0.046720
1573.000000	0.047503
1572.000000	0.048212
1571.000000	0.048724
1570.000000	0.049580
1569.000000	0.050346
1568.000000	0.050983
1567.000000	0.052060
1566.000000	0.053368
1565.000000	0.054215
1564.000000	0.055048
1563.000000	0.056343
1562.000000	0.057593
1561.000000	0.056489
1560.000000	0.054294
1559.000000	0.056887
1558.000000	0.059711
1557.000000	0.060005
1556.000000	0.060872
1555.000000	0.062444
1554.000000	0.063331
1553.000000	0.063412
1552.000000	0.063941
1551.000000	0.064957
1550.000000	0.065897
1549.000000	0.066307
1548.000000	0.066363
1547.000000	0.066537
1546.000000	0.066753
1545.000000	0.066853
1544.000000	0.067079
1543.000000	0.067210
1542.000000	0.067110
1541.000000	0.067411
1540.000000	0.068262
1539.000000	0.068098
1538.000000	0.066942
1537.000000	0.066454
1536.000000	0.066527
1535.000000	0.066438
1534.000000	0.066089
1533.000000	0.065879
1532.000000	0.065558
1531.000000	0.065035
1530.000000	0.064605
1529.000000	0.064328
1528.000000	0.063931
1527.000000	0.063366
1526.000000	0.062716
1525.000000	0.062125
1524.000000	0.061777
1523.000000	0.061388
1522.000000	0.060847
1521.000000	0.060069
1520.000000	0.058828
1519.000000	0.057979
1518.000000	0.057837
1517.000000	0.058024
1516.000000	0.057820
1515.000000	0.057088
1514.000000	0.056264
1513.000000	0.055577
1512.000000	0.054744
1511.000000	0.053575
1510.000000	0.052502
1509.000000	0.051763
1508.000000	0.051249
1507.000000	0.050881
1506.000000	0.049668
1505.000000	0.047473
1504.000000	0.046102
1503.000000	0.045554
1502.000000	0.044910
1501.000000	0.043861
1500.000000	0.042692
1499.000000	0.041507
1498.000000	0.040401
1497.000000	0.039997
1496.000000	0.039808
1495.000000	0.039167
1494.000000	0.038630
1493.000000	0.038606
1492.000000	0.038487
1491.000000	0.037868
1490.000000	0.037397
1489.000000	0.037513
1488.000000	0.037438
1487.000000	0.036716
1486.000000	0.036141
1485.000000	0.035748
1484.000000	0.035338
1483.000000	0.035009
1482.000000	0.034894
1481.000000	0.035022
1480.000000	0.035031
1479.000000	0.034832
1478.000000	0.034710
1477.000000	0.035023
1476.000000	0.035442
1475.000000	0.035755
1474.000000	0.036296
1473.000000	0.037423
1472.000000	0.038659
1471.000000	0.039247
1470.000000	0.039698
1469.000000	0.040488
1468.000000	0.041148
1467.000000	0.041372
1466.000000	0.041584
1465.000000	0.042178
1464.000000	0.043026
1463.000000	0.043538
1462.000000	0.043824
1461.000000	0.044207
1460.000000	0.044714
1459.000000	0.045006
1458.000000	0.045293
1457.000000	0.046260
1456.000000	0.046962
1455.000000	0.047338
1454.000000	0.048078
1453.000000	0.048984
1452.000000	0.049670
1451.000000	0.049928
1450.000000	0.049925
1449.000000	0.050122
1448.000000	0.050384
1447.000000	0.050461
1446.000000	0.050139
1445.000000	0.049665
1444.000000	0.049569
1443.000000	0.049486
1442.000000	0.049017
1441.000000	0.048440
1440.000000	0.048285
1439.000000	0.048071
1438.000000	0.047190
1437.000000	0.046335
1436.000000	0.046164
1435.000000	0.046076
1434.000000	0.045856
1433.000000	0.045692
1432.000000	0.045571
1431.000000	0.045318
1430.000000	0.044845
1429.000000	0.044503
1428.000000	0.044273
1427.000000	0.044096
1426.000000	0.043812
1425.000000	0.043482
1424.000000	0.043691
1423.000000	0.044120
1422.000000	0.044094
1421.000000	0.043506
1420.000000	0.043008
1419.000000	0.043005
1418.000000	0.042944
1417.000000	0.043036
1416.000000	0.043626
1415.000000	0.044085
1414.000000	0.043879
1413.000000	0.043462
1412.000000	0.043548
1411.000000	0.043865
1410.000000	0.043780
1409.000000	0.043561
1408.000000	0.043562
1407.000000	0.043754
1406.000000	0.043937
1405.000000	0.044123
1404.000000	0.044513
1403.000000	0.044783
1402.000000	0.044666
1401.000000	0.044341
1400.000000	0.044226
1399.000000	0.044325
1398.000000	0.044255
1397.000000	0.044111
1396.000000	0.044083
1395.000000	0.044063
1394.000000	0.043608
1393.000000	0.042849
1392.000000	0.042443
1391.000000	0.042341
1390.000000	0.042020
1389.000000	0.041389
1388.000000	0.040789
1387.000000	0.040399
1386.000000	0.040065
1385.000000	0.039761
1384.000000	0.039642
1383.000000	0.039494
1382.000000	0.039099
1381.000000	0.038573
1380.000000	0.038086
1379.000000	0.037655
1378.000000	0.037168
1377.000000	0.036619
1376.000000	0.036151
1375.000000	0.035943
1374.000000	0.035792
1373.000000	0.035398
1372.000000	0.034801
1371.000000	0.034291
1370.000000	0.033904
1369.000000	0.033433
1368.000000	0.032894
1367.000000	0.032341
1366.000000	0.031757
1365.000000	0.031204
1364.000000	0.030842
1363.000000	0.030748
1362.000000	0.030731
1361.000000	0.030585
1360.000000	0.030378
1359.000000	0.030239
1358.000000	0.030142
1357.000000	0.030037
1356.000000	0.029981
1355.000000	0.030032
1354.000000	0.030129
1353.000000	0.030273
1352.000000	0.030423
1351.000000	0.030650
1350.000000	0.030976
1349.000000	0.031297
1348.000000	0.031637
1347.000000	0.032028
1346.000000	0.032416
1345.000000	0.032716
1344.000000	0.032944
1343.000000	0.033183
1342.000000	0.033490
1341.000000	0.033904
1340.000000	0.034450
1339.000000	0.035011
1338.000000	0.035354
1337.000000	0.035420
1336.000000	0.035341
1335.000000	0.035207
1334.000000	0.035019
1333.000000	0.034795
1332.000000	0.034596
1331.000000	0.034429
1330.000000	0.034204
1329.000000	0.033887
1328.000000	0.033561
1327.000000	0.033320
1326.000000	0.033127
1325.000000	0.032909
1324.000000	0.032732
1323.000000	0.032636
1322.000000	0.032547
1321.000000	0.032428
1320.000000	0.032374
1319.000000	0.032431
1318.000000	0.032474
1317.000000	0.032406
1316.000000	0.032281
1315.000000	0.032165
1314.000000	0.032031
1313.000000	0.031864
1312.000000	0.031708
1311.000000	0.031569
1310.000000	0.031365
1309.000000	0.031094
1308.000000	0.030846
1307.000000	0.030678
1306.000000	0.030536
1305.000000	0.030370
1304.000000	0.030227
1303.000000	0.030116
1302.000000	0.029960
1301.000000	0.029739
1300.000000	0.029535
1299.000000	0.029385
1298.000000	0.029239
1297.000000	0.029098
1296.000000	0.029049
1295.000000	0.029112
1294.000000	0.029184
1293.000000	0.029215
1292.000000	0.029279
1291.000000	0.029431
1290.000000	0.029636
1289.000000	0.029868
1288.000000	0.030144
1287.000000	0.030426
1286.000000	0.030620
1285.000000	0.030731
1284.000000	0.030866
1283.000000	0.031051
1282.000000	0.031200
1281.000000	0.031272
1280.000000	0.031329
1279.000000	0.031390
1278.000000	0.031387
1277.000000	0.031291
1276.000000	0.031171
1275.000000	0.031074
1274.000000	0.030971
1273.000000	0.030873
1272.000000	0.030854
1271.000000	0.030916
1270.000000	0.030960
1269.000000	0.030938
1268.000000	0.030928
1267.000000	0.030993
1266.000000	0.031105
1265.000000	0.031256
1264.000000	0.031502
1263.000000	0.031844
1262.000000	0.032218
1261.000000	0.032608
1260.000000	0.033049
1259.000000	0.033497
1258.000000	0.033830
1257.000000	0.034040
1256.000000	0.034253
1255.000000	0.034532
1254.000000	0.034813
1253.000000	0.035060
1252.000000	0.035333
1251.000000	0.035659
1250.000000	0.035987
1249.000000	0.036308
1248.000000	0.036690
1247.000000	0.037145
1246.000000	0.037573
1245.000000	0.037916
1244.000000	0.038216
1243.000000	0.038490
1242.000000	0.038687
1241.000000	0.038795
1240.000000	0.038871
1239.000000	0.038916
1238.000000	0.038868
1237.000000	0.038728
1236.000000	0.038571
1235.000000	0.038406
1234.000000	0.038145
1233.000000	0.037753
1232.000000	0.037303
1231.000000	0.036845
1230.000000	0.036352
1229.000000	0.035820
1228.000000	0.035297
1227.000000	0.034785
1226.000000	0.034232
1225.000000	0.033634
1224.000000	0.033039
1223.000000	0.032426
1222.000000	0.031699
1221.000000	0.030832
1220.000000	0.029928
1219.000000	0.029108
1218.000000	0.028442
1217.000000	0.027992
1216.000000	0.027793
1215.000000	0.027763
1214.000000	0.027753
1213.000000	0.027719
1212.000000	0.027724
1211.000000	0.027782
1210.000000	0.027823
1209.000000	0.027832
1208.000000	0.027882
1207.000000	0.027990
1206.000000	0.028087
1205.000000	0.028142
1204.000000	0.028202
1203.000000	0.028278
1202.000000	0.028300
1201.000000	0.028234
1200.000000	0.028114
1199.000000	0.027950
1198.000000	0.027694
1197.000000	0.027350
1196.000000	0.026988
1195.000000	0.026634
1194.000000	0.026249
1193.000000	0.025835
1192.000000	0.025463
1191.000000	0.025145
1190.000000	0.024814
1189.000000	0.024451
1188.000000	0.024120
1187.000000	0.023845
1186.000000	0.023544
1185.000000	0.023150
1184.000000	0.022724
1183.000000	0.022392
1182.000000	0.022258
1181.000000	0.022351
1180.000000	0.022597
1179.000000	0.022822
1178.000000	0.022880
1177.000000	0.022798
1176.000000	0.022713
1175.000000	0.022696
1174.000000	0.022716
1173.000000	0.022758
1172.000000	0.022865
1171.000000	0.023033
1170.000000	0.023201
1169.000000	0.023361
1168.000000	0.023580
1167.000000	0.023885
1166.000000	0.024224
1165.000000	0.024562
1164.000000	0.024914
1163.000000	0.025263
1162.000000	0.025556
1161.000000	0.025788
1160.000000	0.026006
1159.000000	0.026207
1158.000000	0.026319
1157.000000	0.026314
1156.000000	0.026245
1155.000000	0.026152
1154.000000	0.026025
1153.000000	0.025875
1152.000000	0.025747
1151.000000	0.025639
1150.000000	0.025498
1149.000000	0.025302
1148.000000	0.025085
1147.000000	0.024851
1146.000000	0.024570
1145.000000	0.024250
1144.000000	0.023946
1143.000000	0.023665
1142.000000	0.023369
1141.000000	0.023064
1140.000000	0.022801
1139.000000	0.022579
1138.000000	0.022348
1137.000000	0.022100
1136.000000	0.021892
1135.000000	0.021744
1134.000000	0.021614
1133.000000	0.021487
1132.000000	0.021404
1131.000000	0.021376
1130.000000	0.021369
1129.000000	0.021381
1128.000000	0.021455
1127.000000	0.021590
1126.000000	0.021725
1125.000000	0.021822
1124.000000	0.021896
1123.000000	0.021956
1122.000000	0.021993
1121.000000	0.022040
1120.000000	0.022152
1119.000000	0.022303
1118.000000	0.022413
1117.000000	0.022467
1116.000000	0.022531
1115.000000	0.022641
1114.000000	0.022763
1113.000000	0.022873
1112.000000	0.022984
1111.000000	0.023096
1110.000000	0.023194
1109.000000	0.023314
1108.000000	0.023515
1107.000000	0.023764
1106.000000	0.023969
1105.000000	0.024109
1104.000000	0.024242
1103.000000	0.024396
1102.000000	0.024535
1101.000000	0.024651
1100.000000	0.024776
1099.000000	0.024901
1098.000000	0.024993
1097.000000	0.025079
1096.000000	0.025241
1095.000000	0.025495
1094.000000	0.025782
1093.000000	0.026073
1092.000000	0.026397
1091.000000	0.026773
1090.000000	0.027195
1089.000000	0.027697
1088.000000	0.028327
1087.000000	0.029038
1086.000000	0.029722
1085.000000	0.030321
1084.000000	0.030856
1083.000000	0.031338
1082.000000	0.031739
1081.000000	0.032052
1080.000000	0.032280
1079.000000	0.032378
1078.000000	0.032297
1077.000000	0.032074
1076.000000	0.031771
1075.000000	0.031368
1074.000000	0.030817
1073.000000	0.030179
1072.000000	0.029609
1071.000000	0.029194
1070.000000	0.028906
1069.000000	0.028713
1068.000000	0.028617
1067.000000	0.028596
1066.000000	0.028606
1065.000000	0.028664
1064.000000	0.028826
1063.000000	0.029074
1062.000000	0.029305
1061.000000	0.029449
1060.000000	0.029521
1059.000000	0.029541
1058.000000	0.029513
1057.000000	0.029465
1056.000000	0.029436
1055.000000	0.029439
1054.000000	0.029476
1053.000000	0.029594
1052.000000	0.029850
1051.000000	0.030222
1050.000000	0.030633
1049.000000	0.031050
1048.000000	0.031439
1047.000000	0.031695
1046.000000	0.031737
1045.000000	0.031644
1044.000000	0.031597
1043.000000	0.031674
1042.000000	0.031809
1041.000000	0.031938
1040.000000	0.032080
1039.000000	0.032272
1038.000000	0.032522
1037.000000	0.032847
1036.000000	0.033262
1035.000000	0.033716
1034.000000	0.034134
1033.000000	0.034499
1032.000000	0.034845
1031.000000	0.035154
1030.000000	0.035368
1029.000000	0.035493
1028.000000	0.035596
1027.000000	0.035698
1026.000000	0.035753
1025.000000	0.035745
1024.000000	0.035713
1023.000000	0.035681
1022.000000	0.035639
1021.000000	0.035596
1020.000000	0.035577
1019.000000	0.035565
1018.000000	0.035506
1017.000000	0.035382
1016.000000	0.035206
1015.000000	0.034948
1014.000000	0.034558
1013.000000	0.034065
1012.000000	0.033563
1011.000000	0.033101
1010.000000	0.032651
1009.000000	0.032194
1008.000000	0.031752
1007.000000	0.031332
1006.000000	0.030903
1005.000000	0.030461
1004.000000	0.030043
1003.000000	0.029668
1002.000000	0.029317
1001.000000	0.028973
1000.000000	0.028629
999.000000	0.028264
998.000000	0.027858
997.000000	0.027448
996.000000	0.027088
995.000000	0.026764
994.000000	0.026411
993.000000	0.026008
992.000000	0.025595
991.000000	0.025191
990.000000	0.024765
989.000000	0.024310
988.000000	0.023861
987.000000	0.023436
986.000000	0.023007
985.000000	0.022558
984.000000	0.022110
983.000000	0.021678
982.000000	0.021261
981.000000	0.020875
980.000000	0.020547
979.000000	0.020257
978.000000	0.019956
977.000000	0.019631
976.000000	0.019318
975.000000	0.019030
974.000000	0.018740
973.000000	0.018435
972.000000	0.018130
971.000000	0.017825
970.000000	0.017499
969.000000	0.017149
968.000000	0.016790
967.000000	0.016411
966.000000	0.015998
965.000000	0.015591
964.000000	0.015261
963.000000	0.015005
962.000000	0.014750
961.000000	0.014461
960.000000	0.014187
959.000000	0.013971
958.000000	0.013782
957.000000	0.013567
956.000000	0.013310
955.000000	0.013023
954.000000	0.012732
953.000000	0.012482
952.000000	0.012315
951.000000	0.012215
950.000000	0.012129
949.000000	0.012042
948.000000	0.011987
947.000000	0.011971
946.000000	0.011955
945.000000	0.011918
944.000000	0.011882
943.000000	0.011865
942.000000	0.011859
941.000000	0.011872
940.000000	0.011925
939.000000	0.012004
938.000000	0.012058
937.000000	0.012064
936.000000	0.012045
935.000000	0.012010
934.000000	0.011949
933.000000	0.011871
932.000000	0.011799
931.000000	0.011724
930.000000	0.011618
929.000000	0.011503
928.000000	0.011434
927.000000	0.011408
926.000000	0.011358
925.000000	0.011252
924.000000	0.011129
923.000000	0.011026
922.000000	0.010931
921.000000	0.010827
920.000000	0.010717
919.000000	0.010592
918.000000	0.010422
917.000000	0.010213
916.000000	0.010020
915.000000	0.009866
914.000000	0.009713
913.000000	0.009535
912.000000	0.009361
911.000000	0.009226
910.000000	0.009116
909.000000	0.008996
908.000000	0.008871
907.000000	0.008770
906.000000	0.008710
905.000000	0.008690
904.000000	0.008690
903.000000	0.008678
902.000000	0.008634
901.000000	0.008570
900.000000	0.008503
899.000000	0.008408
898.000000	0.008248
897.000000	0.008037
896.000000	0.007840
895.000000	0.007699
894.000000	0.007609
893.000000	0.007557
892.000000	0.007543
891.000000	0.007546
890.000000	0.007534
889.000000	0.007506
888.000000	0.007503
887.000000	0.007543
886.000000	0.007610
885.000000	0.007697
884.000000	0.007836
883.000000	0.008070
882.000000	0.008427
881.000000	0.008913
880.000000	0.009502
879.000000	0.010121
878.000000	0.010683
877.000000	0.011139
876.000000	0.011453
875.000000	0.011556
874.000000	0.011400
873.000000	0.011042
872.000000	0.010618
871.000000	0.010233
870.000000	0.009903
869.000000	0.009617
868.000000	0.009386
867.000000	0.009216
866.000000	0.009091
865.000000	0.008992
864.000000	0.008916
863.000000	0.008861
862.000000	0.008834
861.000000	0.008862
860.000000	0.008958
859.000000	0.009073
858.000000	0.009126
857.000000	0.009091
856.000000	0.009013
855.000000	0.008947
854.000000	0.008911
853.000000	0.008905
852.000000	0.008922
851.000000	0.008940
850.000000	0.008941
849.000000	0.008939
848.000000	0.008953
847.000000	0.008960
846.000000	0.008912
845.000000	0.008809
844.000000	0.008711
843.000000	0.008653
842.000000	0.008604
841.000000	0.008529
840.000000	0.008438
839.000000	0.008364
838.000000	0.008308
837.000000	0.008236
836.000000	0.008118
835.000000	0.007954
834.000000	0.007772
833.000000	0.007605
832.000000	0.007477
831.000000	0.007392
830.000000	0.007347
829.000000	0.007342
828.000000	0.007366
827.000000	0.007405
826.000000	0.007478
825.000000	0.007627
824.000000	0.007852
823.000000	0.008091
822.000000	0.008277
821.000000	0.008412
820.000000	0.008518
819.000000	0.008576
818.000000	0.008550
817.000000	0.008444
816.000000	0.008304
815.000000	0.008176
814.000000	0.008086
813.000000	0.008048
812.000000	0.008056
811.000000	0.008080
810.000000	0.008091
809.000000	0.008076
808.000000	0.008023
807.000000	0.007917
806.000000	0.007793
805.000000	0.007726
804.000000	0.007747
803.000000	0.007801
802.000000	0.007836
801.000000	0.007882
800.000000	0.007974
799.000000	0.008067
798.000000	0.008099
797.000000	0.008093
796.000000	0.008124
795.000000	0.008203
794.000000	0.008272
793.000000	0.008318
792.000000	0.008385
791.000000	0.008488
790.000000	0.008584
789.000000	0.008642
788.000000	0.008677
787.000000	0.008692
786.000000	0.008671
785.000000	0.008629
784.000000	0.008643
783.000000	0.008769
782.000000	0.008978
781.000000	0.009178
780.000000	0.009291
779.000000	0.009300
778.000000	0.009238
777.000000	0.009163
776.000000	0.009125
775.000000	0.009128
774.000000	0.009143
773.000000	0.009148
772.000000	0.009151
771.000000	0.009185
770.000000	0.009270
769.000000	0.009396
768.000000	0.009532
767.000000	0.009652
766.000000	0.009754
765.000000	0.009845
764.000000	0.009917
763.000000	0.009946
762.000000	0.009924
761.000000	0.009882
760.000000	0.009857
759.000000	0.009865
758.000000	0.009898
757.000000	0.009938
756.000000	0.009962
755.000000	0.009957
754.000000	0.009934
753.000000	0.009924
752.000000	0.009939
751.000000	0.009958
750.000000	0.009960
749.000000	0.009953
748.000000	0.009970
747.000000	0.010034
746.000000	0.010149
745.000000	0.010301
744.000000	0.010453
743.000000	0.010548
742.000000	0.010542
741.000000	0.010439
740.000000	0.010305
739.000000	0.010235
738.000000	0.010289
737.000000	0.010446
736.000000	0.010630
735.000000	0.010785
734.000000	0.010910
733.000000	0.011029
732.000000	0.011152
731.000000	0.011284
730.000000	0.011435
729.000000	0.011598
728.000000	0.011761
727.000000	0.011933
726.000000	0.012148
725.000000	0.012423
724.000000	0.012744
723.000000	0.013075
722.000000	0.013383
721.000000	0.013614
720.000000	0.013715
719.000000	0.013718
718.000000	0.013750
717.000000	0.013908
716.000000	0.014163
715.000000	0.014426
714.000000	0.014650
713.000000	0.014843
712.000000	0.014993
711.000000	0.015075
710.000000	0.015108
709.000000	0.015146
708.000000	0.015227
707.000000	0.015350
706.000000	0.015500
705.000000	0.015658
704.000000	0.015793
703.000000	0.015883
702.000000	0.015945
701.000000	0.016002
700.000000	0.016029
699.000000	0.016013
698.000000	0.015986
697.000000	0.015985
696.000000	0.015989
695.000000	0.015960
694.000000	0.015927
693.000000	0.015917
692.000000	0.015888
691.000000	0.015819
690.000000	0.015790
689.000000	0.015913
688.000000	0.016185
687.000000	0.016506
686.000000	0.016798
685.000000	0.016992
684.000000	0.017012
683.000000	0.016895
682.000000	0.016801
681.000000	0.016832
680.000000	0.016929
679.000000	0.017018
678.000000	0.017125
677.000000	0.017222
676.000000	0.017252
675.000000	0.017309
674.000000	0.017527
673.000000	0.017834
672.000000	0.017904
671.000000	0.017569
670.000000	0.017173
669.000000	0.017295
668.000000	0.016967
667.000000	0.016325
666.000000	0.017049
665.000000	0.017990
664.000000	0.018293
663.000000	0.018387
662.000000	0.018413
661.000000	0.018368
660.000000	0.018360
659.000000	0.018483
658.000000	0.018632
657.000000	0.018669
656.000000	0.018611
655.000000	0.018510
654.000000	0.018294
653.000000	0.018025
652.000000	0.017934
651.000000	0.018097
650.000000	0.018339
649.000000	0.018507
648.000000	0.018629
647.000000	0.018722
646.000000	0.018724
645.000000	0.018660
644.000000	0.018628
643.000000	0.018634
642.000000	0.018587
641.000000	0.018464
640.000000	0.018353
639.000000	0.018295
638.000000	0.018237
637.000000	0.018180
636.000000	0.018184
635.000000	0.018230
634.000000	0.018245
633.000000	0.018232
632.000000	0.018215
631.000000	0.018123
630.000000	0.017914
629.000000	0.017752
628.000000	0.017852
627.000000	0.018164
626.000000	0.018426
625.000000	0.018531
624.000000	0.018583
623.000000	0.018655
622.000000	0.018699
621.000000	0.018708
620.000000	0.018755
619.000000	0.018827
618.000000	0.018853
617.000000	0.018890
616.000000	0.019059
615.000000	0.019299
614.000000	0.019408
613.000000	0.019348
612.000000	0.019282
611.000000	0.019268
610.000000	0.019184
609.000000	0.018973
608.000000	0.018770
607.000000	0.018705
606.000000	0.018751
605.000000	0.018862
604.000000	0.019025
603.000000	0.019146
602.000000	0.019089
601.000000	0.018879
600.000000	0.018734
599.000000	0.018802
598.000000	0.018981
597.000000	0.019116
596.000000	0.019196
595.000000	0.019286
594.000000	0.019385
593.000000	0.019453
592.000000	0.019474
591.000000	0.019432
590.000000	0.019326
589.000000	0.019240
588.000000	0.019284
587.000000	0.019411
586.000000	0.019451
585.000000	0.019373
584.000000	0.019336
583.000000	0.019432
582.000000	0.019531
581.000000	0.019506
580.000000	0.019422
579.000000	0.019411
578.000000	0.019500
577.000000	0.019705
576.000000	0.020045
575.000000	0.020395
574.000000	0.020510
573.000000	0.020358
572.000000	0.020200
571.000000	0.020258
570.000000	0.020481
569.000000	0.020702
568.000000	0.020858
567.000000	0.020897
566.000000	0.020729
565.000000	0.020414
564.000000	0.020216
563.000000	0.020280
562.000000	0.020423
561.000000	0.020418
560.000000	0.020286
559.000000	0.020179
558.000000	0.020136
557.000000	0.020103
556.000000	0.020026
555.000000	0.019845
554.000000	0.019560
553.000000	0.019357
552.000000	0.019474
551.000000	0.019854
550.000000	0.020125
549.000000	0.020048
548.000000	0.019777
547.000000	0.019572
546.000000	0.019502
545.000000	0.019502
544.000000	0.019536
543.000000	0.019499
542.000000	0.019218
541.000000	0.018727
540.000000	0.018335
539.000000	0.018246
538.000000	0.018311
537.000000	0.018323
536.000000	0.018373
535.000000	0.018659
534.000000	0.019152
533.000000	0.019664
532.000000	0.020023
531.000000	0.020120
530.000000	0.019894
529.000000	0.019444
528.000000	0.019048
527.000000	0.018968
526.000000	0.019155
525.000000	0.019325
524.000000	0.019319
523.000000	0.019132
522.000000	0.018818
521.000000	0.018480
520.000000	0.018194
519.000000	0.017900
518.000000	0.017461
517.000000	0.016908
516.000000	0.016474
515.000000	0.016293
514.000000	0.016281
513.000000	0.016320
512.000000	0.016365
511.000000	0.016338
510.000000	0.016118
509.000000	0.015693
508.000000	0.015183
507.000000	0.014730
506.000000	0.014347
505.000000	0.014039
504.000000	0.013868
503.000000	0.013850
502.000000	0.013847
501.000000	0.013723
500.000000	0.013555
499.000000	0.013479
498.000000	0.013487
497.000000	0.013477
496.000000	0.013398
495.000000	0.013257
494.000000	0.013040
493.000000	0.012719
492.000000	0.012379
491.000000	0.012179
490.000000	0.012133
489.000000	0.012100
488.000000	0.011919
487.000000	0.011563
486.000000	0.011110
485.000000	0.010721
484.000000	0.010593
483.000000	0.010815
482.000000	0.011223
481.000000	0.011491
480.000000	0.011481
479.000000	0.011319
478.000000	0.011157
477.000000	0.011030
476.000000	0.010860
475.000000	0.010536
474.000000	0.010104
473.000000	0.009851
472.000000	0.010033
471.000000	0.010495
470.000000	0.010761
469.000000	0.010678
468.000000	0.010551
467.000000	0.010569
466.000000	0.010579
465.000000	0.010479
464.000000	0.010439
463.000000	0.010553
462.000000	0.010551
461.000000	0.010121
460.000000	0.009360
459.000000	0.008605
458.000000	0.008042
457.000000	0.007665
456.000000	0.007426
455.000000	0.007268
454.000000	0.007217
453.000000	0.007342
452.000000	0.007754
451.000000	0.008066
450.000000	0.007859
