PE IR       SUBTECH     SPECTRUM    ASCII       PEDS        4.00        
   -1
3C-N10-C037_1.ASC
22/02/16
15:00:04.00
22/02/16
15:05:49.00
uco
Sample 037 By uco Date Wednesday, February 16 2022
450.000000
#HDR
-1
-1
#GR
cm-1
A
1.0
0.0
4000.000000
-1.000000
3551
8
0.065354
0.002689
#DATA
4000.000000	0.006356
3999.000000	0.006267
3998.000000	0.006208
3997.000000	0.006213
3996.000000	0.006255
3995.000000	0.006284
3994.000000	0.006308
3993.000000	0.006356
3992.000000	0.006425
3991.000000	0.006477
3990.000000	0.006491
3989.000000	0.006495
3988.000000	0.006506
3987.000000	0.006501
3986.000000	0.006468
3985.000000	0.006434
3984.000000	0.006418
3983.000000	0.006411
3982.000000	0.006395
3981.000000	0.006373
3980.000000	0.006372
3979.000000	0.006413
3978.000000	0.006489
3977.000000	0.006580
3976.000000	0.006691
3975.000000	0.006815
3974.000000	0.006904
3973.000000	0.006936
3972.000000	0.006936
3971.000000	0.006942
3970.000000	0.006946
3969.000000	0.006921
3968.000000	0.006843
3967.000000	0.006706
3966.000000	0.006531
3965.000000	0.006393
3964.000000	0.006385
3963.000000	0.006524
3962.000000	0.006729
3961.000000	0.006907
3960.000000	0.007023
3959.000000	0.007074
3958.000000	0.007038
3957.000000	0.006966
3956.000000	0.006934
3955.000000	0.006928
3954.000000	0.006895
3953.000000	0.006795
3952.000000	0.006682
3951.000000	0.006646
3950.000000	0.006796
3949.000000	0.007095
3948.000000	0.007282
3947.000000	0.007263
3946.000000	0.007201
3945.000000	0.007278
3944.000000	0.007487
3943.000000	0.007634
3942.000000	0.007657
3941.000000	0.007668
3940.000000	0.007692
3939.000000	0.007614
3938.000000	0.007292
3937.000000	0.006829
3936.000000	0.006514
3935.000000	0.006448
3934.000000	0.006617
3933.000000	0.006954
3932.000000	0.007471
3931.000000	0.008020
3930.000000	0.008252
3929.000000	0.008038
3928.000000	0.007617
3927.000000	0.007421
3926.000000	0.007505
3925.000000	0.007537
3924.000000	0.007492
3923.000000	0.007626
3922.000000	0.007795
3921.000000	0.007623
3920.000000	0.007210
3919.000000	0.007205
3918.000000	0.007697
3917.000000	0.008089
3916.000000	0.008063
3915.000000	0.007893
3914.000000	0.007813
3913.000000	0.007697
3912.000000	0.007454
3911.000000	0.007338
3910.000000	0.007326
3909.000000	0.007263
3908.000000	0.007179
3907.000000	0.007198
3906.000000	0.007380
3905.000000	0.007393
3904.000000	0.007209
3903.000000	0.007343
3902.000000	0.008191
3901.000000	0.009377
3900.000000	0.009938
3899.000000	0.009546
3898.000000	0.008848
3897.000000	0.008437
3896.000000	0.008165
3895.000000	0.007861
3894.000000	0.007742
3893.000000	0.008273
3892.000000	0.008880
3891.000000	0.008390
3890.000000	0.007236
3889.000000	0.006841
3888.000000	0.007537
3887.000000	0.008214
3886.000000	0.007938
3885.000000	0.007030
3884.000000	0.006798
3883.000000	0.007777
3882.000000	0.009039
3881.000000	0.009636
3880.000000	0.009337
3879.000000	0.008523
3878.000000	0.008075
3877.000000	0.008269
3876.000000	0.008500
3875.000000	0.008206
3874.000000	0.007448
3873.000000	0.007202
3872.000000	0.008158
3871.000000	0.009252
3870.000000	0.008845
3869.000000	0.007506
3868.000000	0.007286
3867.000000	0.008445
3866.000000	0.008973
3865.000000	0.008268
3864.000000	0.007934
3863.000000	0.008585
3862.000000	0.009089
3861.000000	0.009019
3860.000000	0.008843
3859.000000	0.008994
3858.000000	0.009300
3857.000000	0.009304
3856.000000	0.008550
3855.000000	0.006829
3854.000000	0.004904
3853.000000	0.003218
3852.000000	0.002689
3851.000000	0.004384
3850.000000	0.006711
3849.000000	0.008033
3848.000000	0.008349
3847.000000	0.008371
3846.000000	0.008201
3845.000000	0.008025
3844.000000	0.008013
3843.000000	0.007931
3842.000000	0.007804
3841.000000	0.008221
3840.000000	0.008850
3839.000000	0.008995
3838.000000	0.008493
3837.000000	0.007746
3836.000000	0.007424
3835.000000	0.007704
3834.000000	0.008348
3833.000000	0.008863
3832.000000	0.008721
3831.000000	0.008030
3830.000000	0.007487
3829.000000	0.007668
3828.000000	0.008357
3827.000000	0.008733
3826.000000	0.008248
3825.000000	0.007718
3824.000000	0.007868
3823.000000	0.008400
3822.000000	0.008862
3821.000000	0.008500
3820.000000	0.007539
3819.000000	0.007560
3818.000000	0.008588
3817.000000	0.008847
3816.000000	0.007494
3815.000000	0.005895
3814.000000	0.006025
3813.000000	0.007451
3812.000000	0.008087
3811.000000	0.007465
3810.000000	0.006889
3809.000000	0.007252
3808.000000	0.007779
3807.000000	0.007131
3806.000000	0.005716
3805.000000	0.005472
3804.000000	0.006684
3803.000000	0.008021
3802.000000	0.008190
3801.000000	0.006919
3800.000000	0.005876
3799.000000	0.006521
3798.000000	0.007948
3797.000000	0.008692
3796.000000	0.008549
3795.000000	0.008131
3794.000000	0.008016
3793.000000	0.007960
3792.000000	0.007653
3791.000000	0.007357
3790.000000	0.007258
3789.000000	0.007121
3788.000000	0.006846
3787.000000	0.006755
3786.000000	0.007100
3785.000000	0.007528
3784.000000	0.007559
3783.000000	0.007378
3782.000000	0.007350
3781.000000	0.007530
3780.000000	0.007703
3779.000000	0.007718
3778.000000	0.007665
3777.000000	0.007821
3776.000000	0.007937
3775.000000	0.007524
3774.000000	0.006820
3773.000000	0.006622
3772.000000	0.007086
3771.000000	0.007520
3770.000000	0.007425
3769.000000	0.007146
3768.000000	0.007229
3767.000000	0.007701
3766.000000	0.008051
3765.000000	0.007795
3764.000000	0.007275
3763.000000	0.007167
3762.000000	0.007305
3761.000000	0.007202
3760.000000	0.007134
3759.000000	0.007712
3758.000000	0.008390
3757.000000	0.008444
3756.000000	0.008174
3755.000000	0.007826
3754.000000	0.006916
3753.000000	0.005338
3752.000000	0.004643
3751.000000	0.005794
3750.000000	0.006751
3749.000000	0.006242
3748.000000	0.005891
3747.000000	0.007044
3746.000000	0.008661
3745.000000	0.008406
3744.000000	0.005801
3743.000000	0.003930
3742.000000	0.004993
3741.000000	0.006987
3740.000000	0.007461
3739.000000	0.007001
3738.000000	0.006891
3737.000000	0.007218
3736.000000	0.007947
3735.000000	0.009186
3734.000000	0.010585
3733.000000	0.010995
3732.000000	0.009844
3731.000000	0.008069
3730.000000	0.007071
3729.000000	0.007147
3728.000000	0.007545
3727.000000	0.007553
3726.000000	0.007391
3725.000000	0.007644
3724.000000	0.008249
3723.000000	0.008582
3722.000000	0.008454
3721.000000	0.008213
3720.000000	0.008099
3719.000000	0.008145
3718.000000	0.007923
3717.000000	0.007245
3716.000000	0.006693
3715.000000	0.006402
3714.000000	0.005989
3713.000000	0.005729
3712.000000	0.006353
3711.000000	0.007653
3710.000000	0.008593
3709.000000	0.008901
3708.000000	0.008815
3707.000000	0.008373
3706.000000	0.007873
3705.000000	0.007598
3704.000000	0.007593
3703.000000	0.007793
3702.000000	0.007930
3701.000000	0.007779
3700.000000	0.007441
3699.000000	0.007290
3698.000000	0.007312
3697.000000	0.007114
3696.000000	0.006866
3695.000000	0.006946
3694.000000	0.007059
3693.000000	0.006791
3692.000000	0.006450
3691.000000	0.006695
3690.000000	0.007383
3689.000000	0.007519
3688.000000	0.006586
3687.000000	0.005777
3686.000000	0.006103
3685.000000	0.006988
3684.000000	0.007356
3683.000000	0.007150
3682.000000	0.007135
3681.000000	0.007319
3680.000000	0.007059
3679.000000	0.006409
3678.000000	0.006395
3677.000000	0.007506
3676.000000	0.008799
3675.000000	0.008686
3674.000000	0.007756
3673.000000	0.007724
3672.000000	0.008107
3671.000000	0.008012
3670.000000	0.007780
3669.000000	0.007746
3668.000000	0.007926
3667.000000	0.008155
3666.000000	0.008085
3665.000000	0.007728
3664.000000	0.007450
3663.000000	0.007507
3662.000000	0.007663
3661.000000	0.007491
3660.000000	0.007193
3659.000000	0.007202
3658.000000	0.007731
3657.000000	0.008171
3656.000000	0.007889
3655.000000	0.007360
3654.000000	0.007409
3653.000000	0.007580
3652.000000	0.006936
3651.000000	0.006372
3650.000000	0.007418
3649.000000	0.009502
3648.000000	0.010783
3647.000000	0.010854
3646.000000	0.010414
3645.000000	0.009914
3644.000000	0.009444
3643.000000	0.009051
3642.000000	0.008724
3641.000000	0.008492
3640.000000	0.008458
3639.000000	0.008442
3638.000000	0.008259
3637.000000	0.008087
3636.000000	0.008303
3635.000000	0.008754
3634.000000	0.008897
3633.000000	0.008727
3632.000000	0.008652
3631.000000	0.008736
3630.000000	0.009158
3629.000000	0.009566
3628.000000	0.009138
3627.000000	0.008881
3626.000000	0.009392
3625.000000	0.009816
3624.000000	0.009635
3623.000000	0.009296
3622.000000	0.009272
3621.000000	0.009514
3620.000000	0.009816
3619.000000	0.009991
3618.000000	0.009803
3617.000000	0.009601
3616.000000	0.009788
3615.000000	0.010248
3614.000000	0.010593
3613.000000	0.010652
3612.000000	0.010553
3611.000000	0.010408
3610.000000	0.010280
3609.000000	0.010357
3608.000000	0.010738
3607.000000	0.011199
3606.000000	0.011376
3605.000000	0.011111
3604.000000	0.010562
3603.000000	0.010090
3602.000000	0.009967
3601.000000	0.010114
3600.000000	0.010361
3599.000000	0.010583
3598.000000	0.010650
3597.000000	0.010600
3596.000000	0.010798
3595.000000	0.011208
3594.000000	0.011502
3593.000000	0.011502
3592.000000	0.011257
3591.000000	0.010848
3590.000000	0.010458
3589.000000	0.010535
3588.000000	0.011432
3587.000000	0.012451
3586.000000	0.012827
3585.000000	0.012668
3584.000000	0.012367
3583.000000	0.012018
3582.000000	0.011705
3581.000000	0.011527
3580.000000	0.011535
3579.000000	0.011629
3578.000000	0.011696
3577.000000	0.011754
3576.000000	0.011905
3575.000000	0.012136
3574.000000	0.012257
3573.000000	0.012175
3572.000000	0.011865
3571.000000	0.011387
3570.000000	0.010935
3569.000000	0.010982
3568.000000	0.012001
3567.000000	0.013650
3566.000000	0.014860
3565.000000	0.015168
3564.000000	0.014858
3563.000000	0.014301
3562.000000	0.013795
3561.000000	0.013547
3560.000000	0.013533
3559.000000	0.013574
3558.000000	0.013503
3557.000000	0.013297
3556.000000	0.013061
3555.000000	0.012990
3554.000000	0.013205
3553.000000	0.013626
3552.000000	0.014001
3551.000000	0.014088
3550.000000	0.013892
3549.000000	0.013609
3548.000000	0.013533
3547.000000	0.013899
3546.000000	0.014587
3545.000000	0.015197
3544.000000	0.015477
3543.000000	0.015437
3542.000000	0.015178
3541.000000	0.014829
3540.000000	0.014549
3539.000000	0.014462
3538.000000	0.014585
3537.000000	0.014845
3536.000000	0.015143
3535.000000	0.015324
3534.000000	0.015298
3533.000000	0.015110
3532.000000	0.014938
3531.000000	0.014936
3530.000000	0.015114
3529.000000	0.015376
3528.000000	0.015618
3527.000000	0.015795
3526.000000	0.015932
3525.000000	0.016124
3524.000000	0.016444
3523.000000	0.016801
3522.000000	0.016978
3521.000000	0.016895
3520.000000	0.016702
3519.000000	0.016547
3518.000000	0.016460
3517.000000	0.016421
3516.000000	0.016448
3515.000000	0.016483
3514.000000	0.016453
3513.000000	0.016402
3512.000000	0.016469
3511.000000	0.016714
3510.000000	0.017045
3509.000000	0.017287
3508.000000	0.017336
3507.000000	0.017216
3506.000000	0.017050
3505.000000	0.017030
3504.000000	0.017327
3503.000000	0.017852
3502.000000	0.018282
3501.000000	0.018401
3500.000000	0.018284
3499.000000	0.018113
3498.000000	0.017995
3497.000000	0.017966
3496.000000	0.018048
3495.000000	0.018191
3494.000000	0.018288
3493.000000	0.018297
3492.000000	0.018271
3491.000000	0.018257
3490.000000	0.018281
3489.000000	0.018382
3488.000000	0.018572
3487.000000	0.018774
3486.000000	0.018882
3485.000000	0.018888
3484.000000	0.018904
3483.000000	0.019006
3482.000000	0.019163
3481.000000	0.019311
3480.000000	0.019417
3479.000000	0.019463
3478.000000	0.019435
3477.000000	0.019384
3476.000000	0.019392
3475.000000	0.019472
3474.000000	0.019547
3473.000000	0.019573
3472.000000	0.019591
3471.000000	0.019629
3470.000000	0.019680
3469.000000	0.019764
3468.000000	0.019893
3467.000000	0.020009
3466.000000	0.020038
3465.000000	0.020003
3464.000000	0.019995
3463.000000	0.020058
3462.000000	0.020170
3461.000000	0.020308
3460.000000	0.020459
3459.000000	0.020576
3458.000000	0.020621
3457.000000	0.020625
3456.000000	0.020644
3455.000000	0.020685
3454.000000	0.020737
3453.000000	0.020769
3452.000000	0.020758
3451.000000	0.020711
3450.000000	0.020694
3449.000000	0.020800
3448.000000	0.021054
3447.000000	0.021359
3446.000000	0.021587
3445.000000	0.021698
3444.000000	0.021744
3443.000000	0.021775
3442.000000	0.021804
3441.000000	0.021835
3440.000000	0.021873
3439.000000	0.021914
3438.000000	0.021954
3437.000000	0.021992
3436.000000	0.022034
3435.000000	0.022085
3434.000000	0.022163
3433.000000	0.022263
3432.000000	0.022372
3431.000000	0.022490
3430.000000	0.022606
3429.000000	0.022698
3428.000000	0.022756
3427.000000	0.022802
3426.000000	0.022846
3425.000000	0.022877
3424.000000	0.022908
3423.000000	0.022971
3422.000000	0.023085
3421.000000	0.023231
3420.000000	0.023379
3419.000000	0.023502
3418.000000	0.023567
3417.000000	0.023557
3416.000000	0.023504
3415.000000	0.023475
3414.000000	0.023500
3413.000000	0.023560
3412.000000	0.023633
3411.000000	0.023720
3410.000000	0.023822
3409.000000	0.023923
3408.000000	0.024014
3407.000000	0.024094
3406.000000	0.024144
3405.000000	0.024168
3404.000000	0.024210
3403.000000	0.024300
3402.000000	0.024419
3401.000000	0.024542
3400.000000	0.024690
3399.000000	0.024867
3398.000000	0.025008
3397.000000	0.025053
3396.000000	0.025029
3395.000000	0.025018
3394.000000	0.025077
3393.000000	0.025204
3392.000000	0.025357
3391.000000	0.025481
3390.000000	0.025532
3389.000000	0.025525
3388.000000	0.025519
3387.000000	0.025551
3386.000000	0.025598
3385.000000	0.025632
3384.000000	0.025655
3383.000000	0.025668
3382.000000	0.025663
3381.000000	0.025659
3380.000000	0.025709
3379.000000	0.025830
3378.000000	0.025978
3377.000000	0.026110
3376.000000	0.026213
3375.000000	0.026272
3374.000000	0.026273
3373.000000	0.026257
3372.000000	0.026299
3371.000000	0.026427
3370.000000	0.026599
3369.000000	0.026769
3368.000000	0.026920
3367.000000	0.027037
3366.000000	0.027107
3365.000000	0.027146
3364.000000	0.027201
3363.000000	0.027294
3362.000000	0.027415
3361.000000	0.027546
3360.000000	0.027668
3359.000000	0.027757
3358.000000	0.027805
3357.000000	0.027852
3356.000000	0.027938
3355.000000	0.028045
3354.000000	0.028123
3353.000000	0.028175
3352.000000	0.028260
3351.000000	0.028403
3350.000000	0.028572
3349.000000	0.028732
3348.000000	0.028875
3347.000000	0.028988
3346.000000	0.029054
3345.000000	0.029089
3344.000000	0.029136
3343.000000	0.029212
3342.000000	0.029288
3341.000000	0.029354
3340.000000	0.029434
3339.000000	0.029551
3338.000000	0.029695
3337.000000	0.029858
3336.000000	0.030032
3335.000000	0.030191
3334.000000	0.030298
3333.000000	0.030345
3332.000000	0.030367
3331.000000	0.030398
3330.000000	0.030447
3329.000000	0.030506
3328.000000	0.030580
3327.000000	0.030668
3326.000000	0.030762
3325.000000	0.030864
3324.000000	0.030983
3323.000000	0.031096
3322.000000	0.031168
3321.000000	0.031194
3320.000000	0.031212
3319.000000	0.031256
3318.000000	0.031323
3317.000000	0.031397
3316.000000	0.031472
3315.000000	0.031541
3314.000000	0.031601
3313.000000	0.031651
3312.000000	0.031693
3311.000000	0.031724
3310.000000	0.031754
3309.000000	0.031804
3308.000000	0.031882
3307.000000	0.031962
3306.000000	0.032015
3305.000000	0.032048
3304.000000	0.032093
3303.000000	0.032156
3302.000000	0.032221
3301.000000	0.032280
3300.000000	0.032338
3299.000000	0.032385
3298.000000	0.032412
3297.000000	0.032428
3296.000000	0.032456
3295.000000	0.032489
3294.000000	0.032505
3293.000000	0.032511
3292.000000	0.032524
3291.000000	0.032536
3290.000000	0.032524
3289.000000	0.032486
3288.000000	0.032446
3287.000000	0.032420
3286.000000	0.032411
3285.000000	0.032434
3284.000000	0.032488
3283.000000	0.032536
3282.000000	0.032525
3281.000000	0.032468
3280.000000	0.032415
3279.000000	0.032379
3278.000000	0.032328
3277.000000	0.032254
3276.000000	0.032193
3275.000000	0.032172
3274.000000	0.032174
3273.000000	0.032177
3272.000000	0.032179
3271.000000	0.032182
3270.000000	0.032182
3269.000000	0.032175
3268.000000	0.032162
3267.000000	0.032133
3266.000000	0.032074
3265.000000	0.031994
3264.000000	0.031922
3263.000000	0.031859
3262.000000	0.031781
3261.000000	0.031691
3260.000000	0.031603
3259.000000	0.031501
3258.000000	0.031380
3257.000000	0.031286
3256.000000	0.031272
3255.000000	0.031323
3254.000000	0.031359
3253.000000	0.031326
3252.000000	0.031240
3251.000000	0.031124
3250.000000	0.030981
3249.000000	0.030825
3248.000000	0.030695
3247.000000	0.030626
3246.000000	0.030619
3245.000000	0.030655
3244.000000	0.030701
3243.000000	0.030706
3242.000000	0.030644
3241.000000	0.030550
3240.000000	0.030475
3239.000000	0.030420
3238.000000	0.030354
3237.000000	0.030272
3236.000000	0.030191
3235.000000	0.030117
3234.000000	0.030049
3233.000000	0.029992
3232.000000	0.029957
3231.000000	0.029932
3230.000000	0.029905
3229.000000	0.029891
3228.000000	0.029890
3227.000000	0.029867
3226.000000	0.029800
3225.000000	0.029718
3224.000000	0.029660
3223.000000	0.029607
3222.000000	0.029524
3221.000000	0.029431
3220.000000	0.029377
3219.000000	0.029348
3218.000000	0.029297
3217.000000	0.029226
3216.000000	0.029180
3215.000000	0.029171
3214.000000	0.029164
3213.000000	0.029128
3212.000000	0.029071
3211.000000	0.029016
3210.000000	0.028984
3209.000000	0.028985
3208.000000	0.029004
3207.000000	0.028998
3206.000000	0.028940
3205.000000	0.028855
3204.000000	0.028785
3203.000000	0.028732
3202.000000	0.028664
3201.000000	0.028567
3200.000000	0.028461
3199.000000	0.028373
3198.000000	0.028327
3197.000000	0.028316
3196.000000	0.028297
3195.000000	0.028224
3194.000000	0.028104
3193.000000	0.027990
3192.000000	0.027911
3191.000000	0.027835
3190.000000	0.027735
3189.000000	0.027634
3188.000000	0.027562
3187.000000	0.027524
3186.000000	0.027515
3185.000000	0.027536
3184.000000	0.027546
3183.000000	0.027478
3182.000000	0.027323
3181.000000	0.027155
3180.000000	0.027049
3179.000000	0.027007
3178.000000	0.026990
3177.000000	0.026966
3176.000000	0.026907
3175.000000	0.026788
3174.000000	0.026629
3173.000000	0.026497
3172.000000	0.026431
3171.000000	0.026388
3170.000000	0.026312
3169.000000	0.026204
3168.000000	0.026098
3167.000000	0.026008
3166.000000	0.025926
3165.000000	0.025851
3164.000000	0.025775
3163.000000	0.025690
3162.000000	0.025609
3161.000000	0.025560
3160.000000	0.025532
3159.000000	0.025490
3158.000000	0.025419
3157.000000	0.025335
3156.000000	0.025230
3155.000000	0.025091
3154.000000	0.024951
3153.000000	0.024880
3152.000000	0.024886
3151.000000	0.024901
3150.000000	0.024870
3149.000000	0.024805
3148.000000	0.024731
3147.000000	0.024639
3146.000000	0.024524
3145.000000	0.024412
3144.000000	0.024323
3143.000000	0.024242
3142.000000	0.024159
3141.000000	0.024106
3140.000000	0.024102
3139.000000	0.024116
3138.000000	0.024103
3137.000000	0.024059
3136.000000	0.024003
3135.000000	0.023937
3134.000000	0.023880
3133.000000	0.023860
3132.000000	0.023860
3131.000000	0.023822
3130.000000	0.023730
3129.000000	0.023635
3128.000000	0.023569
3127.000000	0.023508
3126.000000	0.023429
3125.000000	0.023352
3124.000000	0.023301
3123.000000	0.023273
3122.000000	0.023259
3121.000000	0.023251
3120.000000	0.023238
3119.000000	0.023205
3118.000000	0.023175
3117.000000	0.023194
3116.000000	0.023257
3115.000000	0.023302
3114.000000	0.023292
3113.000000	0.023247
3112.000000	0.023195
3111.000000	0.023140
3110.000000	0.023102
3109.000000	0.023111
3108.000000	0.023149
3107.000000	0.023169
3106.000000	0.023153
3105.000000	0.023126
3104.000000	0.023105
3103.000000	0.023107
3102.000000	0.023144
3101.000000	0.023210
3100.000000	0.023256
3099.000000	0.023238
3098.000000	0.023176
3097.000000	0.023147
3096.000000	0.023192
3095.000000	0.023265
3094.000000	0.023302
3093.000000	0.023283
3092.000000	0.023232
3091.000000	0.023174
3090.000000	0.023130
3089.000000	0.023111
3088.000000	0.023111
3087.000000	0.023115
3086.000000	0.023123
3085.000000	0.023148
3084.000000	0.023186
3083.000000	0.023212
3082.000000	0.023215
3081.000000	0.023205
3080.000000	0.023196
3079.000000	0.023191
3078.000000	0.023196
3077.000000	0.023207
3076.000000	0.023203
3075.000000	0.023160
3074.000000	0.023099
3073.000000	0.023057
3072.000000	0.023040
3071.000000	0.023021
3070.000000	0.022994
3069.000000	0.022976
3068.000000	0.022977
3067.000000	0.022987
3066.000000	0.023002
3065.000000	0.023025
3064.000000	0.023050
3063.000000	0.023051
3062.000000	0.023015
3061.000000	0.022948
3060.000000	0.022864
3059.000000	0.022769
3058.000000	0.022680
3057.000000	0.022622
3056.000000	0.022599
3055.000000	0.022579
3054.000000	0.022536
3053.000000	0.022465
3052.000000	0.022379
3051.000000	0.022289
3050.000000	0.022202
3049.000000	0.022122
3048.000000	0.022042
3047.000000	0.021945
3046.000000	0.021837
3045.000000	0.021746
3044.000000	0.021679
3043.000000	0.021613
3042.000000	0.021532
3041.000000	0.021446
3040.000000	0.021360
3039.000000	0.021255
3038.000000	0.021128
3037.000000	0.021018
3036.000000	0.020961
3035.000000	0.020943
3034.000000	0.020921
3033.000000	0.020894
3032.000000	0.020879
3031.000000	0.020861
3030.000000	0.020798
3029.000000	0.020670
3028.000000	0.020498
3027.000000	0.020327
3026.000000	0.020201
3025.000000	0.020134
3024.000000	0.020098
3023.000000	0.020052
3022.000000	0.019985
3021.000000	0.019915
3020.000000	0.019871
3019.000000	0.019868
3018.000000	0.019907
3017.000000	0.019972
3016.000000	0.020035
3015.000000	0.020076
3014.000000	0.020100
3013.000000	0.020132
3012.000000	0.020177
3011.000000	0.020211
3010.000000	0.020205
3009.000000	0.020148
3008.000000	0.020052
3007.000000	0.019948
3006.000000	0.019874
3005.000000	0.019848
3004.000000	0.019841
3003.000000	0.019811
3002.000000	0.019753
3001.000000	0.019693
3000.000000	0.019660
2999.000000	0.019659
2998.000000	0.019686
2997.000000	0.019740
2996.000000	0.019804
2995.000000	0.019851
2994.000000	0.019872
2993.000000	0.019885
2992.000000	0.019909
2991.000000	0.019951
2990.000000	0.020018
2989.000000	0.020113
2988.000000	0.020212
2987.000000	0.020269
2986.000000	0.020274
2985.000000	0.020272
2984.000000	0.020316
2983.000000	0.020408
2982.000000	0.020519
2981.000000	0.020621
2980.000000	0.020702
2979.000000	0.020763
2978.000000	0.020813
2977.000000	0.020864
2976.000000	0.020905
2975.000000	0.020915
2974.000000	0.020885
2973.000000	0.020837
2972.000000	0.020804
2971.000000	0.020821
2970.000000	0.020911
2969.000000	0.021077
2968.000000	0.021288
2967.000000	0.021503
2966.000000	0.021712
2965.000000	0.021931
2964.000000	0.022162
2963.000000	0.022375
2962.000000	0.022552
2961.000000	0.022706
2960.000000	0.022853
2959.000000	0.022994
2958.000000	0.023125
2957.000000	0.023245
2956.000000	0.023349
2955.000000	0.023426
2954.000000	0.023474
2953.000000	0.023493
2952.000000	0.023471
2951.000000	0.023408
2950.000000	0.023335
2949.000000	0.023293
2948.000000	0.023279
2947.000000	0.023263
2946.000000	0.023248
2945.000000	0.023274
2944.000000	0.023364
2943.000000	0.023496
2942.000000	0.023631
2941.000000	0.023748
2940.000000	0.023854
2939.000000	0.023974
2938.000000	0.024145
2937.000000	0.024386
2936.000000	0.024672
2935.000000	0.024954
2934.000000	0.025204
2933.000000	0.025416
2932.000000	0.025592
2931.000000	0.025753
2930.000000	0.025954
2929.000000	0.026255
2928.000000	0.026649
2927.000000	0.027077
2926.000000	0.027491
2925.000000	0.027878
2924.000000	0.028233
2923.000000	0.028532
2922.000000	0.028761
2921.000000	0.028917
2920.000000	0.028988
2919.000000	0.028955
2918.000000	0.028815
2917.000000	0.028574
2916.000000	0.028227
2915.000000	0.027782
2914.000000	0.027280
2913.000000	0.026778
2912.000000	0.026301
2911.000000	0.025847
2910.000000	0.025428
2909.000000	0.025074
2908.000000	0.024794
2907.000000	0.024558
2906.000000	0.024344
2905.000000	0.024149
2904.000000	0.023969
2903.000000	0.023802
2902.000000	0.023653
2901.000000	0.023523
2900.000000	0.023393
2899.000000	0.023247
2898.000000	0.023110
2897.000000	0.023017
2896.000000	0.022962
2895.000000	0.022901
2894.000000	0.022817
2893.000000	0.022729
2892.000000	0.022651
2891.000000	0.022572
2890.000000	0.022487
2889.000000	0.022413
2888.000000	0.022367
2887.000000	0.022338
2886.000000	0.022311
2885.000000	0.022273
2884.000000	0.022215
2883.000000	0.022147
2882.000000	0.022096
2881.000000	0.022074
2880.000000	0.022051
2879.000000	0.021986
2878.000000	0.021885
2877.000000	0.021794
2876.000000	0.021747
2875.000000	0.021742
2874.000000	0.021758
2873.000000	0.021766
2872.000000	0.021729
2871.000000	0.021624
2870.000000	0.021472
2869.000000	0.021321
2868.000000	0.021194
2867.000000	0.021087
2866.000000	0.021007
2865.000000	0.020984
2864.000000	0.021039
2863.000000	0.021171
2862.000000	0.021371
2861.000000	0.021613
2860.000000	0.021853
2859.000000	0.022063
2858.000000	0.022263
2857.000000	0.022486
2856.000000	0.022734
2855.000000	0.022980
2854.000000	0.023214
2853.000000	0.023432
2852.000000	0.023609
2851.000000	0.023698
2850.000000	0.023677
2849.000000	0.023542
2848.000000	0.023286
2847.000000	0.022913
2846.000000	0.022472
2845.000000	0.022036
2844.000000	0.021638
2843.000000	0.021278
2842.000000	0.020955
2841.000000	0.020676
2840.000000	0.020433
2839.000000	0.020210
2838.000000	0.020013
2837.000000	0.019859
2836.000000	0.019735
2835.000000	0.019608
2834.000000	0.019479
2833.000000	0.019376
2832.000000	0.019303
2831.000000	0.019231
2830.000000	0.019145
2829.000000	0.019064
2828.000000	0.019009
2827.000000	0.018978
2826.000000	0.018964
2825.000000	0.018960
2824.000000	0.018955
2823.000000	0.018937
2822.000000	0.018901
2821.000000	0.018845
2820.000000	0.018758
2819.000000	0.018645
2818.000000	0.018544
2817.000000	0.018489
2816.000000	0.018466
2815.000000	0.018435
2814.000000	0.018386
2813.000000	0.018336
2812.000000	0.018289
2811.000000	0.018233
2810.000000	0.018168
2809.000000	0.018112
2808.000000	0.018067
2807.000000	0.018016
2806.000000	0.017959
2805.000000	0.017904
2804.000000	0.017855
2803.000000	0.017814
2802.000000	0.017795
2801.000000	0.017808
2800.000000	0.017830
2799.000000	0.017832
2798.000000	0.017821
2797.000000	0.017830
2796.000000	0.017859
2795.000000	0.017873
2794.000000	0.017849
2793.000000	0.017798
2792.000000	0.017737
2791.000000	0.017680
2790.000000	0.017645
2789.000000	0.017643
2788.000000	0.017653
2787.000000	0.017642
2786.000000	0.017608
2785.000000	0.017570
2784.000000	0.017542
2783.000000	0.017515
2782.000000	0.017486
2781.000000	0.017461
2780.000000	0.017434
2779.000000	0.017395
2778.000000	0.017347
2777.000000	0.017305
2776.000000	0.017271
2775.000000	0.017245
2774.000000	0.017232
2773.000000	0.017232
2772.000000	0.017221
2771.000000	0.017179
2770.000000	0.017123
2769.000000	0.017086
2768.000000	0.017075
2767.000000	0.017069
2766.000000	0.017060
2765.000000	0.017052
2764.000000	0.017039
2763.000000	0.017013
2762.000000	0.016982
2761.000000	0.016960
2760.000000	0.016940
2759.000000	0.016909
2758.000000	0.016872
2757.000000	0.016847
2756.000000	0.016834
2755.000000	0.016817
2754.000000	0.016796
2753.000000	0.016776
2752.000000	0.016754
2751.000000	0.016724
2750.000000	0.016691
2749.000000	0.016661
2748.000000	0.016629
2747.000000	0.016602
2746.000000	0.016601
2745.000000	0.016634
2744.000000	0.016666
2743.000000	0.016662
2742.000000	0.016632
2741.000000	0.016606
2740.000000	0.016588
2739.000000	0.016564
2738.000000	0.016532
2737.000000	0.016500
2736.000000	0.016466
2735.000000	0.016436
2734.000000	0.016431
2733.000000	0.016455
2732.000000	0.016470
2731.000000	0.016440
2730.000000	0.016391
2729.000000	0.016372
2728.000000	0.016384
2727.000000	0.016388
2726.000000	0.016362
2725.000000	0.016321
2724.000000	0.016278
2723.000000	0.016238
2722.000000	0.016221
2721.000000	0.016245
2720.000000	0.016290
2719.000000	0.016312
2718.000000	0.016295
2717.000000	0.016259
2716.000000	0.016221
2715.000000	0.016187
2714.000000	0.016165
2713.000000	0.016158
2712.000000	0.016150
2711.000000	0.016128
2710.000000	0.016105
2709.000000	0.016101
2708.000000	0.016109
2707.000000	0.016107
2706.000000	0.016094
2705.000000	0.016077
2704.000000	0.016049
2703.000000	0.016005
2702.000000	0.015968
2701.000000	0.015965
2700.000000	0.015982
2699.000000	0.015984
2698.000000	0.015961
2697.000000	0.015930
2696.000000	0.015898
2695.000000	0.015867
2694.000000	0.015853
2693.000000	0.015869
2692.000000	0.015895
2691.000000	0.015897
2690.000000	0.015874
2689.000000	0.015851
2688.000000	0.015836
2687.000000	0.015821
2686.000000	0.015810
2685.000000	0.015816
2684.000000	0.015831
2683.000000	0.015837
2682.000000	0.015837
2681.000000	0.015839
2680.000000	0.015836
2679.000000	0.015814
2678.000000	0.015782
2677.000000	0.015762
2676.000000	0.015754
2675.000000	0.015740
2674.000000	0.015717
2673.000000	0.015689
2672.000000	0.015652
2671.000000	0.015604
2670.000000	0.015559
2669.000000	0.015532
2668.000000	0.015512
2667.000000	0.015482
2666.000000	0.015434
2665.000000	0.015354
2664.000000	0.015209
2663.000000	0.014987
2662.000000	0.014734
2661.000000	0.014518
2660.000000	0.014359
2659.000000	0.014235
2658.000000	0.014127
2657.000000	0.014034
2656.000000	0.013948
2655.000000	0.013855
2654.000000	0.013751
2653.000000	0.013644
2652.000000	0.013538
2651.000000	0.013441
2650.000000	0.013375
2649.000000	0.013341
2648.000000	0.013310
2647.000000	0.013255
2646.000000	0.013189
2645.000000	0.013137
2644.000000	0.013096
2643.000000	0.013056
2642.000000	0.013028
2641.000000	0.013026
2640.000000	0.013022
2639.000000	0.012986
2638.000000	0.012925
2637.000000	0.012866
2636.000000	0.012810
2635.000000	0.012746
2634.000000	0.012689
2633.000000	0.012666
2632.000000	0.012670
2631.000000	0.012671
2630.000000	0.012652
2629.000000	0.012616
2628.000000	0.012568
2627.000000	0.012530
2626.000000	0.012537
2625.000000	0.012587
2624.000000	0.012619
2623.000000	0.012582
2622.000000	0.012496
2621.000000	0.012423
2620.000000	0.012389
2619.000000	0.012390
2618.000000	0.012420
2617.000000	0.012468
2616.000000	0.012497
2615.000000	0.012496
2614.000000	0.012498
2613.000000	0.012513
2612.000000	0.012502
2611.000000	0.012445
2610.000000	0.012410
2609.000000	0.012460
2608.000000	0.012561
2607.000000	0.012628
2606.000000	0.012642
2605.000000	0.012645
2604.000000	0.012650
2603.000000	0.012645
2602.000000	0.012643
2601.000000	0.012661
2600.000000	0.012667
2599.000000	0.012620
2598.000000	0.012546
2597.000000	0.012509
2596.000000	0.012527
2595.000000	0.012566
2594.000000	0.012598
2593.000000	0.012613
2592.000000	0.012611
2591.000000	0.012605
2590.000000	0.012622
2589.000000	0.012652
2588.000000	0.012636
2587.000000	0.012560
2586.000000	0.012500
2585.000000	0.012520
2584.000000	0.012582
2583.000000	0.012613
2582.000000	0.012614
2581.000000	0.012625
2580.000000	0.012650
2579.000000	0.012678
2578.000000	0.012732
2577.000000	0.012826
2576.000000	0.012905
2575.000000	0.012906
2574.000000	0.012846
2573.000000	0.012782
2572.000000	0.012729
2571.000000	0.012668
2570.000000	0.012610
2569.000000	0.012578
2568.000000	0.012567
2567.000000	0.012590
2566.000000	0.012685
2565.000000	0.012838
2564.000000	0.012951
2563.000000	0.012962
2562.000000	0.012929
2561.000000	0.012929
2560.000000	0.012941
2559.000000	0.012911
2558.000000	0.012864
2557.000000	0.012840
2556.000000	0.012809
2555.000000	0.012738
2554.000000	0.012693
2553.000000	0.012759
2552.000000	0.012893
2551.000000	0.012976
2550.000000	0.012977
2549.000000	0.012960
2548.000000	0.012962
2547.000000	0.012958
2546.000000	0.012932
2545.000000	0.012896
2544.000000	0.012856
2543.000000	0.012824
2542.000000	0.012847
2541.000000	0.012939
2540.000000	0.013030
2539.000000	0.013041
2538.000000	0.012991
2537.000000	0.012954
2536.000000	0.012945
2535.000000	0.012934
2534.000000	0.012908
2533.000000	0.012874
2532.000000	0.012817
2531.000000	0.012749
2530.000000	0.012728
2529.000000	0.012781
2528.000000	0.012839
2527.000000	0.012836
2526.000000	0.012812
2525.000000	0.012841
2524.000000	0.012919
2523.000000	0.012989
2522.000000	0.013033
2521.000000	0.013058
2520.000000	0.013032
2519.000000	0.012944
2518.000000	0.012861
2517.000000	0.012851
2516.000000	0.012882
2515.000000	0.012883
2514.000000	0.012863
2513.000000	0.012883
2512.000000	0.012948
2511.000000	0.013010
2510.000000	0.013044
2509.000000	0.013055
2508.000000	0.013034
2507.000000	0.012993
2506.000000	0.012987
2505.000000	0.013044
2504.000000	0.013103
2503.000000	0.013089
2502.000000	0.013010
2501.000000	0.012918
2500.000000	0.012828
2499.000000	0.012753
2498.000000	0.012747
2497.000000	0.012839
2496.000000	0.012954
2495.000000	0.013001
2494.000000	0.012973
2493.000000	0.012907
2492.000000	0.012809
2491.000000	0.012680
2490.000000	0.012582
2489.000000	0.012574
2488.000000	0.012633
2487.000000	0.012704
2486.000000	0.012775
2485.000000	0.012845
2484.000000	0.012873
2483.000000	0.012841
2482.000000	0.012813
2481.000000	0.012845
2480.000000	0.012908
2479.000000	0.012944
2478.000000	0.012955
2477.000000	0.012962
2476.000000	0.012942
2475.000000	0.012880
2474.000000	0.012820
2473.000000	0.012790
2472.000000	0.012744
2471.000000	0.012656
2470.000000	0.012592
2469.000000	0.012612
2468.000000	0.012661
2467.000000	0.012652
2466.000000	0.012593
2465.000000	0.012553
2464.000000	0.012553
2463.000000	0.012574
2462.000000	0.012613
2461.000000	0.012653
2460.000000	0.012639
2459.000000	0.012563
2458.000000	0.012494
2457.000000	0.012475
2456.000000	0.012450
2455.000000	0.012366
2454.000000	0.012269
2453.000000	0.012211
2452.000000	0.012157
2451.000000	0.012069
2450.000000	0.012006
2449.000000	0.012026
2448.000000	0.012070
2447.000000	0.012065
2446.000000	0.012061
2445.000000	0.012148
2444.000000	0.012298
2443.000000	0.012407
2442.000000	0.012459
2441.000000	0.012523
2440.000000	0.012626
2439.000000	0.012721
2438.000000	0.012769
2437.000000	0.012752
2436.000000	0.012671
2435.000000	0.012581
2434.000000	0.012584
2433.000000	0.012706
2432.000000	0.012847
2431.000000	0.012924
2430.000000	0.012984
2429.000000	0.013092
2428.000000	0.013190
2427.000000	0.013176
2426.000000	0.013065
2425.000000	0.012959
2424.000000	0.012911
2423.000000	0.012918
2422.000000	0.012987
2421.000000	0.013101
2420.000000	0.013173
2419.000000	0.013136
2418.000000	0.013043
2417.000000	0.012988
2416.000000	0.012982
2415.000000	0.012981
2414.000000	0.012973
2413.000000	0.012963
2412.000000	0.012921
2411.000000	0.012843
2410.000000	0.012808
2409.000000	0.012882
2408.000000	0.013028
2407.000000	0.013175
2406.000000	0.013312
2405.000000	0.013445
2404.000000	0.013524
2403.000000	0.013527
2402.000000	0.013518
2401.000000	0.013551
2400.000000	0.013581
2399.000000	0.013555
2398.000000	0.013519
2397.000000	0.013526
2396.000000	0.013526
2395.000000	0.013462
2394.000000	0.013402
2393.000000	0.013441
2392.000000	0.013541
2391.000000	0.013581
2390.000000	0.013547
2389.000000	0.013520
2388.000000	0.013539
2387.000000	0.013567
2386.000000	0.013583
2385.000000	0.013601
2384.000000	0.013599
2383.000000	0.013558
2382.000000	0.013519
2381.000000	0.013532
2380.000000	0.013559
2379.000000	0.013503
2378.000000	0.013351
2377.000000	0.013164
2376.000000	0.012988
2375.000000	0.012857
2374.000000	0.012853
2373.000000	0.013015
2372.000000	0.013209
2371.000000	0.013269
2370.000000	0.013218
2369.000000	0.013218
2368.000000	0.013280
2367.000000	0.013271
2366.000000	0.013168
2365.000000	0.013057
2364.000000	0.012900
2363.000000	0.012550
2362.000000	0.012110
2361.000000	0.011917
2360.000000	0.012029
2359.000000	0.012238
2358.000000	0.012427
2357.000000	0.012706
2356.000000	0.013246
2355.000000	0.014028
2354.000000	0.014996
2353.000000	0.015888
2352.000000	0.015934
2351.000000	0.014417
2350.000000	0.011618
2349.000000	0.009015
2348.000000	0.008215
2347.000000	0.009848
2346.000000	0.012975
2345.000000	0.015418
2344.000000	0.015727
2343.000000	0.014476
2342.000000	0.013202
2341.000000	0.012584
2340.000000	0.012209
2339.000000	0.011808
2338.000000	0.011426
2337.000000	0.011140
2336.000000	0.010879
2335.000000	0.010650
2334.000000	0.010646
2333.000000	0.010971
2332.000000	0.011471
2331.000000	0.011830
2330.000000	0.011840
2329.000000	0.011454
2328.000000	0.010731
2327.000000	0.009732
2326.000000	0.008751
2325.000000	0.008018
2324.000000	0.007789
2323.000000	0.008007
2322.000000	0.008507
2321.000000	0.009026
2320.000000	0.009372
2319.000000	0.009550
2318.000000	0.009635
2317.000000	0.009751
2316.000000	0.009969
2315.000000	0.010315
2314.000000	0.010709
2313.000000	0.010938
2312.000000	0.010888
2311.000000	0.010618
2310.000000	0.010355
2309.000000	0.010154
2308.000000	0.009987
2307.000000	0.009800
2306.000000	0.009678
2305.000000	0.009614
2304.000000	0.009581
2303.000000	0.009548
2302.000000	0.009579
2301.000000	0.009646
2300.000000	0.009669
2299.000000	0.009613
2298.000000	0.009567
2297.000000	0.009558
2296.000000	0.009542
2295.000000	0.009474
2294.000000	0.009408
2293.000000	0.009337
2292.000000	0.009201
2291.000000	0.008994
2290.000000	0.008832
2289.000000	0.008773
2288.000000	0.008733
2287.000000	0.008624
2286.000000	0.008478
2285.000000	0.008376
2284.000000	0.008362
2283.000000	0.008474
2282.000000	0.008725
2281.000000	0.009012
2280.000000	0.009178
2279.000000	0.009234
2278.000000	0.009345
2277.000000	0.009559
2276.000000	0.009731
2275.000000	0.009784
2274.000000	0.009812
2273.000000	0.009886
2272.000000	0.009941
2271.000000	0.009947
2270.000000	0.009987
2269.000000	0.010066
2268.000000	0.010067
2267.000000	0.009976
2266.000000	0.009951
2265.000000	0.010065
2264.000000	0.010199
2263.000000	0.010279
2262.000000	0.010377
2261.000000	0.010485
2260.000000	0.010451
2259.000000	0.010252
2258.000000	0.010089
2257.000000	0.010106
2256.000000	0.010222
2255.000000	0.010383
2254.000000	0.010653
2253.000000	0.010968
2252.000000	0.011066
2251.000000	0.010853
2250.000000	0.010552
2249.000000	0.010344
2248.000000	0.010150
2247.000000	0.009910
2246.000000	0.009802
2245.000000	0.009956
2244.000000	0.010213
2243.000000	0.010348
2242.000000	0.010335
2241.000000	0.010224
2240.000000	0.010022
2239.000000	0.009828
2238.000000	0.009830
2237.000000	0.010010
2236.000000	0.010112
2235.000000	0.010041
2234.000000	0.010007
2233.000000	0.010138
2232.000000	0.010275
2231.000000	0.010306
2230.000000	0.010368
2229.000000	0.010532
2228.000000	0.010633
2227.000000	0.010599
2226.000000	0.010606
2225.000000	0.010726
2224.000000	0.010759
2223.000000	0.010614
2222.000000	0.010514
2221.000000	0.010611
2220.000000	0.010731
2219.000000	0.010709
2218.000000	0.010636
2217.000000	0.010587
2216.000000	0.010452
2215.000000	0.010236
2214.000000	0.010151
2213.000000	0.010225
2212.000000	0.010192
2211.000000	0.009962
2210.000000	0.009795
2209.000000	0.009826
2208.000000	0.009820
2207.000000	0.009657
2206.000000	0.009591
2205.000000	0.009796
2204.000000	0.010060
2203.000000	0.010212
2202.000000	0.010391
2201.000000	0.010649
2200.000000	0.010715
2199.000000	0.010441
2198.000000	0.010071
2197.000000	0.009814
2196.000000	0.009558
2195.000000	0.009246
2194.000000	0.009099
2193.000000	0.009186
2192.000000	0.009231
2191.000000	0.009107
2190.000000	0.009075
2189.000000	0.009267
2188.000000	0.009413
2187.000000	0.009332
2186.000000	0.009236
2185.000000	0.009275
2184.000000	0.009335
2183.000000	0.009493
2182.000000	0.010050
2181.000000	0.010811
2180.000000	0.011046
2179.000000	0.010522
2178.000000	0.009921
2177.000000	0.009908
2176.000000	0.010351
2175.000000	0.010816
2174.000000	0.011147
2173.000000	0.011213
2172.000000	0.010742
2171.000000	0.009816
2170.000000	0.008962
2169.000000	0.008403
2168.000000	0.007765
2167.000000	0.006870
2166.000000	0.006172
2165.000000	0.005952
2164.000000	0.005723
2163.000000	0.005063
2162.000000	0.004466
2161.000000	0.004881
2160.000000	0.006793
2159.000000	0.010060
2158.000000	0.013937
2157.000000	0.017056
2156.000000	0.018367
2155.000000	0.018184
2154.000000	0.017619
2153.000000	0.017146
2152.000000	0.016429
2151.000000	0.015390
2150.000000	0.014563
2149.000000	0.014240
2148.000000	0.014103
2147.000000	0.013976
2146.000000	0.014166
2145.000000	0.014744
2144.000000	0.015222
2143.000000	0.015252
2142.000000	0.015015
2141.000000	0.014717
2140.000000	0.014307
2139.000000	0.013882
2138.000000	0.013820
2137.000000	0.014245
2136.000000	0.014865
2135.000000	0.015474
2134.000000	0.016107
2133.000000	0.016591
2132.000000	0.016559
2131.000000	0.016023
2130.000000	0.015433
2129.000000	0.015052
2128.000000	0.014701
2127.000000	0.014249
2126.000000	0.013871
2125.000000	0.013672
2124.000000	0.013494
2123.000000	0.013259
2122.000000	0.013122
2121.000000	0.013106
2120.000000	0.012983
2119.000000	0.012665
2118.000000	0.012344
2117.000000	0.012103
2116.000000	0.011773
2115.000000	0.011330
2114.000000	0.011049
2113.000000	0.011060
2112.000000	0.011133
2111.000000	0.011082
2110.000000	0.011048
2109.000000	0.011143
2108.000000	0.011211
2107.000000	0.011151
2106.000000	0.011133
2105.000000	0.011276
2104.000000	0.011433
2103.000000	0.011480
2102.000000	0.011481
2101.000000	0.011415
2100.000000	0.011132
2099.000000	0.010728
2098.000000	0.010604
2097.000000	0.010930
2096.000000	0.011409
2095.000000	0.011772
2094.000000	0.012048
2093.000000	0.012221
2092.000000	0.012089
2091.000000	0.011674
2090.000000	0.011321
2089.000000	0.011219
2088.000000	0.011162
2087.000000	0.010990
2086.000000	0.010829
2085.000000	0.010723
2084.000000	0.010446
2083.000000	0.009938
2082.000000	0.009502
2081.000000	0.009345
2080.000000	0.009309
2079.000000	0.009250
2078.000000	0.009303
2077.000000	0.009504
2076.000000	0.009600
2075.000000	0.009490
2074.000000	0.009382
2073.000000	0.009380
2072.000000	0.009307
2071.000000	0.009150
2070.000000	0.009196
2069.000000	0.009487
2068.000000	0.009654
2067.000000	0.009547
2066.000000	0.009494
2065.000000	0.009680
2064.000000	0.009796
2063.000000	0.009606
2062.000000	0.009331
2061.000000	0.009196
2060.000000	0.009094
2059.000000	0.008953
2058.000000	0.008904
2057.000000	0.008888
2056.000000	0.008637
2055.000000	0.008201
2054.000000	0.007842
2053.000000	0.007353
2052.000000	0.006255
2051.000000	0.004857
2050.000000	0.004338
2049.000000	0.005276
2048.000000	0.006734
2047.000000	0.007589
2046.000000	0.007843
2045.000000	0.007895
2044.000000	0.007649
2043.000000	0.007098
2042.000000	0.006828
2041.000000	0.007119
2040.000000	0.007347
2039.000000	0.007081
2038.000000	0.006837
2037.000000	0.007067
2036.000000	0.007352
2035.000000	0.007358
2034.000000	0.007602
2033.000000	0.008359
2032.000000	0.008916
2031.000000	0.008812
2030.000000	0.008677
2029.000000	0.009071
2028.000000	0.009509
2027.000000	0.009487
2026.000000	0.009345
2025.000000	0.009449
2024.000000	0.009498
2023.000000	0.009322
2022.000000	0.009403
2021.000000	0.009903
2020.000000	0.010197
2019.000000	0.009973
2018.000000	0.009787
2017.000000	0.009947
2016.000000	0.009928
2015.000000	0.009527
2014.000000	0.009365
2013.000000	0.009692
2012.000000	0.009847
2011.000000	0.009507
2010.000000	0.009349
2009.000000	0.009901
2008.000000	0.010727
2007.000000	0.011396
2006.000000	0.012100
2005.000000	0.012808
2004.000000	0.013013
2003.000000	0.012685
2002.000000	0.012487
2001.000000	0.012515
2000.000000	0.012122
1999.000000	0.011174
1998.000000	0.010358
1997.000000	0.010084
1996.000000	0.009940
1995.000000	0.009622
1994.000000	0.009445
1993.000000	0.009563
1992.000000	0.009541
1991.000000	0.009226
1990.000000	0.009119
1989.000000	0.009361
1988.000000	0.009368
1987.000000	0.008895
1986.000000	0.008494
1985.000000	0.008418
1984.000000	0.008089
1983.000000	0.007102
1982.000000	0.005964
1981.000000	0.005176
1980.000000	0.004721
1979.000000	0.004795
1978.000000	0.005973
1977.000000	0.008046
1976.000000	0.009729
1975.000000	0.010368
1974.000000	0.010569
1973.000000	0.010847
1972.000000	0.010909
1971.000000	0.010633
1970.000000	0.010538
1969.000000	0.010818
1968.000000	0.010960
1967.000000	0.010769
1966.000000	0.010756
1965.000000	0.011113
1964.000000	0.011327
1963.000000	0.011212
1962.000000	0.011338
1961.000000	0.012053
1960.000000	0.012962
1959.000000	0.013662
1958.000000	0.014170
1957.000000	0.014373
1956.000000	0.013922
1955.000000	0.012977
1954.000000	0.012187
1953.000000	0.011857
1952.000000	0.011635
1951.000000	0.011361
1950.000000	0.011435
1949.000000	0.011894
1948.000000	0.012148
1947.000000	0.011936
1946.000000	0.011692
1945.000000	0.011715
1944.000000	0.011732
1943.000000	0.011572
1942.000000	0.011516
1941.000000	0.011639
1940.000000	0.011670
1939.000000	0.011536
1938.000000	0.011501
1937.000000	0.011676
1936.000000	0.011820
1935.000000	0.011844
1934.000000	0.011924
1933.000000	0.012126
1932.000000	0.012151
1931.000000	0.011935
1930.000000	0.011902
1929.000000	0.012038
1928.000000	0.012010
1927.000000	0.011716
1926.000000	0.011576
1925.000000	0.011756
1924.000000	0.011732
1923.000000	0.011325
1922.000000	0.010999
1921.000000	0.010991
1920.000000	0.010939
1919.000000	0.010586
1918.000000	0.010349
1917.000000	0.010460
1916.000000	0.010571
1915.000000	0.010558
1914.000000	0.010608
1913.000000	0.010743
1912.000000	0.010692
1911.000000	0.010489
1910.000000	0.010574
1909.000000	0.010890
1908.000000	0.011034
1907.000000	0.010853
1906.000000	0.010724
1905.000000	0.010804
1904.000000	0.010649
1903.000000	0.010303
1902.000000	0.010326
1901.000000	0.010671
1900.000000	0.010780
1899.000000	0.010467
1898.000000	0.010202
1897.000000	0.010249
1896.000000	0.010200
1895.000000	0.009907
1894.000000	0.009789
1893.000000	0.009981
1892.000000	0.010075
1891.000000	0.009914
1890.000000	0.009911
1889.000000	0.010176
1888.000000	0.010263
1887.000000	0.010161
1886.000000	0.010271
1885.000000	0.010564
1884.000000	0.010544
1883.000000	0.010215
1882.000000	0.010124
1881.000000	0.010315
1880.000000	0.010372
1879.000000	0.010202
1878.000000	0.010126
1877.000000	0.010298
1876.000000	0.010338
1875.000000	0.010046
1874.000000	0.009839
1873.000000	0.009962
1872.000000	0.010033
1871.000000	0.009762
1870.000000	0.009547
1869.000000	0.009781
1868.000000	0.010011
1867.000000	0.009970
1866.000000	0.010115
1865.000000	0.010470
1864.000000	0.010505
1863.000000	0.010136
1862.000000	0.009920
1861.000000	0.010043
1860.000000	0.010044
1859.000000	0.009772
1858.000000	0.009679
1857.000000	0.009887
1856.000000	0.009940
1855.000000	0.009686
1854.000000	0.009647
1853.000000	0.009808
1852.000000	0.009842
1851.000000	0.009751
1850.000000	0.009686
1849.000000	0.009691
1848.000000	0.009641
1847.000000	0.009622
1846.000000	0.009730
1845.000000	0.009776
1844.000000	0.009575
1843.000000	0.009279
1842.000000	0.009411
1841.000000	0.009881
1840.000000	0.010103
1839.000000	0.009851
1838.000000	0.009667
1837.000000	0.009823
1836.000000	0.009840
1835.000000	0.009557
1834.000000	0.009370
1833.000000	0.009381
1832.000000	0.009417
1831.000000	0.009304
1830.000000	0.009215
1829.000000	0.009296
1828.000000	0.009395
1827.000000	0.009444
1826.000000	0.009424
1825.000000	0.009495
1824.000000	0.009559
1823.000000	0.009458
1822.000000	0.009425
1821.000000	0.009616
1820.000000	0.009916
1819.000000	0.010076
1818.000000	0.010339
1817.000000	0.010868
1816.000000	0.011045
1815.000000	0.010614
1814.000000	0.010033
1813.000000	0.009879
1812.000000	0.009966
1811.000000	0.009733
1810.000000	0.009520
1809.000000	0.009695
1808.000000	0.009767
1807.000000	0.009414
1806.000000	0.009072
1805.000000	0.009097
1804.000000	0.009005
1803.000000	0.008630
1802.000000	0.008372
1801.000000	0.008645
1800.000000	0.009022
1799.000000	0.008963
1798.000000	0.008826
1797.000000	0.008936
1796.000000	0.008967
1795.000000	0.008737
1794.000000	0.008366
1793.000000	0.008278
1792.000000	0.008410
1791.000000	0.008312
1790.000000	0.008305
1789.000000	0.008613
1788.000000	0.008740
1787.000000	0.008394
1786.000000	0.008055
1785.000000	0.008075
1784.000000	0.007979
1783.000000	0.007890
1782.000000	0.007943
1781.000000	0.008146
1780.000000	0.008357
1779.000000	0.008301
1778.000000	0.008199
1777.000000	0.008110
1776.000000	0.008110
1775.000000	0.008192
1774.000000	0.007865
1773.000000	0.007186
1772.000000	0.007044
1771.000000	0.007187
1770.000000	0.007393
1769.000000	0.007757
1768.000000	0.007857
1767.000000	0.007512
1766.000000	0.007038
1765.000000	0.006987
1764.000000	0.007143
1763.000000	0.007019
1762.000000	0.006548
1761.000000	0.006266
1760.000000	0.006341
1759.000000	0.006585
1758.000000	0.006707
1757.000000	0.006498
1756.000000	0.006351
1755.000000	0.006378
1754.000000	0.006356
1753.000000	0.006014
1752.000000	0.005741
1751.000000	0.005857
1750.000000	0.006318
1749.000000	0.006946
1748.000000	0.007488
1747.000000	0.007842
1746.000000	0.007672
1745.000000	0.007319
1744.000000	0.007283
1743.000000	0.007349
1742.000000	0.007207
1741.000000	0.007054
1740.000000	0.006866
1739.000000	0.006481
1738.000000	0.006196
1737.000000	0.006486
1736.000000	0.006620
1735.000000	0.005869
1734.000000	0.005578
1733.000000	0.005712
1732.000000	0.006150
1731.000000	0.006970
1730.000000	0.007617
1729.000000	0.007662
1728.000000	0.007339
1727.000000	0.007125
1726.000000	0.006907
1725.000000	0.006881
1724.000000	0.006951
1723.000000	0.006722
1722.000000	0.006533
1721.000000	0.006805
1720.000000	0.007023
1719.000000	0.006330
1718.000000	0.005836
1717.000000	0.006702
1716.000000	0.007544
1715.000000	0.007783
1714.000000	0.008260
1713.000000	0.009097
1712.000000	0.009518
1711.000000	0.009379
1710.000000	0.009354
1709.000000	0.009706
1708.000000	0.010236
1707.000000	0.010649
1706.000000	0.011271
1705.000000	0.012220
1704.000000	0.012865
1703.000000	0.013385
1702.000000	0.013561
1701.000000	0.013414
1700.000000	0.013931
1699.000000	0.014267
1698.000000	0.015867
1697.000000	0.018476
1696.000000	0.019827
1695.000000	0.019484
1694.000000	0.019347
1693.000000	0.020626
1692.000000	0.022166
1691.000000	0.022953
1690.000000	0.023534
1689.000000	0.024347
1688.000000	0.025586
1687.000000	0.026724
1686.000000	0.026879
1685.000000	0.026647
1684.000000	0.027854
1683.000000	0.029308
1682.000000	0.030738
1681.000000	0.032233
1680.000000	0.033411
1679.000000	0.034372
1678.000000	0.035273
1677.000000	0.035991
1676.000000	0.036617
1675.000000	0.037744
1674.000000	0.038768
1673.000000	0.039857
1672.000000	0.041354
1671.000000	0.043021
1670.000000	0.044765
1669.000000	0.046170
1668.000000	0.047114
1667.000000	0.048086
1666.000000	0.049147
1665.000000	0.050161
1664.000000	0.050946
1663.000000	0.052089
1662.000000	0.053538
1661.000000	0.054519
1660.000000	0.055443
1659.000000	0.056524
1658.000000	0.057339
1657.000000	0.057966
1656.000000	0.059140
1655.000000	0.059933
1654.000000	0.059660
1653.000000	0.060610
1652.000000	0.059900
1651.000000	0.059279
1650.000000	0.060625
1649.000000	0.062518
1648.000000	0.063736
1647.000000	0.064532
1646.000000	0.064801
1645.000000	0.064500
1644.000000	0.064321
1643.000000	0.064608
1642.000000	0.065038
1641.000000	0.065016
1640.000000	0.064846
1639.000000	0.064849
1638.000000	0.065097
1637.000000	0.065148
1636.000000	0.065354
1635.000000	0.065351
1634.000000	0.064695
1633.000000	0.064417
1632.000000	0.064394
1631.000000	0.064165
1630.000000	0.063695
1629.000000	0.063084
1628.000000	0.062249
1627.000000	0.061408
1626.000000	0.060612
1625.000000	0.059647
1624.000000	0.058444
1623.000000	0.057338
1622.000000	0.056245
1621.000000	0.055004
1620.000000	0.054096
1619.000000	0.053383
1618.000000	0.052148
1617.000000	0.050110
1616.000000	0.047953
1615.000000	0.046555
1614.000000	0.046080
1613.000000	0.045629
1612.000000	0.044529
1611.000000	0.043403
1610.000000	0.042723
1609.000000	0.042033
1608.000000	0.041065
1607.000000	0.040335
1606.000000	0.039778
1605.000000	0.038874
1604.000000	0.037935
1603.000000	0.037384
1602.000000	0.036985
1601.000000	0.036353
1600.000000	0.035666
1599.000000	0.035290
1598.000000	0.035054
1597.000000	0.034665
1596.000000	0.034245
1595.000000	0.034101
1594.000000	0.034129
1593.000000	0.033969
1592.000000	0.033664
1591.000000	0.033584
1590.000000	0.033738
1589.000000	0.033765
1588.000000	0.033666
1587.000000	0.033760
1586.000000	0.034142
1585.000000	0.034228
1584.000000	0.034168
1583.000000	0.034597
1582.000000	0.035191
1581.000000	0.035308
1580.000000	0.035403
1579.000000	0.036122
1578.000000	0.036821
1577.000000	0.036799
1576.000000	0.036613
1575.000000	0.036827
1574.000000	0.037401
1573.000000	0.038192
1572.000000	0.038892
1571.000000	0.039339
1570.000000	0.039990
1569.000000	0.040446
1568.000000	0.040818
1567.000000	0.041710
1566.000000	0.042850
1565.000000	0.043437
1564.000000	0.043918
1563.000000	0.044821
1562.000000	0.045821
1561.000000	0.044797
1560.000000	0.042715
1559.000000	0.045133
1558.000000	0.047731
1557.000000	0.047810
1556.000000	0.048472
1555.000000	0.049803
1554.000000	0.050422
1553.000000	0.050338
1552.000000	0.050812
1551.000000	0.051754
1550.000000	0.052554
1549.000000	0.052813
1548.000000	0.052784
1547.000000	0.052924
1546.000000	0.053091
1545.000000	0.053114
1544.000000	0.053315
1543.000000	0.053488
1542.000000	0.053446
1541.000000	0.053710
1540.000000	0.054416
1539.000000	0.054115
1538.000000	0.052940
1537.000000	0.052584
1536.000000	0.052878
1535.000000	0.053007
1534.000000	0.052752
1533.000000	0.052547
1532.000000	0.052215
1531.000000	0.051680
1530.000000	0.051273
1529.000000	0.051050
1528.000000	0.050719
1527.000000	0.050218
1526.000000	0.049611
1525.000000	0.049075
1524.000000	0.048827
1523.000000	0.048543
1522.000000	0.048059
1521.000000	0.047390
1520.000000	0.046444
1519.000000	0.045988
1518.000000	0.046126
1517.000000	0.046375
1516.000000	0.046123
1515.000000	0.045375
1514.000000	0.044587
1513.000000	0.043970
1512.000000	0.043218
1511.000000	0.042143
1510.000000	0.041188
1509.000000	0.040647
1508.000000	0.040400
1507.000000	0.040360
1506.000000	0.039451
1505.000000	0.037461
1504.000000	0.036289
1503.000000	0.035941
1502.000000	0.035469
1501.000000	0.034605
1500.000000	0.033648
1499.000000	0.032653
1498.000000	0.031675
1497.000000	0.031386
1496.000000	0.031348
1495.000000	0.030920
1494.000000	0.030635
1493.000000	0.030881
1492.000000	0.031027
1491.000000	0.030625
1490.000000	0.030322
1489.000000	0.030592
1488.000000	0.030630
1487.000000	0.029952
1486.000000	0.029380
1485.000000	0.028967
1484.000000	0.028566
1483.000000	0.028262
1482.000000	0.028147
1481.000000	0.028243
1480.000000	0.028230
1479.000000	0.028046
1478.000000	0.027937
1477.000000	0.028211
1476.000000	0.028524
1475.000000	0.028747
1474.000000	0.029233
1473.000000	0.030302
1472.000000	0.031454
1471.000000	0.031922
1470.000000	0.032208
1469.000000	0.032819
1468.000000	0.033335
1467.000000	0.033490
1466.000000	0.033660
1465.000000	0.034146
1464.000000	0.034819
1463.000000	0.035133
1462.000000	0.035249
1461.000000	0.035484
1460.000000	0.035852
1459.000000	0.035985
1458.000000	0.036055
1457.000000	0.036783
1456.000000	0.037368
1455.000000	0.037767
1454.000000	0.038529
1453.000000	0.039360
1452.000000	0.039928
1451.000000	0.040122
1450.000000	0.040128
1449.000000	0.040357
1448.000000	0.040618
1447.000000	0.040685
1446.000000	0.040350
1445.000000	0.039890
1444.000000	0.039844
1443.000000	0.039805
1442.000000	0.039344
1441.000000	0.038745
1440.000000	0.038597
1439.000000	0.038457
1438.000000	0.037722
1437.000000	0.037019
1436.000000	0.036975
1435.000000	0.036994
1434.000000	0.036864
1433.000000	0.036796
1432.000000	0.036804
1431.000000	0.036697
1430.000000	0.036329
1429.000000	0.036028
1428.000000	0.035799
1427.000000	0.035654
1426.000000	0.035430
1425.000000	0.035142
1424.000000	0.035346
1423.000000	0.035719
1422.000000	0.035625
1421.000000	0.035013
1420.000000	0.034536
1419.000000	0.034559
1418.000000	0.034549
1417.000000	0.034698
1416.000000	0.035303
1415.000000	0.035729
1414.000000	0.035464
1413.000000	0.034992
1412.000000	0.035040
1411.000000	0.035319
1410.000000	0.035194
1409.000000	0.034943
1408.000000	0.034913
1407.000000	0.035077
1406.000000	0.035231
1405.000000	0.035385
1404.000000	0.035742
1403.000000	0.035973
1402.000000	0.035825
1401.000000	0.035486
1400.000000	0.035359
1399.000000	0.035440
1398.000000	0.035365
1397.000000	0.035244
1396.000000	0.035251
1395.000000	0.035260
1394.000000	0.034822
1393.000000	0.034091
1392.000000	0.033723
1391.000000	0.033650
1390.000000	0.033349
1389.000000	0.032758
1388.000000	0.032239
1387.000000	0.031953
1386.000000	0.031717
1385.000000	0.031483
1384.000000	0.031411
1383.000000	0.031295
1382.000000	0.030941
1381.000000	0.030473
1380.000000	0.030043
1379.000000	0.029647
1378.000000	0.029197
1377.000000	0.028735
1376.000000	0.028409
1375.000000	0.028350
1374.000000	0.028309
1373.000000	0.027998
1372.000000	0.027487
1371.000000	0.027085
1370.000000	0.026811
1369.000000	0.026447
1368.000000	0.026008
1367.000000	0.025544
1366.000000	0.025044
1365.000000	0.024585
1364.000000	0.024326
1363.000000	0.024326
1362.000000	0.024384
1361.000000	0.024305
1360.000000	0.024164
1359.000000	0.024081
1358.000000	0.024016
1357.000000	0.023924
1356.000000	0.023871
1355.000000	0.023911
1354.000000	0.023976
1353.000000	0.024079
1352.000000	0.024185
1351.000000	0.024361
1350.000000	0.024620
1349.000000	0.024863
1348.000000	0.025117
1347.000000	0.025409
1346.000000	0.025689
1345.000000	0.025891
1344.000000	0.026043
1343.000000	0.026207
1342.000000	0.026417
1341.000000	0.026720
1340.000000	0.027163
1339.000000	0.027646
1338.000000	0.027940
1337.000000	0.027998
1336.000000	0.027959
1335.000000	0.027892
1334.000000	0.027768
1333.000000	0.027597
1332.000000	0.027444
1331.000000	0.027323
1330.000000	0.027148
1329.000000	0.026900
1328.000000	0.026658
1327.000000	0.026494
1326.000000	0.026356
1325.000000	0.026181
1324.000000	0.026041
1323.000000	0.025971
1322.000000	0.025894
1321.000000	0.025790
1320.000000	0.025768
1319.000000	0.025858
1318.000000	0.025917
1317.000000	0.025852
1316.000000	0.025730
1315.000000	0.025620
1314.000000	0.025499
1313.000000	0.025367
1312.000000	0.025271
1311.000000	0.025195
1310.000000	0.025046
1309.000000	0.024840
1308.000000	0.024672
1307.000000	0.024572
1306.000000	0.024461
1305.000000	0.024308
1304.000000	0.024193
1303.000000	0.024123
1302.000000	0.024003
1301.000000	0.023809
1300.000000	0.023634
1299.000000	0.023514
1298.000000	0.023394
1297.000000	0.023279
1296.000000	0.023252
1295.000000	0.023313
1294.000000	0.023349
1293.000000	0.023328
1292.000000	0.023341
1291.000000	0.023441
1290.000000	0.023587
1289.000000	0.023766
1288.000000	0.024003
1287.000000	0.024242
1286.000000	0.024372
1285.000000	0.024414
1284.000000	0.024496
1283.000000	0.024642
1282.000000	0.024754
1281.000000	0.024798
1280.000000	0.024846
1279.000000	0.024910
1278.000000	0.024908
1277.000000	0.024818
1276.000000	0.024715
1275.000000	0.024635
1274.000000	0.024540
1273.000000	0.024453
1272.000000	0.024454
1271.000000	0.024523
1270.000000	0.024543
1269.000000	0.024487
1268.000000	0.024460
1267.000000	0.024521
1266.000000	0.024622
1265.000000	0.024754
1264.000000	0.024977
1263.000000	0.025281
1262.000000	0.025588
1261.000000	0.025893
1260.000000	0.026255
1259.000000	0.026633
1258.000000	0.026902
1257.000000	0.027055
1256.000000	0.027211
1255.000000	0.027409
1254.000000	0.027583
1253.000000	0.027733
1252.000000	0.027945
1251.000000	0.028225
1250.000000	0.028480
1249.000000	0.028691
1248.000000	0.028947
1247.000000	0.029269
1246.000000	0.029561
1245.000000	0.029779
1244.000000	0.029974
1243.000000	0.030156
1242.000000	0.030265
1241.000000	0.030298
1240.000000	0.030316
1239.000000	0.030307
1238.000000	0.030199
1237.000000	0.030009
1236.000000	0.029831
1235.000000	0.029674
1234.000000	0.029439
1233.000000	0.029098
1232.000000	0.028725
1231.000000	0.028355
1230.000000	0.027948
1229.000000	0.027507
1228.000000	0.027088
1227.000000	0.026693
1226.000000	0.026270
1225.000000	0.025832
1224.000000	0.025425
1223.000000	0.024995
1222.000000	0.024417
1221.000000	0.023677
1220.000000	0.022902
1219.000000	0.022215
1218.000000	0.021672
1217.000000	0.021326
1216.000000	0.021202
1215.000000	0.021206
1214.000000	0.021205
1213.000000	0.021187
1212.000000	0.021229
1211.000000	0.021314
1210.000000	0.021345
1209.000000	0.021322
1208.000000	0.021339
1207.000000	0.021409
1206.000000	0.021453
1205.000000	0.021456
1204.000000	0.021485
1203.000000	0.021538
1202.000000	0.021542
1201.000000	0.021479
1200.000000	0.021405
1199.000000	0.021316
1198.000000	0.021149
1197.000000	0.020908
1196.000000	0.020662
1195.000000	0.020416
1194.000000	0.020123
1193.000000	0.019810
1192.000000	0.019561
1191.000000	0.019372
1190.000000	0.019157
1189.000000	0.018901
1188.000000	0.018674
1187.000000	0.018484
1186.000000	0.018249
1185.000000	0.017938
1184.000000	0.017626
1183.000000	0.017408
1182.000000	0.017350
1181.000000	0.017490
1180.000000	0.017772
1179.000000	0.018011
1178.000000	0.018055
1177.000000	0.017962
1176.000000	0.017901
1175.000000	0.017927
1174.000000	0.017972
1173.000000	0.018019
1172.000000	0.018123
1171.000000	0.018275
1170.000000	0.018402
1169.000000	0.018514
1168.000000	0.018700
1167.000000	0.018982
1166.000000	0.019295
1165.000000	0.019611
1164.000000	0.019949
1163.000000	0.020272
1162.000000	0.020513
1161.000000	0.020697
1160.000000	0.020911
1159.000000	0.021148
1158.000000	0.021312
1157.000000	0.021366
1156.000000	0.021356
1155.000000	0.021300
1154.000000	0.021183
1153.000000	0.021053
1152.000000	0.020993
1151.000000	0.020991
1150.000000	0.020958
1149.000000	0.020861
1148.000000	0.020724
1147.000000	0.020537
1146.000000	0.020266
1145.000000	0.019962
1144.000000	0.019715
1143.000000	0.019516
1142.000000	0.019293
1141.000000	0.019041
1140.000000	0.018821
1139.000000	0.018636
1138.000000	0.018437
1137.000000	0.018243
1136.000000	0.018122
1135.000000	0.018055
1134.000000	0.017966
1133.000000	0.017853
1132.000000	0.017784
1131.000000	0.017774
1130.000000	0.017772
1129.000000	0.017780
1128.000000	0.017849
1127.000000	0.017967
1126.000000	0.018066
1125.000000	0.018130
1124.000000	0.018193
1123.000000	0.018251
1122.000000	0.018280
1121.000000	0.018327
1120.000000	0.018451
1119.000000	0.018612
1118.000000	0.018717
1117.000000	0.018772
1116.000000	0.018853
1115.000000	0.018968
1114.000000	0.019063
1113.000000	0.019135
1112.000000	0.019226
1111.000000	0.019329
1110.000000	0.019416
1109.000000	0.019532
1108.000000	0.019735
1107.000000	0.019968
1106.000000	0.020125
1105.000000	0.020215
1104.000000	0.020322
1103.000000	0.020450
1102.000000	0.020541
1101.000000	0.020608
1100.000000	0.020709
1099.000000	0.020824
1098.000000	0.020903
1097.000000	0.020980
1096.000000	0.021131
1095.000000	0.021338
1094.000000	0.021533
1093.000000	0.021736
1092.000000	0.022013
1091.000000	0.022352
1090.000000	0.022707
1089.000000	0.023117
1088.000000	0.023645
1087.000000	0.024230
1086.000000	0.024746
1085.000000	0.025175
1084.000000	0.025582
1083.000000	0.025976
1082.000000	0.026304
1081.000000	0.026566
1080.000000	0.026783
1079.000000	0.026903
1078.000000	0.026865
1077.000000	0.026710
1076.000000	0.026507
1075.000000	0.026210
1074.000000	0.025749
1073.000000	0.025202
1072.000000	0.024729
1071.000000	0.024386
1070.000000	0.024124
1069.000000	0.023937
1068.000000	0.023858
1067.000000	0.023856
1066.000000	0.023873
1065.000000	0.023936
1064.000000	0.024105
1063.000000	0.024335
1062.000000	0.024520
1061.000000	0.024636
1060.000000	0.024728
1059.000000	0.024785
1058.000000	0.024767
1057.000000	0.024715
1056.000000	0.024707
1055.000000	0.024751
1054.000000	0.024823
1053.000000	0.024974
1052.000000	0.025262
1051.000000	0.025652
1050.000000	0.026059
1049.000000	0.026477
1048.000000	0.026895
1047.000000	0.027182
1046.000000	0.027231
1045.000000	0.027135
1044.000000	0.027082
1043.000000	0.027130
1042.000000	0.027210
1041.000000	0.027297
1040.000000	0.027434
1039.000000	0.027614
1038.000000	0.027796
1037.000000	0.028009
1036.000000	0.028308
1035.000000	0.028659
1034.000000	0.028984
1033.000000	0.029297
1032.000000	0.029649
1031.000000	0.029992
1030.000000	0.030231
1029.000000	0.030371
1028.000000	0.030492
1027.000000	0.030604
1026.000000	0.030663
1025.000000	0.030694
1024.000000	0.030770
1023.000000	0.030881
1022.000000	0.030959
1021.000000	0.030991
1020.000000	0.031007
1019.000000	0.030995
1018.000000	0.030923
1017.000000	0.030819
1016.000000	0.030714
1015.000000	0.030556
1014.000000	0.030271
1013.000000	0.029888
1012.000000	0.029484
1011.000000	0.029071
1010.000000	0.028624
1009.000000	0.028184
1008.000000	0.027815
1007.000000	0.027498
1006.000000	0.027167
1005.000000	0.026814
1004.000000	0.026470
1003.000000	0.026125
1002.000000	0.025767
1001.000000	0.025445
1000.000000	0.025194
999.000000	0.024955
998.000000	0.024653
997.000000	0.024317
996.000000	0.024016
995.000000	0.023729
994.000000	0.023389
993.000000	0.023000
992.000000	0.022618
991.000000	0.022244
990.000000	0.021851
989.000000	0.021466
988.000000	0.021120
987.000000	0.020771
986.000000	0.020363
985.000000	0.019927
984.000000	0.019533
983.000000	0.019171
982.000000	0.018793
981.000000	0.018415
980.000000	0.018080
979.000000	0.017763
978.000000	0.017418
977.000000	0.017072
976.000000	0.016777
975.000000	0.016508
974.000000	0.016211
973.000000	0.015907
972.000000	0.015645
971.000000	0.015399
970.000000	0.015114
969.000000	0.014800
968.000000	0.014494
967.000000	0.014167
966.000000	0.013783
965.000000	0.013399
964.000000	0.013095
963.000000	0.012849
962.000000	0.012597
961.000000	0.012355
960.000000	0.012181
959.000000	0.012048
958.000000	0.011870
957.000000	0.011628
956.000000	0.011364
955.000000	0.011095
954.000000	0.010824
953.000000	0.010602
952.000000	0.010474
951.000000	0.010396
950.000000	0.010296
949.000000	0.010198
948.000000	0.010161
947.000000	0.010162
946.000000	0.010135
945.000000	0.010081
944.000000	0.010051
943.000000	0.010037
942.000000	0.010011
941.000000	0.010008
940.000000	0.010075
939.000000	0.010166
938.000000	0.010201
937.000000	0.010182
936.000000	0.010162
935.000000	0.010134
934.000000	0.010067
933.000000	0.010000
932.000000	0.009986
931.000000	0.009984
930.000000	0.009922
929.000000	0.009823
928.000000	0.009759
927.000000	0.009729
926.000000	0.009671
925.000000	0.009577
924.000000	0.009479
923.000000	0.009372
922.000000	0.009239
921.000000	0.009112
920.000000	0.009016
919.000000	0.008898
918.000000	0.008707
917.000000	0.008495
916.000000	0.008343
915.000000	0.008233
914.000000	0.008096
913.000000	0.007944
912.000000	0.007834
911.000000	0.007762
910.000000	0.007680
909.000000	0.007592
908.000000	0.007525
907.000000	0.007454
906.000000	0.007355
905.000000	0.007276
904.000000	0.007266
903.000000	0.007284
902.000000	0.007267
901.000000	0.007233
900.000000	0.007213
899.000000	0.007149
898.000000	0.006973
897.000000	0.006734
896.000000	0.006539
895.000000	0.006415
894.000000	0.006331
893.000000	0.006297
892.000000	0.006328
891.000000	0.006364
890.000000	0.006329
889.000000	0.006246
888.000000	0.006183
887.000000	0.006151
886.000000	0.006142
885.000000	0.006197
884.000000	0.006358
883.000000	0.006593
882.000000	0.006882
881.000000	0.007283
880.000000	0.007829
879.000000	0.008419
878.000000	0.008926
877.000000	0.009315
876.000000	0.009577
875.000000	0.009621
874.000000	0.009402
873.000000	0.009039
872.000000	0.008690
871.000000	0.008390
870.000000	0.008102
869.000000	0.007864
868.000000	0.007741
867.000000	0.007690
866.000000	0.007630
865.000000	0.007565
864.000000	0.007535
863.000000	0.007512
862.000000	0.007455
861.000000	0.007416
860.000000	0.007456
859.000000	0.007532
858.000000	0.007564
857.000000	0.007563
856.000000	0.007573
855.000000	0.007563
854.000000	0.007498
853.000000	0.007437
852.000000	0.007441
851.000000	0.007458
850.000000	0.007410
849.000000	0.007339
848.000000	0.007322
847.000000	0.007330
846.000000	0.007285
845.000000	0.007207
844.000000	0.007171
843.000000	0.007165
842.000000	0.007114
841.000000	0.007027
840.000000	0.006978
839.000000	0.006989
838.000000	0.007014
837.000000	0.007006
836.000000	0.006928
835.000000	0.006746
834.000000	0.006489
833.000000	0.006264
832.000000	0.006142
831.000000	0.006087
830.000000	0.006048
829.000000	0.006041
828.000000	0.006079
827.000000	0.006116
826.000000	0.006166
825.000000	0.006334
824.000000	0.006644
823.000000	0.006944
822.000000	0.007098
821.000000	0.007155
820.000000	0.007211
819.000000	0.007237
818.000000	0.007183
817.000000	0.007087
816.000000	0.006998
815.000000	0.006866
814.000000	0.006670
813.000000	0.006509
812.000000	0.006485
811.000000	0.006544
810.000000	0.006582
809.000000	0.006586
808.000000	0.006573
807.000000	0.006500
806.000000	0.006370
805.000000	0.006300
804.000000	0.006365
803.000000	0.006468
802.000000	0.006502
801.000000	0.006520
800.000000	0.006610
799.000000	0.006716
798.000000	0.006748
797.000000	0.006747
796.000000	0.006800
795.000000	0.006873
794.000000	0.006884
793.000000	0.006871
792.000000	0.006929
791.000000	0.007038
790.000000	0.007112
789.000000	0.007140
788.000000	0.007166
787.000000	0.007179
786.000000	0.007154
785.000000	0.007149
784.000000	0.007242
783.000000	0.007412
782.000000	0.007577
781.000000	0.007693
780.000000	0.007749
779.000000	0.007723
778.000000	0.007628
777.000000	0.007557
776.000000	0.007571
775.000000	0.007620
774.000000	0.007636
773.000000	0.007630
772.000000	0.007633
771.000000	0.007637
770.000000	0.007650
769.000000	0.007740
768.000000	0.007919
767.000000	0.008090
766.000000	0.008180
765.000000	0.008234
764.000000	0.008302
763.000000	0.008333
762.000000	0.008275
761.000000	0.008183
760.000000	0.008137
759.000000	0.008117
758.000000	0.008070
757.000000	0.008011
756.000000	0.007977
755.000000	0.007958
754.000000	0.007950
753.000000	0.007991
752.000000	0.008084
751.000000	0.008153
750.000000	0.008153
749.000000	0.008139
748.000000	0.008167
747.000000	0.008204
746.000000	0.008222
745.000000	0.008262
744.000000	0.008343
743.000000	0.008400
742.000000	0.008386
741.000000	0.008346
740.000000	0.008334
739.000000	0.008347
738.000000	0.008390
737.000000	0.008499
736.000000	0.008647
735.000000	0.008741
734.000000	0.008764
733.000000	0.008812
732.000000	0.008939
731.000000	0.009076
730.000000	0.009169
729.000000	0.009273
728.000000	0.009449
727.000000	0.009666
726.000000	0.009880
725.000000	0.010118
724.000000	0.010406
723.000000	0.010701
722.000000	0.010954
721.000000	0.011151
720.000000	0.011252
719.000000	0.011231
718.000000	0.011189
717.000000	0.011285
716.000000	0.011534
715.000000	0.011785
714.000000	0.011944
713.000000	0.012063
712.000000	0.012174
711.000000	0.012210
710.000000	0.012162
709.000000	0.012149
708.000000	0.012257
707.000000	0.012416
706.000000	0.012533
705.000000	0.012618
704.000000	0.012695
703.000000	0.012728
702.000000	0.012723
701.000000	0.012754
700.000000	0.012829
699.000000	0.012871
698.000000	0.012856
697.000000	0.012845
696.000000	0.012844
695.000000	0.012795
694.000000	0.012737
693.000000	0.012767
692.000000	0.012847
691.000000	0.012843
690.000000	0.012771
689.000000	0.012829
688.000000	0.013097
687.000000	0.013431
686.000000	0.013699
685.000000	0.013887
684.000000	0.013971
683.000000	0.013927
682.000000	0.013853
681.000000	0.013891
680.000000	0.014030
679.000000	0.014169
678.000000	0.014310
677.000000	0.014465
676.000000	0.014562
675.000000	0.014586
674.000000	0.014658
673.000000	0.014828
672.000000	0.014800
671.000000	0.014314
670.000000	0.013766
669.000000	0.014089
668.000000	0.014551
667.000000	0.014433
666.000000	0.014594
665.000000	0.014718
664.000000	0.014729
663.000000	0.014842
662.000000	0.014908
661.000000	0.014858
660.000000	0.014850
659.000000	0.014953
658.000000	0.015035
657.000000	0.015033
656.000000	0.015040
655.000000	0.015034
654.000000	0.014862
653.000000	0.014600
652.000000	0.014490
651.000000	0.014540
650.000000	0.014584
649.000000	0.014619
648.000000	0.014764
647.000000	0.014936
646.000000	0.014952
645.000000	0.014852
644.000000	0.014780
643.000000	0.014722
642.000000	0.014604
641.000000	0.014511
640.000000	0.014547
639.000000	0.014586
638.000000	0.014467
637.000000	0.014294
636.000000	0.014258
635.000000	0.014303
634.000000	0.014279
633.000000	0.014236
632.000000	0.014266
631.000000	0.014247
630.000000	0.014065
629.000000	0.013912
628.000000	0.014027
627.000000	0.014308
626.000000	0.014495
625.000000	0.014579
624.000000	0.014671
623.000000	0.014699
622.000000	0.014563
621.000000	0.014439
620.000000	0.014543
619.000000	0.014739
618.000000	0.014773
617.000000	0.014730
616.000000	0.014858
615.000000	0.015083
614.000000	0.015130
613.000000	0.015004
612.000000	0.014933
611.000000	0.014923
610.000000	0.014798
609.000000	0.014588
608.000000	0.014512
607.000000	0.014624
606.000000	0.014794
605.000000	0.015006
604.000000	0.015289
603.000000	0.015467
602.000000	0.015338
601.000000	0.015012
600.000000	0.014782
599.000000	0.014738
598.000000	0.014741
597.000000	0.014761
596.000000	0.014893
595.000000	0.015104
594.000000	0.015254
593.000000	0.015321
592.000000	0.015352
591.000000	0.015276
590.000000	0.015041
589.000000	0.014818
588.000000	0.014820
587.000000	0.014979
586.000000	0.015087
585.000000	0.015143
584.000000	0.015270
583.000000	0.015416
582.000000	0.015422
581.000000	0.015334
580.000000	0.015319
579.000000	0.015378
578.000000	0.015420
577.000000	0.015537
576.000000	0.015832
575.000000	0.016098
574.000000	0.016062
573.000000	0.015866
572.000000	0.015886
571.000000	0.016193
570.000000	0.016535
569.000000	0.016751
568.000000	0.016872
567.000000	0.016825
566.000000	0.016503
565.000000	0.016060
564.000000	0.015812
563.000000	0.015824
562.000000	0.015898
561.000000	0.015939
560.000000	0.015989
559.000000	0.015992
558.000000	0.015858
557.000000	0.015701
556.000000	0.015641
555.000000	0.015551
554.000000	0.015297
553.000000	0.015097
552.000000	0.015240
551.000000	0.015577
550.000000	0.015679
549.000000	0.015438
548.000000	0.015136
547.000000	0.014996
546.000000	0.015029
545.000000	0.015212
544.000000	0.015466
543.000000	0.015532
542.000000	0.015214
541.000000	0.014730
540.000000	0.014469
539.000000	0.014491
538.000000	0.014562
537.000000	0.014586
536.000000	0.014686
535.000000	0.014915
534.000000	0.015226
533.000000	0.015608
532.000000	0.015902
531.000000	0.015773
530.000000	0.015143
529.000000	0.014450
528.000000	0.014160
527.000000	0.014262
526.000000	0.014414
525.000000	0.014483
524.000000	0.014590
523.000000	0.014680
522.000000	0.014606
521.000000	0.014457
520.000000	0.014386
519.000000	0.014275
518.000000	0.013914
517.000000	0.013416
516.000000	0.013071
515.000000	0.012904
514.000000	0.012770
513.000000	0.012649
512.000000	0.012558
511.000000	0.012362
510.000000	0.011999
509.000000	0.011628
508.000000	0.011343
507.000000	0.011033
506.000000	0.010646
505.000000	0.010424
504.000000	0.010514
503.000000	0.010672
502.000000	0.010595
501.000000	0.010328
500.000000	0.010097
499.000000	0.009931
498.000000	0.009822
497.000000	0.009919
496.000000	0.010236
495.000000	0.010481
494.000000	0.010465
493.000000	0.010354
492.000000	0.010330
491.000000	0.010248
490.000000	0.009935
489.000000	0.009578
488.000000	0.009386
487.000000	0.009231
486.000000	0.008885
485.000000	0.008444
484.000000	0.008193
483.000000	0.008239
482.000000	0.008508
481.000000	0.008884
480.000000	0.009188
479.000000	0.009181
478.000000	0.008870
477.000000	0.008625
476.000000	0.008637
475.000000	0.008584
474.000000	0.008223
473.000000	0.007910
472.000000	0.008074
471.000000	0.008493
470.000000	0.008678
469.000000	0.008694
468.000000	0.008860
467.000000	0.009019
466.000000	0.008857
465.000000	0.008590
464.000000	0.008590
463.000000	0.008675
462.000000	0.008366
461.000000	0.007626
460.000000	0.006840
459.000000	0.006234
458.000000	0.005884
457.000000	0.005968
456.000000	0.006364
455.000000	0.006510
454.000000	0.006219
453.000000	0.005956
452.000000	0.006247
451.000000	0.006625
450.000000	0.006501
