PE IR       SUBTECH     SPECTRUM    ASCII       PEDS        4.00        
   -1
3C-N10-F006_1.ASC
22/02/16
15:22:25.00
22/02/16
15:56:00.00
uco
Sample 006 By uco Date Wednesday, February 16 2022
450.000000
#HDR
-1
-1
#GR
cm-1
A
1.0
0.0
4000.000000
-1.000000
3551
8
0.042457
0.003552
#DATA
4000.000000	0.004101
3999.000000	0.004104
3998.000000	0.004108
3997.000000	0.004127
3996.000000	0.004154
3995.000000	0.004177
3994.000000	0.004188
3993.000000	0.004185
3992.000000	0.004174
3991.000000	0.004162
3990.000000	0.004152
3989.000000	0.004147
3988.000000	0.004147
3987.000000	0.004153
3986.000000	0.004169
3985.000000	0.004194
3984.000000	0.004221
3983.000000	0.004237
3982.000000	0.004235
3981.000000	0.004218
3980.000000	0.004196
3979.000000	0.004180
3978.000000	0.004174
3977.000000	0.004178
3976.000000	0.004188
3975.000000	0.004199
3974.000000	0.004209
3973.000000	0.004216
3972.000000	0.004220
3971.000000	0.004218
3970.000000	0.004213
3969.000000	0.004205
3968.000000	0.004197
3967.000000	0.004189
3966.000000	0.004183
3965.000000	0.004182
3964.000000	0.004192
3963.000000	0.004213
3962.000000	0.004236
3961.000000	0.004251
3960.000000	0.004253
3959.000000	0.004246
3958.000000	0.004238
3957.000000	0.004235
3956.000000	0.004240
3955.000000	0.004252
3954.000000	0.004270
3953.000000	0.004286
3952.000000	0.004293
3951.000000	0.004286
3950.000000	0.004269
3949.000000	0.004251
3948.000000	0.004241
3947.000000	0.004242
3946.000000	0.004252
3945.000000	0.004269
3944.000000	0.004289
3943.000000	0.004311
3942.000000	0.004331
3941.000000	0.004345
3940.000000	0.004349
3939.000000	0.004341
3938.000000	0.004322
3937.000000	0.004302
3936.000000	0.004290
3935.000000	0.004286
3934.000000	0.004284
3933.000000	0.004275
3932.000000	0.004256
3931.000000	0.004232
3930.000000	0.004212
3929.000000	0.004200
3928.000000	0.004200
3927.000000	0.004211
3926.000000	0.004229
3925.000000	0.004247
3924.000000	0.004257
3923.000000	0.004259
3922.000000	0.004251
3921.000000	0.004237
3920.000000	0.004226
3919.000000	0.004228
3918.000000	0.004239
3917.000000	0.004245
3916.000000	0.004242
3915.000000	0.004237
3914.000000	0.004237
3913.000000	0.004240
3912.000000	0.004239
3911.000000	0.004233
3910.000000	0.004228
3909.000000	0.004238
3908.000000	0.004263
3907.000000	0.004298
3906.000000	0.004325
3905.000000	0.004333
3904.000000	0.004324
3903.000000	0.004306
3902.000000	0.004287
3901.000000	0.004271
3900.000000	0.004257
3899.000000	0.004252
3898.000000	0.004261
3897.000000	0.004281
3896.000000	0.004302
3895.000000	0.004319
3894.000000	0.004332
3893.000000	0.004338
3892.000000	0.004331
3891.000000	0.004317
3890.000000	0.004309
3889.000000	0.004315
3888.000000	0.004326
3887.000000	0.004321
3886.000000	0.004293
3885.000000	0.004260
3884.000000	0.004252
3883.000000	0.004279
3882.000000	0.004317
3881.000000	0.004337
3880.000000	0.004329
3879.000000	0.004310
3878.000000	0.004299
3877.000000	0.004299
3876.000000	0.004302
3875.000000	0.004303
3874.000000	0.004308
3873.000000	0.004326
3872.000000	0.004353
3871.000000	0.004369
3870.000000	0.004359
3869.000000	0.004336
3868.000000	0.004324
3867.000000	0.004324
3866.000000	0.004318
3865.000000	0.004299
3864.000000	0.004280
3863.000000	0.004274
3862.000000	0.004282
3861.000000	0.004301
3860.000000	0.004328
3859.000000	0.004358
3858.000000	0.004383
3857.000000	0.004397
3856.000000	0.004397
3855.000000	0.004382
3854.000000	0.004357
3853.000000	0.004324
3852.000000	0.004291
3851.000000	0.004266
3850.000000	0.004245
3849.000000	0.004224
3848.000000	0.004215
3847.000000	0.004223
3846.000000	0.004248
3845.000000	0.004285
3844.000000	0.004318
3843.000000	0.004338
3842.000000	0.004342
3841.000000	0.004337
3840.000000	0.004332
3839.000000	0.004330
3838.000000	0.004334
3837.000000	0.004340
3836.000000	0.004345
3835.000000	0.004347
3834.000000	0.004346
3833.000000	0.004348
3832.000000	0.004352
3831.000000	0.004354
3830.000000	0.004346
3829.000000	0.004320
3828.000000	0.004281
3827.000000	0.004244
3826.000000	0.004229
3825.000000	0.004250
3824.000000	0.004303
3823.000000	0.004362
3822.000000	0.004397
3821.000000	0.004400
3820.000000	0.004388
3819.000000	0.004390
3818.000000	0.004400
3817.000000	0.004396
3816.000000	0.004367
3815.000000	0.004321
3814.000000	0.004273
3813.000000	0.004231
3812.000000	0.004199
3811.000000	0.004191
3810.000000	0.004216
3809.000000	0.004261
3808.000000	0.004292
3807.000000	0.004291
3806.000000	0.004273
3805.000000	0.004270
3804.000000	0.004290
3803.000000	0.004316
3802.000000	0.004326
3801.000000	0.004317
3800.000000	0.004305
3799.000000	0.004299
3798.000000	0.004289
3797.000000	0.004266
3796.000000	0.004240
3795.000000	0.004220
3794.000000	0.004205
3793.000000	0.004186
3792.000000	0.004165
3791.000000	0.004151
3790.000000	0.004152
3789.000000	0.004161
3788.000000	0.004172
3787.000000	0.004183
3786.000000	0.004195
3785.000000	0.004206
3784.000000	0.004213
3783.000000	0.004214
3782.000000	0.004209
3781.000000	0.004199
3780.000000	0.004188
3779.000000	0.004186
3778.000000	0.004198
3777.000000	0.004218
3776.000000	0.004233
3775.000000	0.004236
3774.000000	0.004235
3773.000000	0.004238
3772.000000	0.004248
3771.000000	0.004259
3770.000000	0.004269
3769.000000	0.004280
3768.000000	0.004288
3767.000000	0.004280
3766.000000	0.004253
3765.000000	0.004217
3764.000000	0.004194
3763.000000	0.004187
3762.000000	0.004180
3761.000000	0.004155
3760.000000	0.004117
3759.000000	0.004087
3758.000000	0.004082
3757.000000	0.004099
3756.000000	0.004133
3755.000000	0.004179
3754.000000	0.004231
3753.000000	0.004277
3752.000000	0.004306
3751.000000	0.004309
3750.000000	0.004289
3749.000000	0.004257
3748.000000	0.004232
3747.000000	0.004225
3746.000000	0.004233
3745.000000	0.004246
3744.000000	0.004257
3743.000000	0.004263
3742.000000	0.004265
3741.000000	0.004259
3740.000000	0.004254
3739.000000	0.004265
3738.000000	0.004294
3737.000000	0.004321
3736.000000	0.004322
3735.000000	0.004301
3734.000000	0.004286
3733.000000	0.004286
3732.000000	0.004279
3731.000000	0.004244
3730.000000	0.004183
3729.000000	0.004116
3728.000000	0.004065
3727.000000	0.004042
3726.000000	0.004054
3725.000000	0.004093
3724.000000	0.004139
3723.000000	0.004175
3722.000000	0.004189
3721.000000	0.004181
3720.000000	0.004157
3719.000000	0.004125
3718.000000	0.004098
3717.000000	0.004081
3716.000000	0.004077
3715.000000	0.004081
3714.000000	0.004087
3713.000000	0.004095
3712.000000	0.004114
3711.000000	0.004153
3710.000000	0.004203
3709.000000	0.004242
3708.000000	0.004250
3707.000000	0.004223
3706.000000	0.004177
3705.000000	0.004132
3704.000000	0.004107
3703.000000	0.004104
3702.000000	0.004113
3701.000000	0.004121
3700.000000	0.004121
3699.000000	0.004112
3698.000000	0.004100
3697.000000	0.004090
3696.000000	0.004089
3695.000000	0.004103
3694.000000	0.004123
3693.000000	0.004133
3692.000000	0.004128
3691.000000	0.004117
3690.000000	0.004119
3689.000000	0.004138
3688.000000	0.004155
3687.000000	0.004151
3686.000000	0.004127
3685.000000	0.004101
3684.000000	0.004090
3683.000000	0.004101
3682.000000	0.004128
3681.000000	0.004156
3680.000000	0.004175
3679.000000	0.004190
3678.000000	0.004209
3677.000000	0.004225
3676.000000	0.004226
3675.000000	0.004215
3674.000000	0.004216
3673.000000	0.004234
3672.000000	0.004250
3671.000000	0.004254
3670.000000	0.004259
3669.000000	0.004281
3668.000000	0.004318
3667.000000	0.004352
3666.000000	0.004367
3665.000000	0.004367
3664.000000	0.004361
3663.000000	0.004352
3662.000000	0.004342
3661.000000	0.004332
3660.000000	0.004332
3659.000000	0.004351
3658.000000	0.004392
3657.000000	0.004447
3656.000000	0.004509
3655.000000	0.004572
3654.000000	0.004637
3653.000000	0.004697
3652.000000	0.004740
3651.000000	0.004756
3650.000000	0.004756
3649.000000	0.004763
3648.000000	0.004797
3647.000000	0.004855
3646.000000	0.004912
3645.000000	0.004942
3644.000000	0.004932
3643.000000	0.004889
3642.000000	0.004836
3641.000000	0.004803
3640.000000	0.004805
3639.000000	0.004833
3638.000000	0.004875
3637.000000	0.004922
3636.000000	0.004977
3635.000000	0.005034
3634.000000	0.005087
3633.000000	0.005133
3632.000000	0.005177
3631.000000	0.005218
3630.000000	0.005251
3629.000000	0.005271
3628.000000	0.005285
3627.000000	0.005306
3626.000000	0.005336
3625.000000	0.005367
3624.000000	0.005400
3623.000000	0.005433
3622.000000	0.005456
3621.000000	0.005453
3620.000000	0.005422
3619.000000	0.005389
3618.000000	0.005392
3617.000000	0.005444
3616.000000	0.005529
3615.000000	0.005622
3614.000000	0.005699
3613.000000	0.005757
3612.000000	0.005801
3611.000000	0.005841
3610.000000	0.005875
3609.000000	0.005902
3608.000000	0.005926
3607.000000	0.005952
3606.000000	0.005979
3605.000000	0.006004
3604.000000	0.006027
3603.000000	0.006054
3602.000000	0.006093
3601.000000	0.006139
3600.000000	0.006186
3599.000000	0.006230
3598.000000	0.006276
3597.000000	0.006323
3596.000000	0.006369
3595.000000	0.006407
3594.000000	0.006439
3593.000000	0.006468
3592.000000	0.006498
3591.000000	0.006527
3590.000000	0.006559
3589.000000	0.006600
3588.000000	0.006658
3587.000000	0.006730
3586.000000	0.006810
3585.000000	0.006888
3584.000000	0.006954
3583.000000	0.007008
3582.000000	0.007060
3581.000000	0.007117
3580.000000	0.007176
3579.000000	0.007229
3578.000000	0.007274
3577.000000	0.007315
3576.000000	0.007359
3575.000000	0.007410
3574.000000	0.007474
3573.000000	0.007547
3572.000000	0.007623
3571.000000	0.007690
3570.000000	0.007745
3569.000000	0.007787
3568.000000	0.007818
3567.000000	0.007837
3566.000000	0.007854
3565.000000	0.007879
3564.000000	0.007916
3563.000000	0.007955
3562.000000	0.007994
3561.000000	0.008034
3560.000000	0.008084
3559.000000	0.008151
3558.000000	0.008240
3557.000000	0.008340
3556.000000	0.008437
3555.000000	0.008522
3554.000000	0.008600
3553.000000	0.008681
3552.000000	0.008759
3551.000000	0.008821
3550.000000	0.008859
3549.000000	0.008877
3548.000000	0.008892
3547.000000	0.008918
3546.000000	0.008957
3545.000000	0.009010
3544.000000	0.009070
3543.000000	0.009134
3542.000000	0.009198
3541.000000	0.009260
3540.000000	0.009322
3539.000000	0.009388
3538.000000	0.009458
3537.000000	0.009530
3536.000000	0.009600
3535.000000	0.009664
3534.000000	0.009721
3533.000000	0.009777
3532.000000	0.009837
3531.000000	0.009906
3530.000000	0.009982
3529.000000	0.010052
3528.000000	0.010106
3527.000000	0.010145
3526.000000	0.010173
3525.000000	0.010198
3524.000000	0.010223
3523.000000	0.010256
3522.000000	0.010305
3521.000000	0.010373
3520.000000	0.010448
3519.000000	0.010516
3518.000000	0.010569
3517.000000	0.010613
3516.000000	0.010658
3515.000000	0.010706
3514.000000	0.010756
3513.000000	0.010807
3512.000000	0.010862
3511.000000	0.010923
3510.000000	0.010992
3509.000000	0.011063
3508.000000	0.011123
3507.000000	0.011165
3506.000000	0.011190
3505.000000	0.011211
3504.000000	0.011243
3503.000000	0.011292
3502.000000	0.011352
3501.000000	0.011416
3500.000000	0.011477
3499.000000	0.011535
3498.000000	0.011592
3497.000000	0.011642
3496.000000	0.011678
3495.000000	0.011701
3494.000000	0.011722
3493.000000	0.011758
3492.000000	0.011812
3491.000000	0.011876
3490.000000	0.011933
3489.000000	0.011971
3488.000000	0.011992
3487.000000	0.012005
3486.000000	0.012023
3485.000000	0.012054
3484.000000	0.012099
3483.000000	0.012152
3482.000000	0.012202
3481.000000	0.012242
3480.000000	0.012275
3479.000000	0.012309
3478.000000	0.012351
3477.000000	0.012397
3476.000000	0.012443
3475.000000	0.012485
3474.000000	0.012525
3473.000000	0.012564
3472.000000	0.012605
3471.000000	0.012652
3470.000000	0.012709
3469.000000	0.012775
3468.000000	0.012840
3467.000000	0.012888
3466.000000	0.012910
3465.000000	0.012912
3464.000000	0.012909
3463.000000	0.012923
3462.000000	0.012963
3461.000000	0.013021
3460.000000	0.013080
3459.000000	0.013128
3458.000000	0.013165
3457.000000	0.013197
3456.000000	0.013229
3455.000000	0.013262
3454.000000	0.013299
3453.000000	0.013342
3452.000000	0.013388
3451.000000	0.013430
3450.000000	0.013464
3449.000000	0.013491
3448.000000	0.013518
3447.000000	0.013552
3446.000000	0.013595
3445.000000	0.013640
3444.000000	0.013680
3443.000000	0.013714
3442.000000	0.013747
3441.000000	0.013788
3440.000000	0.013837
3439.000000	0.013888
3438.000000	0.013940
3437.000000	0.013997
3436.000000	0.014059
3435.000000	0.014120
3434.000000	0.014175
3433.000000	0.014219
3432.000000	0.014257
3431.000000	0.014289
3430.000000	0.014313
3429.000000	0.014324
3428.000000	0.014327
3427.000000	0.014335
3426.000000	0.014360
3425.000000	0.014401
3424.000000	0.014447
3423.000000	0.014486
3422.000000	0.014519
3421.000000	0.014555
3420.000000	0.014598
3419.000000	0.014643
3418.000000	0.014686
3417.000000	0.014726
3416.000000	0.014769
3415.000000	0.014820
3414.000000	0.014879
3413.000000	0.014942
3412.000000	0.015000
3411.000000	0.015046
3410.000000	0.015082
3409.000000	0.015113
3408.000000	0.015147
3407.000000	0.015187
3406.000000	0.015231
3405.000000	0.015273
3404.000000	0.015310
3403.000000	0.015343
3402.000000	0.015378
3401.000000	0.015421
3400.000000	0.015468
3399.000000	0.015512
3398.000000	0.015546
3397.000000	0.015572
3396.000000	0.015594
3395.000000	0.015618
3394.000000	0.015644
3393.000000	0.015672
3392.000000	0.015706
3391.000000	0.015744
3390.000000	0.015784
3389.000000	0.015824
3388.000000	0.015864
3387.000000	0.015909
3386.000000	0.015958
3385.000000	0.016009
3384.000000	0.016055
3383.000000	0.016093
3382.000000	0.016120
3381.000000	0.016141
3380.000000	0.016167
3379.000000	0.016213
3378.000000	0.016287
3377.000000	0.016388
3376.000000	0.016494
3375.000000	0.016575
3374.000000	0.016617
3373.000000	0.016635
3372.000000	0.016662
3371.000000	0.016724
3370.000000	0.016818
3369.000000	0.016917
3368.000000	0.016992
3367.000000	0.017037
3366.000000	0.017066
3365.000000	0.017100
3364.000000	0.017151
3363.000000	0.017212
3362.000000	0.017272
3361.000000	0.017322
3360.000000	0.017367
3359.000000	0.017424
3358.000000	0.017507
3357.000000	0.017615
3356.000000	0.017739
3355.000000	0.017865
3354.000000	0.017982
3353.000000	0.018079
3352.000000	0.018151
3351.000000	0.018197
3350.000000	0.018227
3349.000000	0.018257
3348.000000	0.018302
3347.000000	0.018370
3346.000000	0.018458
3345.000000	0.018556
3344.000000	0.018649
3343.000000	0.018732
3342.000000	0.018807
3341.000000	0.018881
3340.000000	0.018960
3339.000000	0.019050
3338.000000	0.019148
3337.000000	0.019246
3336.000000	0.019332
3335.000000	0.019398
3334.000000	0.019448
3333.000000	0.019494
3332.000000	0.019552
3331.000000	0.019628
3330.000000	0.019717
3329.000000	0.019799
3328.000000	0.019859
3327.000000	0.019896
3326.000000	0.019921
3325.000000	0.019949
3324.000000	0.019987
3323.000000	0.020035
3322.000000	0.020091
3321.000000	0.020150
3320.000000	0.020207
3319.000000	0.020261
3318.000000	0.020313
3317.000000	0.020363
3316.000000	0.020411
3315.000000	0.020454
3314.000000	0.020494
3313.000000	0.020530
3312.000000	0.020556
3311.000000	0.020570
3310.000000	0.020574
3309.000000	0.020581
3308.000000	0.020603
3307.000000	0.020643
3306.000000	0.020698
3305.000000	0.020757
3304.000000	0.020813
3303.000000	0.020863
3302.000000	0.020903
3301.000000	0.020933
3300.000000	0.020951
3299.000000	0.020959
3298.000000	0.020965
3297.000000	0.020977
3296.000000	0.020996
3295.000000	0.021017
3294.000000	0.021033
3293.000000	0.021040
3292.000000	0.021037
3291.000000	0.021033
3290.000000	0.021039
3289.000000	0.021058
3288.000000	0.021079
3287.000000	0.021088
3286.000000	0.021084
3285.000000	0.021075
3284.000000	0.021068
3283.000000	0.021067
3282.000000	0.021074
3281.000000	0.021087
3280.000000	0.021098
3279.000000	0.021095
3278.000000	0.021068
3277.000000	0.021016
3276.000000	0.020948
3275.000000	0.020878
3274.000000	0.020814
3273.000000	0.020765
3272.000000	0.020735
3271.000000	0.020724
3270.000000	0.020724
3269.000000	0.020723
3268.000000	0.020710
3267.000000	0.020684
3266.000000	0.020645
3265.000000	0.020604
3264.000000	0.020572
3263.000000	0.020558
3262.000000	0.020558
3261.000000	0.020552
3260.000000	0.020523
3259.000000	0.020471
3258.000000	0.020406
3257.000000	0.020343
3256.000000	0.020287
3255.000000	0.020240
3254.000000	0.020197
3253.000000	0.020150
3252.000000	0.020095
3251.000000	0.020040
3250.000000	0.019998
3249.000000	0.019972
3248.000000	0.019949
3247.000000	0.019914
3246.000000	0.019868
3245.000000	0.019821
3244.000000	0.019785
3243.000000	0.019758
3242.000000	0.019732
3241.000000	0.019700
3240.000000	0.019660
3239.000000	0.019617
3238.000000	0.019577
3237.000000	0.019537
3236.000000	0.019495
3235.000000	0.019451
3234.000000	0.019411
3233.000000	0.019380
3232.000000	0.019355
3231.000000	0.019333
3230.000000	0.019310
3229.000000	0.019284
3228.000000	0.019251
3227.000000	0.019211
3226.000000	0.019167
3225.000000	0.019125
3224.000000	0.019089
3223.000000	0.019059
3222.000000	0.019032
3221.000000	0.019003
3220.000000	0.018966
3219.000000	0.018916
3218.000000	0.018859
3217.000000	0.018804
3216.000000	0.018762
3215.000000	0.018732
3214.000000	0.018711
3213.000000	0.018691
3212.000000	0.018665
3211.000000	0.018631
3210.000000	0.018586
3209.000000	0.018533
3208.000000	0.018476
3207.000000	0.018421
3206.000000	0.018373
3205.000000	0.018332
3204.000000	0.018291
3203.000000	0.018250
3202.000000	0.018213
3201.000000	0.018181
3200.000000	0.018151
3199.000000	0.018115
3198.000000	0.018074
3197.000000	0.018032
3196.000000	0.017987
3195.000000	0.017934
3194.000000	0.017875
3193.000000	0.017819
3192.000000	0.017769
3191.000000	0.017720
3190.000000	0.017664
3189.000000	0.017598
3188.000000	0.017528
3187.000000	0.017463
3186.000000	0.017407
3185.000000	0.017359
3184.000000	0.017313
3183.000000	0.017268
3182.000000	0.017225
3181.000000	0.017190
3180.000000	0.017164
3179.000000	0.017143
3178.000000	0.017120
3177.000000	0.017083
3176.000000	0.017025
3175.000000	0.016950
3174.000000	0.016871
3173.000000	0.016801
3172.000000	0.016738
3171.000000	0.016677
3170.000000	0.016618
3169.000000	0.016563
3168.000000	0.016508
3167.000000	0.016445
3166.000000	0.016373
3165.000000	0.016299
3164.000000	0.016237
3163.000000	0.016192
3162.000000	0.016160
3161.000000	0.016130
3160.000000	0.016091
3159.000000	0.016037
3158.000000	0.015976
3157.000000	0.015917
3156.000000	0.015865
3155.000000	0.015818
3154.000000	0.015768
3153.000000	0.015712
3152.000000	0.015652
3151.000000	0.015591
3150.000000	0.015538
3149.000000	0.015498
3148.000000	0.015472
3147.000000	0.015457
3146.000000	0.015442
3145.000000	0.015416
3144.000000	0.015370
3143.000000	0.015304
3142.000000	0.015233
3141.000000	0.015172
3140.000000	0.015127
3139.000000	0.015088
3138.000000	0.015045
3137.000000	0.014995
3136.000000	0.014946
3135.000000	0.014910
3134.000000	0.014892
3133.000000	0.014884
3132.000000	0.014867
3131.000000	0.014831
3130.000000	0.014784
3129.000000	0.014742
3128.000000	0.014717
3127.000000	0.014712
3126.000000	0.014718
3125.000000	0.014719
3124.000000	0.014696
3123.000000	0.014647
3122.000000	0.014587
3121.000000	0.014539
3120.000000	0.014513
3119.000000	0.014509
3118.000000	0.014520
3117.000000	0.014539
3116.000000	0.014557
3115.000000	0.014563
3114.000000	0.014554
3113.000000	0.014539
3112.000000	0.014527
3111.000000	0.014520
3110.000000	0.014514
3109.000000	0.014510
3108.000000	0.014512
3107.000000	0.014528
3106.000000	0.014557
3105.000000	0.014592
3104.000000	0.014617
3103.000000	0.014622
3102.000000	0.014617
3101.000000	0.014622
3100.000000	0.014649
3099.000000	0.014691
3098.000000	0.014732
3097.000000	0.014764
3096.000000	0.014786
3095.000000	0.014801
3094.000000	0.014809
3093.000000	0.014811
3092.000000	0.014812
3091.000000	0.014815
3090.000000	0.014824
3089.000000	0.014841
3088.000000	0.014867
3087.000000	0.014900
3086.000000	0.014934
3085.000000	0.014962
3084.000000	0.014981
3083.000000	0.014988
3082.000000	0.014978
3081.000000	0.014954
3080.000000	0.014928
3079.000000	0.014916
3078.000000	0.014928
3077.000000	0.014962
3076.000000	0.015000
3075.000000	0.015024
3074.000000	0.015026
3073.000000	0.015016
3072.000000	0.015010
3071.000000	0.015005
3070.000000	0.014994
3069.000000	0.014969
3068.000000	0.014937
3067.000000	0.014909
3066.000000	0.014890
3065.000000	0.014876
3064.000000	0.014864
3063.000000	0.014848
3062.000000	0.014822
3061.000000	0.014781
3060.000000	0.014723
3059.000000	0.014657
3058.000000	0.014594
3057.000000	0.014542
3056.000000	0.014499
3055.000000	0.014460
3054.000000	0.014422
3053.000000	0.014387
3052.000000	0.014356
3051.000000	0.014325
3050.000000	0.014285
3049.000000	0.014230
3048.000000	0.014171
3047.000000	0.014122
3046.000000	0.014087
3045.000000	0.014052
3044.000000	0.014002
3043.000000	0.013937
3042.000000	0.013871
3041.000000	0.013814
3040.000000	0.013766
3039.000000	0.013718
3038.000000	0.013663
3037.000000	0.013606
3036.000000	0.013550
3035.000000	0.013501
3034.000000	0.013463
3033.000000	0.013434
3032.000000	0.013408
3031.000000	0.013380
3030.000000	0.013345
3029.000000	0.013303
3028.000000	0.013249
3027.000000	0.013187
3026.000000	0.013133
3025.000000	0.013098
3024.000000	0.013079
3023.000000	0.013060
3022.000000	0.013025
3021.000000	0.012975
3020.000000	0.012920
3019.000000	0.012867
3018.000000	0.012822
3017.000000	0.012790
3016.000000	0.012775
3015.000000	0.012780
3014.000000	0.012805
3013.000000	0.012844
3012.000000	0.012887
3011.000000	0.012921
3010.000000	0.012938
3009.000000	0.012940
3008.000000	0.012936
3007.000000	0.012929
3006.000000	0.012924
3005.000000	0.012922
3004.000000	0.012921
3003.000000	0.012917
3002.000000	0.012908
3001.000000	0.012901
3000.000000	0.012904
2999.000000	0.012922
2998.000000	0.012944
2997.000000	0.012954
2996.000000	0.012945
2995.000000	0.012929
2994.000000	0.012927
2993.000000	0.012951
2992.000000	0.012997
2991.000000	0.013048
2990.000000	0.013094
2989.000000	0.013134
2988.000000	0.013171
2987.000000	0.013208
2986.000000	0.013250
2985.000000	0.013303
2984.000000	0.013373
2983.000000	0.013456
2982.000000	0.013542
2981.000000	0.013624
2980.000000	0.013699
2979.000000	0.013768
2978.000000	0.013837
2977.000000	0.013913
2976.000000	0.013998
2975.000000	0.014095
2974.000000	0.014205
2973.000000	0.014331
2972.000000	0.014469
2971.000000	0.014607
2970.000000	0.014733
2969.000000	0.014849
2968.000000	0.014966
2967.000000	0.015100
2966.000000	0.015257
2965.000000	0.015435
2964.000000	0.015623
2963.000000	0.015811
2962.000000	0.015989
2961.000000	0.016152
2960.000000	0.016299
2959.000000	0.016428
2958.000000	0.016537
2957.000000	0.016628
2956.000000	0.016700
2955.000000	0.016753
2954.000000	0.016785
2953.000000	0.016803
2952.000000	0.016820
2951.000000	0.016848
2950.000000	0.016891
2949.000000	0.016944
2948.000000	0.017006
2947.000000	0.017084
2946.000000	0.017192
2945.000000	0.017337
2944.000000	0.017513
2943.000000	0.017717
2942.000000	0.017958
2941.000000	0.018247
2940.000000	0.018589
2939.000000	0.018963
2938.000000	0.019344
2937.000000	0.019714
2936.000000	0.020074
2935.000000	0.020438
2934.000000	0.020818
2933.000000	0.021215
2932.000000	0.021619
2931.000000	0.022020
2930.000000	0.022403
2929.000000	0.022758
2928.000000	0.023082
2927.000000	0.023370
2926.000000	0.023607
2925.000000	0.023770
2924.000000	0.023834
2923.000000	0.023798
2922.000000	0.023679
2921.000000	0.023497
2920.000000	0.023258
2919.000000	0.022955
2918.000000	0.022585
2917.000000	0.022156
2916.000000	0.021691
2915.000000	0.021216
2914.000000	0.020750
2913.000000	0.020302
2912.000000	0.019873
2911.000000	0.019456
2910.000000	0.019056
2909.000000	0.018682
2908.000000	0.018347
2907.000000	0.018056
2906.000000	0.017806
2905.000000	0.017584
2904.000000	0.017382
2903.000000	0.017195
2902.000000	0.017022
2901.000000	0.016864
2900.000000	0.016717
2899.000000	0.016573
2898.000000	0.016424
2897.000000	0.016266
2896.000000	0.016101
2895.000000	0.015937
2894.000000	0.015786
2893.000000	0.015650
2892.000000	0.015531
2891.000000	0.015430
2890.000000	0.015348
2889.000000	0.015275
2888.000000	0.015194
2887.000000	0.015093
2886.000000	0.014980
2885.000000	0.014879
2884.000000	0.014810
2883.000000	0.014770
2882.000000	0.014749
2881.000000	0.014738
2880.000000	0.014737
2879.000000	0.014750
2878.000000	0.014776
2877.000000	0.014815
2876.000000	0.014863
2875.000000	0.014920
2874.000000	0.014976
2873.000000	0.015014
2872.000000	0.015021
2871.000000	0.015005
2870.000000	0.014989
2869.000000	0.014993
2868.000000	0.015019
2867.000000	0.015061
2866.000000	0.015118
2865.000000	0.015202
2864.000000	0.015322
2863.000000	0.015489
2862.000000	0.015715
2861.000000	0.016010
2860.000000	0.016363
2859.000000	0.016741
2858.000000	0.017108
2857.000000	0.017441
2856.000000	0.017730
2855.000000	0.017960
2854.000000	0.018108
2853.000000	0.018153
2852.000000	0.018078
2851.000000	0.017874
2850.000000	0.017546
2849.000000	0.017117
2848.000000	0.016622
2847.000000	0.016100
2846.000000	0.015580
2845.000000	0.015084
2844.000000	0.014627
2843.000000	0.014220
2842.000000	0.013862
2841.000000	0.013549
2840.000000	0.013279
2839.000000	0.013053
2838.000000	0.012873
2837.000000	0.012737
2836.000000	0.012632
2835.000000	0.012544
2834.000000	0.012463
2833.000000	0.012382
2832.000000	0.012298
2831.000000	0.012203
2830.000000	0.012099
2829.000000	0.011996
2828.000000	0.011906
2827.000000	0.011831
2826.000000	0.011769
2825.000000	0.011713
2824.000000	0.011660
2823.000000	0.011610
2822.000000	0.011563
2821.000000	0.011517
2820.000000	0.011470
2819.000000	0.011422
2818.000000	0.011374
2817.000000	0.011332
2816.000000	0.011300
2815.000000	0.011273
2814.000000	0.011241
2813.000000	0.011197
2812.000000	0.011146
2811.000000	0.011098
2810.000000	0.011060
2809.000000	0.011030
2808.000000	0.011004
2807.000000	0.010976
2806.000000	0.010943
2805.000000	0.010906
2804.000000	0.010869
2803.000000	0.010832
2802.000000	0.010798
2801.000000	0.010771
2800.000000	0.010753
2799.000000	0.010743
2798.000000	0.010737
2797.000000	0.010731
2796.000000	0.010719
2795.000000	0.010693
2794.000000	0.010651
2793.000000	0.010602
2792.000000	0.010559
2791.000000	0.010531
2790.000000	0.010515
2789.000000	0.010506
2788.000000	0.010501
2787.000000	0.010492
2786.000000	0.010475
2785.000000	0.010451
2784.000000	0.010422
2783.000000	0.010388
2782.000000	0.010344
2781.000000	0.010293
2780.000000	0.010248
2779.000000	0.010224
2778.000000	0.010224
2777.000000	0.010239
2776.000000	0.010252
2775.000000	0.010252
2774.000000	0.010235
2773.000000	0.010208
2772.000000	0.010180
2771.000000	0.010153
2770.000000	0.010124
2769.000000	0.010091
2768.000000	0.010060
2767.000000	0.010035
2766.000000	0.010015
2765.000000	0.009988
2764.000000	0.009951
2763.000000	0.009912
2762.000000	0.009876
2761.000000	0.009845
2760.000000	0.009822
2759.000000	0.009810
2758.000000	0.009809
2757.000000	0.009809
2756.000000	0.009803
2755.000000	0.009794
2754.000000	0.009793
2753.000000	0.009799
2752.000000	0.009801
2751.000000	0.009792
2750.000000	0.009776
2749.000000	0.009761
2748.000000	0.009746
2747.000000	0.009725
2746.000000	0.009699
2745.000000	0.009674
2744.000000	0.009651
2743.000000	0.009626
2742.000000	0.009598
2741.000000	0.009578
2740.000000	0.009571
2739.000000	0.009572
2738.000000	0.009568
2737.000000	0.009551
2736.000000	0.009522
2735.000000	0.009495
2734.000000	0.009480
2733.000000	0.009479
2732.000000	0.009487
2731.000000	0.009490
2730.000000	0.009478
2729.000000	0.009449
2728.000000	0.009408
2727.000000	0.009362
2726.000000	0.009321
2725.000000	0.009291
2724.000000	0.009273
2723.000000	0.009263
2722.000000	0.009258
2721.000000	0.009259
2720.000000	0.009266
2719.000000	0.009272
2718.000000	0.009265
2717.000000	0.009241
2716.000000	0.009208
2715.000000	0.009180
2714.000000	0.009170
2713.000000	0.009175
2712.000000	0.009182
2711.000000	0.009176
2710.000000	0.009158
2709.000000	0.009134
2708.000000	0.009116
2707.000000	0.009104
2706.000000	0.009090
2705.000000	0.009069
2704.000000	0.009041
2703.000000	0.009013
2702.000000	0.008994
2701.000000	0.008988
2700.000000	0.008989
2699.000000	0.008989
2698.000000	0.008984
2697.000000	0.008975
2696.000000	0.008964
2695.000000	0.008951
2694.000000	0.008938
2693.000000	0.008933
2692.000000	0.008940
2691.000000	0.008956
2690.000000	0.008971
2689.000000	0.008977
2688.000000	0.008976
2687.000000	0.008970
2686.000000	0.008962
2685.000000	0.008956
2684.000000	0.008953
2683.000000	0.008958
2682.000000	0.008969
2681.000000	0.008981
2680.000000	0.008984
2679.000000	0.008971
2678.000000	0.008940
2677.000000	0.008903
2676.000000	0.008873
2675.000000	0.008861
2674.000000	0.008865
2673.000000	0.008875
2672.000000	0.008879
2671.000000	0.008870
2670.000000	0.008851
2669.000000	0.008828
2668.000000	0.008815
2667.000000	0.008816
2666.000000	0.008823
2665.000000	0.008823
2664.000000	0.008810
2663.000000	0.008791
2662.000000	0.008773
2661.000000	0.008758
2660.000000	0.008742
2659.000000	0.008717
2658.000000	0.008685
2657.000000	0.008655
2656.000000	0.008636
2655.000000	0.008629
2654.000000	0.008625
2653.000000	0.008609
2652.000000	0.008579
2651.000000	0.008543
2650.000000	0.008516
2649.000000	0.008497
2648.000000	0.008477
2647.000000	0.008450
2646.000000	0.008422
2645.000000	0.008402
2644.000000	0.008392
2643.000000	0.008382
2642.000000	0.008364
2641.000000	0.008331
2640.000000	0.008288
2639.000000	0.008242
2638.000000	0.008205
2637.000000	0.008185
2636.000000	0.008178
2635.000000	0.008173
2634.000000	0.008160
2633.000000	0.008140
2632.000000	0.008118
2631.000000	0.008097
2630.000000	0.008077
2629.000000	0.008057
2628.000000	0.008036
2627.000000	0.008013
2626.000000	0.007988
2625.000000	0.007966
2624.000000	0.007949
2623.000000	0.007935
2622.000000	0.007924
2621.000000	0.007915
2620.000000	0.007906
2619.000000	0.007890
2618.000000	0.007852
2617.000000	0.007792
2616.000000	0.007726
2615.000000	0.007683
2614.000000	0.007679
2613.000000	0.007697
2612.000000	0.007697
2611.000000	0.007651
2610.000000	0.007574
2609.000000	0.007504
2608.000000	0.007474
2607.000000	0.007485
2606.000000	0.007516
2605.000000	0.007544
2604.000000	0.007556
2603.000000	0.007548
2602.000000	0.007526
2601.000000	0.007498
2600.000000	0.007473
2599.000000	0.007454
2598.000000	0.007443
2597.000000	0.007438
2596.000000	0.007433
2595.000000	0.007428
2594.000000	0.007426
2593.000000	0.007435
2592.000000	0.007450
2591.000000	0.007456
2590.000000	0.007443
2589.000000	0.007409
2588.000000	0.007366
2587.000000	0.007325
2586.000000	0.007295
2585.000000	0.007282
2584.000000	0.007279
2583.000000	0.007271
2582.000000	0.007248
2581.000000	0.007213
2580.000000	0.007182
2579.000000	0.007165
2578.000000	0.007160
2577.000000	0.007157
2576.000000	0.007145
2575.000000	0.007122
2574.000000	0.007097
2573.000000	0.007083
2572.000000	0.007084
2571.000000	0.007095
2570.000000	0.007115
2569.000000	0.007141
2568.000000	0.007159
2567.000000	0.007147
2566.000000	0.007095
2565.000000	0.007031
2564.000000	0.006995
2563.000000	0.007006
2562.000000	0.007043
2561.000000	0.007068
2560.000000	0.007065
2559.000000	0.007042
2558.000000	0.007016
2557.000000	0.006991
2556.000000	0.006969
2555.000000	0.006952
2554.000000	0.006943
2553.000000	0.006940
2552.000000	0.006935
2551.000000	0.006930
2550.000000	0.006937
2549.000000	0.006959
2548.000000	0.006983
2547.000000	0.006986
2546.000000	0.006965
2545.000000	0.006943
2544.000000	0.006950
2543.000000	0.006996
2542.000000	0.007060
2541.000000	0.007109
2540.000000	0.007112
2539.000000	0.007057
2538.000000	0.006959
2537.000000	0.006857
2536.000000	0.006795
2535.000000	0.006789
2534.000000	0.006822
2533.000000	0.006861
2532.000000	0.006882
2531.000000	0.006883
2530.000000	0.006874
2529.000000	0.006866
2528.000000	0.006864
2527.000000	0.006873
2526.000000	0.006892
2525.000000	0.006911
2524.000000	0.006916
2523.000000	0.006901
2522.000000	0.006877
2521.000000	0.006857
2520.000000	0.006843
2519.000000	0.006834
2518.000000	0.006829
2517.000000	0.006830
2516.000000	0.006830
2515.000000	0.006823
2514.000000	0.006805
2513.000000	0.006778
2512.000000	0.006745
2511.000000	0.006711
2510.000000	0.006682
2509.000000	0.006666
2508.000000	0.006663
2507.000000	0.006674
2506.000000	0.006700
2505.000000	0.006737
2504.000000	0.006764
2503.000000	0.006764
2502.000000	0.006742
2501.000000	0.006725
2500.000000	0.006730
2499.000000	0.006749
2498.000000	0.006766
2497.000000	0.006777
2496.000000	0.006783
2495.000000	0.006786
2494.000000	0.006776
2493.000000	0.006743
2492.000000	0.006686
2491.000000	0.006619
2490.000000	0.006567
2489.000000	0.006545
2488.000000	0.006550
2487.000000	0.006563
2486.000000	0.006575
2485.000000	0.006583
2484.000000	0.006583
2483.000000	0.006566
2482.000000	0.006536
2481.000000	0.006514
2480.000000	0.006516
2479.000000	0.006537
2478.000000	0.006561
2477.000000	0.006578
2476.000000	0.006586
2475.000000	0.006581
2474.000000	0.006559
2473.000000	0.006527
2472.000000	0.006506
2471.000000	0.006512
2470.000000	0.006543
2469.000000	0.006577
2468.000000	0.006592
2467.000000	0.006581
2466.000000	0.006554
2465.000000	0.006525
2464.000000	0.006503
2463.000000	0.006490
2462.000000	0.006490
2461.000000	0.006506
2460.000000	0.006529
2459.000000	0.006543
2458.000000	0.006540
2457.000000	0.006523
2456.000000	0.006502
2455.000000	0.006483
2454.000000	0.006476
2453.000000	0.006488
2452.000000	0.006513
2451.000000	0.006534
2450.000000	0.006538
2449.000000	0.006528
2448.000000	0.006514
2447.000000	0.006500
2446.000000	0.006488
2445.000000	0.006483
2444.000000	0.006490
2443.000000	0.006509
2442.000000	0.006535
2441.000000	0.006556
2440.000000	0.006561
2439.000000	0.006547
2438.000000	0.006523
2437.000000	0.006497
2436.000000	0.006467
2435.000000	0.006425
2434.000000	0.006379
2433.000000	0.006351
2432.000000	0.006348
2431.000000	0.006352
2430.000000	0.006339
2429.000000	0.006309
2428.000000	0.006282
2427.000000	0.006272
2426.000000	0.006273
2425.000000	0.006276
2424.000000	0.006288
2423.000000	0.006319
2422.000000	0.006367
2421.000000	0.006414
2420.000000	0.006445
2419.000000	0.006452
2418.000000	0.006438
2417.000000	0.006408
2416.000000	0.006376
2415.000000	0.006357
2414.000000	0.006360
2413.000000	0.006378
2412.000000	0.006391
2411.000000	0.006386
2410.000000	0.006361
2409.000000	0.006323
2408.000000	0.006276
2407.000000	0.006228
2406.000000	0.006197
2405.000000	0.006194
2404.000000	0.006212
2403.000000	0.006231
2402.000000	0.006245
2401.000000	0.006260
2400.000000	0.006274
2399.000000	0.006279
2398.000000	0.006274
2397.000000	0.006273
2396.000000	0.006292
2395.000000	0.006322
2394.000000	0.006343
2393.000000	0.006350
2392.000000	0.006358
2391.000000	0.006376
2390.000000	0.006394
2389.000000	0.006397
2388.000000	0.006379
2387.000000	0.006352
2386.000000	0.006331
2385.000000	0.006328
2384.000000	0.006344
2383.000000	0.006381
2382.000000	0.006430
2381.000000	0.006471
2380.000000	0.006486
2379.000000	0.006478
2378.000000	0.006463
2377.000000	0.006455
2376.000000	0.006442
2375.000000	0.006411
2374.000000	0.006371
2373.000000	0.006351
2372.000000	0.006361
2371.000000	0.006386
2370.000000	0.006407
2369.000000	0.006427
2368.000000	0.006458
2367.000000	0.006502
2366.000000	0.006542
2365.000000	0.006556
2364.000000	0.006529
2363.000000	0.006474
2362.000000	0.006438
2361.000000	0.006454
2360.000000	0.006512
2359.000000	0.006572
2358.000000	0.006593
2357.000000	0.006579
2356.000000	0.006555
2355.000000	0.006538
2354.000000	0.006544
2353.000000	0.006558
2352.000000	0.006550
2351.000000	0.006505
2350.000000	0.006475
2349.000000	0.006527
2348.000000	0.006674
2347.000000	0.006853
2346.000000	0.006942
2345.000000	0.006870
2344.000000	0.006688
2343.000000	0.006540
2342.000000	0.006509
2341.000000	0.006560
2340.000000	0.006636
2339.000000	0.006695
2338.000000	0.006720
2337.000000	0.006704
2336.000000	0.006653
2335.000000	0.006588
2334.000000	0.006532
2333.000000	0.006500
2332.000000	0.006490
2331.000000	0.006483
2330.000000	0.006474
2329.000000	0.006473
2328.000000	0.006499
2327.000000	0.006587
2326.000000	0.006736
2325.000000	0.006914
2324.000000	0.007036
2323.000000	0.007037
2322.000000	0.006924
2321.000000	0.006767
2320.000000	0.006634
2319.000000	0.006550
2318.000000	0.006514
2317.000000	0.006509
2316.000000	0.006511
2315.000000	0.006492
2314.000000	0.006445
2313.000000	0.006390
2312.000000	0.006346
2311.000000	0.006316
2310.000000	0.006295
2309.000000	0.006297
2308.000000	0.006322
2307.000000	0.006361
2306.000000	0.006394
2305.000000	0.006413
2304.000000	0.006416
2303.000000	0.006399
2302.000000	0.006361
2301.000000	0.006311
2300.000000	0.006266
2299.000000	0.006234
2298.000000	0.006212
2297.000000	0.006192
2296.000000	0.006166
2295.000000	0.006139
2294.000000	0.006121
2293.000000	0.006129
2292.000000	0.006158
2291.000000	0.006190
2290.000000	0.006212
2289.000000	0.006233
2288.000000	0.006258
2287.000000	0.006285
2286.000000	0.006301
2285.000000	0.006305
2284.000000	0.006300
2283.000000	0.006297
2282.000000	0.006301
2281.000000	0.006308
2280.000000	0.006305
2279.000000	0.006283
2278.000000	0.006257
2277.000000	0.006252
2276.000000	0.006266
2275.000000	0.006268
2274.000000	0.006237
2273.000000	0.006191
2272.000000	0.006155
2271.000000	0.006127
2270.000000	0.006088
2269.000000	0.006033
2268.000000	0.005974
2267.000000	0.005926
2266.000000	0.005903
2265.000000	0.005917
2264.000000	0.005966
2263.000000	0.006025
2262.000000	0.006064
2261.000000	0.006078
2260.000000	0.006078
2259.000000	0.006071
2258.000000	0.006045
2257.000000	0.005978
2256.000000	0.005856
2255.000000	0.005701
2254.000000	0.005572
2253.000000	0.005525
2252.000000	0.005566
2251.000000	0.005657
2250.000000	0.005760
2249.000000	0.005858
2248.000000	0.005934
2247.000000	0.005971
2246.000000	0.005970
2245.000000	0.005956
2244.000000	0.005936
2243.000000	0.005886
2242.000000	0.005796
2241.000000	0.005701
2240.000000	0.005649
2239.000000	0.005647
2238.000000	0.005675
2237.000000	0.005711
2236.000000	0.005738
2235.000000	0.005746
2234.000000	0.005746
2233.000000	0.005769
2232.000000	0.005825
2231.000000	0.005880
2230.000000	0.005899
2229.000000	0.005887
2228.000000	0.005872
2227.000000	0.005861
2226.000000	0.005850
2225.000000	0.005841
2224.000000	0.005832
2223.000000	0.005805
2222.000000	0.005749
2221.000000	0.005689
2220.000000	0.005657
2219.000000	0.005651
2218.000000	0.005664
2217.000000	0.005701
2216.000000	0.005761
2215.000000	0.005802
2214.000000	0.005784
2213.000000	0.005712
2212.000000	0.005627
2211.000000	0.005550
2210.000000	0.005478
2209.000000	0.005435
2208.000000	0.005461
2207.000000	0.005552
2206.000000	0.005644
2205.000000	0.005682
2204.000000	0.005672
2203.000000	0.005671
2202.000000	0.005730
2201.000000	0.005840
2200.000000	0.005928
2199.000000	0.005920
2198.000000	0.005822
2197.000000	0.005729
2196.000000	0.005733
2195.000000	0.005806
2194.000000	0.005829
2193.000000	0.005718
2192.000000	0.005528
2191.000000	0.005390
2190.000000	0.005379
2189.000000	0.005455
2188.000000	0.005536
2187.000000	0.005608
2186.000000	0.005732
2185.000000	0.005934
2184.000000	0.006129
2183.000000	0.006200
2182.000000	0.006125
2181.000000	0.005971
2180.000000	0.005790
2179.000000	0.005585
2178.000000	0.005383
2177.000000	0.005250
2176.000000	0.005198
2175.000000	0.005140
2174.000000	0.005002
2173.000000	0.004834
2172.000000	0.004758
2171.000000	0.004825
2170.000000	0.004996
2169.000000	0.005207
2168.000000	0.005407
2167.000000	0.005552
2166.000000	0.005598
2165.000000	0.005529
2164.000000	0.005367
2163.000000	0.005154
2162.000000	0.004940
2161.000000	0.004755
2160.000000	0.004561
2159.000000	0.004278
2158.000000	0.003914
2157.000000	0.003621
2156.000000	0.003552
2155.000000	0.003730
2154.000000	0.004078
2153.000000	0.004499
2152.000000	0.004903
2151.000000	0.005202
2150.000000	0.005340
2149.000000	0.005330
2148.000000	0.005245
2147.000000	0.005170
2146.000000	0.005158
2145.000000	0.005199
2144.000000	0.005235
2143.000000	0.005205
2142.000000	0.005116
2141.000000	0.005034
2140.000000	0.005015
2139.000000	0.005040
2138.000000	0.005043
2137.000000	0.004977
2136.000000	0.004853
2135.000000	0.004734
2134.000000	0.004694
2133.000000	0.004768
2132.000000	0.004927
2131.000000	0.005101
2130.000000	0.005240
2129.000000	0.005330
2128.000000	0.005365
2127.000000	0.005342
2126.000000	0.005286
2125.000000	0.005256
2124.000000	0.005289
2123.000000	0.005361
2122.000000	0.005413
2121.000000	0.005424
2120.000000	0.005425
2119.000000	0.005453
2118.000000	0.005512
2117.000000	0.005579
2116.000000	0.005635
2115.000000	0.005682
2114.000000	0.005739
2113.000000	0.005815
2112.000000	0.005896
2111.000000	0.005949
2110.000000	0.005952
2109.000000	0.005911
2108.000000	0.005839
2107.000000	0.005747
2106.000000	0.005639
2105.000000	0.005536
2104.000000	0.005459
2103.000000	0.005420
2102.000000	0.005417
2101.000000	0.005441
2100.000000	0.005472
2099.000000	0.005482
2098.000000	0.005458
2097.000000	0.005413
2096.000000	0.005373
2095.000000	0.005343
2094.000000	0.005316
2093.000000	0.005302
2092.000000	0.005323
2091.000000	0.005381
2090.000000	0.005436
2089.000000	0.005450
2088.000000	0.005430
2087.000000	0.005420
2086.000000	0.005452
2085.000000	0.005517
2084.000000	0.005590
2083.000000	0.005653
2082.000000	0.005690
2081.000000	0.005678
2080.000000	0.005618
2079.000000	0.005549
2078.000000	0.005515
2077.000000	0.005504
2076.000000	0.005460
2075.000000	0.005359
2074.000000	0.005244
2073.000000	0.005178
2072.000000	0.005184
2071.000000	0.005242
2070.000000	0.005313
2069.000000	0.005338
2068.000000	0.005273
2067.000000	0.005146
2066.000000	0.005057
2065.000000	0.005080
2064.000000	0.005178
2063.000000	0.005261
2062.000000	0.005278
2061.000000	0.005232
2060.000000	0.005135
2059.000000	0.005016
2058.000000	0.004934
2057.000000	0.004925
2056.000000	0.004937
2055.000000	0.004905
2054.000000	0.004870
2053.000000	0.004939
2052.000000	0.005121
2051.000000	0.005293
2050.000000	0.005339
2049.000000	0.005266
2048.000000	0.005156
2047.000000	0.005066
2046.000000	0.005014
2045.000000	0.005019
2044.000000	0.005072
2043.000000	0.005112
2042.000000	0.005078
2041.000000	0.004978
2040.000000	0.004860
2039.000000	0.004763
2038.000000	0.004710
2037.000000	0.004692
2036.000000	0.004663
2035.000000	0.004601
2034.000000	0.004579
2033.000000	0.004675
2032.000000	0.004813
2031.000000	0.004800
2030.000000	0.004593
2029.000000	0.004384
2028.000000	0.004367
2027.000000	0.004512
2026.000000	0.004652
2025.000000	0.004727
2024.000000	0.004807
2023.000000	0.004921
2022.000000	0.004974
2021.000000	0.004853
2020.000000	0.004574
2019.000000	0.004286
2018.000000	0.004146
2017.000000	0.004161
2016.000000	0.004178
2015.000000	0.004065
2014.000000	0.003876
2013.000000	0.003798
2012.000000	0.003933
2011.000000	0.004206
2010.000000	0.004485
2009.000000	0.004704
2008.000000	0.004848
2007.000000	0.004901
2006.000000	0.004857
2005.000000	0.004755
2004.000000	0.004645
2003.000000	0.004556
2002.000000	0.004493
2001.000000	0.004456
2000.000000	0.004421
1999.000000	0.004365
1998.000000	0.004309
1997.000000	0.004310
1996.000000	0.004379
1995.000000	0.004471
1994.000000	0.004548
1993.000000	0.004607
1992.000000	0.004643
1991.000000	0.004612
1990.000000	0.004486
1989.000000	0.004305
1988.000000	0.004167
1987.000000	0.004153
1986.000000	0.004272
1985.000000	0.004453
1984.000000	0.004587
1983.000000	0.004638
1982.000000	0.004683
1981.000000	0.004816
1980.000000	0.004999
1979.000000	0.005085
1978.000000	0.004992
1977.000000	0.004797
1976.000000	0.004618
1975.000000	0.004481
1974.000000	0.004364
1973.000000	0.004278
1972.000000	0.004258
1971.000000	0.004305
1970.000000	0.004388
1969.000000	0.004455
1968.000000	0.004443
1967.000000	0.004329
1966.000000	0.004183
1965.000000	0.004105
1964.000000	0.004111
1963.000000	0.004136
1962.000000	0.004141
1961.000000	0.004150
1960.000000	0.004184
1959.000000	0.004220
1958.000000	0.004235
1957.000000	0.004240
1956.000000	0.004251
1955.000000	0.004262
1954.000000	0.004260
1953.000000	0.004251
1952.000000	0.004240
1951.000000	0.004230
1950.000000	0.004231
1949.000000	0.004258
1948.000000	0.004301
1947.000000	0.004320
1946.000000	0.004286
1945.000000	0.004217
1944.000000	0.004160
1943.000000	0.004160
1942.000000	0.004234
1941.000000	0.004349
1940.000000	0.004447
1939.000000	0.004496
1938.000000	0.004509
1937.000000	0.004504
1936.000000	0.004473
1935.000000	0.004411
1934.000000	0.004353
1933.000000	0.004339
1932.000000	0.004365
1931.000000	0.004390
1930.000000	0.004380
1929.000000	0.004343
1928.000000	0.004295
1927.000000	0.004248
1926.000000	0.004226
1925.000000	0.004263
1924.000000	0.004368
1923.000000	0.004498
1922.000000	0.004585
1921.000000	0.004603
1920.000000	0.004577
1919.000000	0.004549
1918.000000	0.004550
1917.000000	0.004568
1916.000000	0.004565
1915.000000	0.004521
1914.000000	0.004449
1913.000000	0.004371
1912.000000	0.004299
1911.000000	0.004246
1910.000000	0.004223
1909.000000	0.004230
1908.000000	0.004241
1907.000000	0.004238
1906.000000	0.004236
1905.000000	0.004249
1904.000000	0.004279
1903.000000	0.004322
1902.000000	0.004393
1901.000000	0.004494
1900.000000	0.004579
1899.000000	0.004592
1898.000000	0.004543
1897.000000	0.004491
1896.000000	0.004482
1895.000000	0.004500
1894.000000	0.004502
1893.000000	0.004471
1892.000000	0.004424
1891.000000	0.004395
1890.000000	0.004406
1889.000000	0.004445
1888.000000	0.004474
1887.000000	0.004477
1886.000000	0.004477
1885.000000	0.004496
1884.000000	0.004505
1883.000000	0.004461
1882.000000	0.004373
1881.000000	0.004301
1880.000000	0.004284
1879.000000	0.004318
1878.000000	0.004376
1877.000000	0.004425
1876.000000	0.004435
1875.000000	0.004397
1874.000000	0.004330
1873.000000	0.004256
1872.000000	0.004187
1871.000000	0.004134
1870.000000	0.004113
1869.000000	0.004128
1868.000000	0.004156
1867.000000	0.004172
1866.000000	0.004179
1865.000000	0.004191
1864.000000	0.004209
1863.000000	0.004230
1862.000000	0.004266
1861.000000	0.004325
1860.000000	0.004374
1859.000000	0.004379
1858.000000	0.004355
1857.000000	0.004344
1856.000000	0.004352
1855.000000	0.004352
1854.000000	0.004341
1853.000000	0.004333
1852.000000	0.004321
1851.000000	0.004277
1850.000000	0.004217
1849.000000	0.004171
1848.000000	0.004130
1847.000000	0.004078
1846.000000	0.004055
1845.000000	0.004119
1844.000000	0.004239
1843.000000	0.004304
1842.000000	0.004280
1841.000000	0.004254
1840.000000	0.004288
1839.000000	0.004342
1838.000000	0.004348
1837.000000	0.004303
1836.000000	0.004259
1835.000000	0.004243
1834.000000	0.004237
1833.000000	0.004229
1832.000000	0.004215
1831.000000	0.004189
1830.000000	0.004148
1829.000000	0.004104
1828.000000	0.004067
1827.000000	0.004047
1826.000000	0.004063
1825.000000	0.004111
1824.000000	0.004150
1823.000000	0.004151
1822.000000	0.004132
1821.000000	0.004119
1820.000000	0.004110
1819.000000	0.004093
1818.000000	0.004088
1817.000000	0.004121
1816.000000	0.004182
1815.000000	0.004230
1814.000000	0.004243
1813.000000	0.004231
1812.000000	0.004202
1811.000000	0.004163
1810.000000	0.004130
1809.000000	0.004118
1808.000000	0.004125
1807.000000	0.004138
1806.000000	0.004160
1805.000000	0.004202
1804.000000	0.004252
1803.000000	0.004274
1802.000000	0.004256
1801.000000	0.004231
1800.000000	0.004220
1799.000000	0.004223
1798.000000	0.004231
1797.000000	0.004242
1796.000000	0.004253
1795.000000	0.004255
1794.000000	0.004268
1793.000000	0.004306
1792.000000	0.004336
1791.000000	0.004318
1790.000000	0.004264
1789.000000	0.004221
1788.000000	0.004214
1787.000000	0.004236
1786.000000	0.004274
1785.000000	0.004319
1784.000000	0.004343
1783.000000	0.004310
1782.000000	0.004251
1781.000000	0.004229
1780.000000	0.004240
1779.000000	0.004238
1778.000000	0.004201
1777.000000	0.004151
1776.000000	0.004098
1775.000000	0.004031
1774.000000	0.003987
1773.000000	0.004015
1772.000000	0.004074
1771.000000	0.004099
1770.000000	0.004109
1769.000000	0.004181
1768.000000	0.004325
1767.000000	0.004449
1766.000000	0.004475
1765.000000	0.004459
1764.000000	0.004504
1763.000000	0.004644
1762.000000	0.004825
1761.000000	0.004989
1760.000000	0.005127
1759.000000	0.005290
1758.000000	0.005556
1757.000000	0.005952
1756.000000	0.006372
1755.000000	0.006692
1754.000000	0.006945
1753.000000	0.007268
1752.000000	0.007702
1751.000000	0.008129
1750.000000	0.008415
1749.000000	0.008592
1748.000000	0.008758
1747.000000	0.008910
1746.000000	0.009009
1745.000000	0.009039
1744.000000	0.008985
1743.000000	0.008838
1742.000000	0.008627
1741.000000	0.008399
1740.000000	0.008159
1739.000000	0.007848
1738.000000	0.007453
1737.000000	0.007075
1736.000000	0.006818
1735.000000	0.006663
1734.000000	0.006473
1733.000000	0.006166
1732.000000	0.005814
1731.000000	0.005553
1730.000000	0.005446
1729.000000	0.005447
1728.000000	0.005462
1727.000000	0.005423
1726.000000	0.005345
1725.000000	0.005264
1724.000000	0.005189
1723.000000	0.005110
1722.000000	0.005014
1721.000000	0.004929
1720.000000	0.004890
1719.000000	0.004881
1718.000000	0.004839
1717.000000	0.004763
1716.000000	0.004735
1715.000000	0.004798
1714.000000	0.004944
1713.000000	0.005141
1712.000000	0.005350
1711.000000	0.005551
1710.000000	0.005752
1709.000000	0.005974
1708.000000	0.006216
1707.000000	0.006479
1706.000000	0.006800
1705.000000	0.007108
1704.000000	0.007384
1703.000000	0.007545
1702.000000	0.008062
1701.000000	0.008655
1700.000000	0.009158
1699.000000	0.009691
1698.000000	0.010076
1697.000000	0.010498
1696.000000	0.011075
1695.000000	0.011543
1694.000000	0.011947
1693.000000	0.012335
1692.000000	0.012698
1691.000000	0.013192
1690.000000	0.013672
1689.000000	0.014095
1688.000000	0.014422
1687.000000	0.014703
1686.000000	0.015068
1685.000000	0.015675
1684.000000	0.016443
1683.000000	0.017088
1682.000000	0.017562
1681.000000	0.018049
1680.000000	0.018653
1679.000000	0.019285
1678.000000	0.019884
1677.000000	0.020561
1676.000000	0.021421
1675.000000	0.022301
1674.000000	0.022937
1673.000000	0.023354
1672.000000	0.023818
1671.000000	0.024512
1670.000000	0.025419
1669.000000	0.026404
1668.000000	0.027296
1667.000000	0.028004
1666.000000	0.028605
1665.000000	0.029254
1664.000000	0.030048
1663.000000	0.030907
1662.000000	0.031677
1661.000000	0.032327
1660.000000	0.032915
1659.000000	0.033471
1658.000000	0.033970
1657.000000	0.034382
1656.000000	0.034738
1655.000000	0.035162
1654.000000	0.035822
1653.000000	0.036666
1652.000000	0.037296
1651.000000	0.037459
1650.000000	0.037460
1649.000000	0.037652
1648.000000	0.038049
1647.000000	0.038536
1646.000000	0.039024
1645.000000	0.039454
1644.000000	0.039784
1643.000000	0.040041
1642.000000	0.040290
1641.000000	0.040563
1640.000000	0.040824
1639.000000	0.041026
1638.000000	0.041189
1637.000000	0.041423
1636.000000	0.041785
1635.000000	0.042174
1634.000000	0.042407
1633.000000	0.042448
1632.000000	0.042442
1631.000000	0.042457
1630.000000	0.042448
1629.000000	0.042368
1628.000000	0.042201
1627.000000	0.041952
1626.000000	0.041636
1625.000000	0.041256
1624.000000	0.040786
1623.000000	0.040208
1622.000000	0.039572
1621.000000	0.038945
1620.000000	0.038336
1619.000000	0.037712
1618.000000	0.036989
1617.000000	0.036119
1616.000000	0.035207
1615.000000	0.034400
1614.000000	0.033715
1613.000000	0.033084
1612.000000	0.032429
1611.000000	0.031705
1610.000000	0.030943
1609.000000	0.030197
1608.000000	0.029498
1607.000000	0.028848
1606.000000	0.028242
1605.000000	0.027666
1604.000000	0.027094
1603.000000	0.026539
1602.000000	0.026034
1601.000000	0.025586
1600.000000	0.025181
1599.000000	0.024818
1598.000000	0.024500
1597.000000	0.024212
1596.000000	0.023939
1595.000000	0.023698
1594.000000	0.023511
1593.000000	0.023366
1592.000000	0.023237
1591.000000	0.023132
1590.000000	0.023075
1589.000000	0.023066
1588.000000	0.023087
1587.000000	0.023141
1586.000000	0.023235
1585.000000	0.023358
1584.000000	0.023484
1583.000000	0.023618
1582.000000	0.023789
1581.000000	0.023976
1580.000000	0.024125
1579.000000	0.024247
1578.000000	0.024423
1577.000000	0.024705
1576.000000	0.025062
1575.000000	0.025414
1574.000000	0.025714
1573.000000	0.025994
1572.000000	0.026330
1571.000000	0.026773
1570.000000	0.027297
1569.000000	0.027805
1568.000000	0.028225
1567.000000	0.028613
1566.000000	0.029073
1565.000000	0.029606
1564.000000	0.030091
1563.000000	0.030439
1562.000000	0.030739
1561.000000	0.031144
1560.000000	0.031779
1559.000000	0.032477
1558.000000	0.033074
1557.000000	0.033527
1556.000000	0.033846
1555.000000	0.034221
1554.000000	0.034693
1553.000000	0.035123
1552.000000	0.035444
1551.000000	0.035731
1550.000000	0.036034
1549.000000	0.036311
1548.000000	0.036529
1547.000000	0.036712
1546.000000	0.036902
1545.000000	0.037061
1544.000000	0.037121
1543.000000	0.037114
1542.000000	0.037115
1541.000000	0.037123
1540.000000	0.037135
1539.000000	0.037226
1538.000000	0.037314
1537.000000	0.037292
1536.000000	0.037259
1535.000000	0.037260
1534.000000	0.037230
1533.000000	0.037100
1532.000000	0.036892
1531.000000	0.036667
1530.000000	0.036455
1529.000000	0.036257
1528.000000	0.036057
1527.000000	0.035834
1526.000000	0.035591
1525.000000	0.035330
1524.000000	0.035041
1523.000000	0.034727
1522.000000	0.034387
1521.000000	0.034058
1520.000000	0.033773
1519.000000	0.033500
1518.000000	0.033227
1517.000000	0.032953
1516.000000	0.032684
1515.000000	0.032422
1514.000000	0.032144
1513.000000	0.031828
1512.000000	0.031449
1511.000000	0.030986
1510.000000	0.030468
1509.000000	0.029919
1508.000000	0.029284
1507.000000	0.028505
1506.000000	0.027878
1505.000000	0.027513
1504.000000	0.027127
1503.000000	0.026705
1502.000000	0.026309
1501.000000	0.025903
1500.000000	0.025459
1499.000000	0.024957
1498.000000	0.024401
1497.000000	0.023820
1496.000000	0.023278
1495.000000	0.022783
1494.000000	0.022306
1493.000000	0.021864
1492.000000	0.021457
1491.000000	0.021014
1490.000000	0.020496
1489.000000	0.020011
1488.000000	0.019685
1487.000000	0.019492
1486.000000	0.019342
1485.000000	0.019223
1484.000000	0.019134
1483.000000	0.019062
1482.000000	0.019013
1481.000000	0.019005
1480.000000	0.019047
1479.000000	0.019129
1478.000000	0.019252
1477.000000	0.019412
1476.000000	0.019589
1475.000000	0.019772
1474.000000	0.020031
1473.000000	0.020454
1472.000000	0.021008
1471.000000	0.021549
1470.000000	0.021997
1469.000000	0.022396
1468.000000	0.022802
1467.000000	0.023208
1466.000000	0.023610
1465.000000	0.024016
1464.000000	0.024383
1463.000000	0.024657
1462.000000	0.024857
1461.000000	0.025056
1460.000000	0.025298
1459.000000	0.025587
1458.000000	0.025967
1457.000000	0.026478
1456.000000	0.026982
1455.000000	0.027266
1454.000000	0.027395
1453.000000	0.027544
1452.000000	0.027718
1451.000000	0.027851
1450.000000	0.027923
1449.000000	0.027960
1448.000000	0.027970
1447.000000	0.027930
1446.000000	0.027851
1445.000000	0.027766
1444.000000	0.027674
1443.000000	0.027574
1442.000000	0.027457
1441.000000	0.027314
1440.000000	0.027147
1439.000000	0.026980
1438.000000	0.026816
1437.000000	0.026601
1436.000000	0.026284
1435.000000	0.025887
1434.000000	0.025493
1433.000000	0.025174
1432.000000	0.024931
1431.000000	0.024718
1430.000000	0.024510
1429.000000	0.024321
1428.000000	0.024173
1427.000000	0.024045
1426.000000	0.023924
1425.000000	0.023812
1424.000000	0.023706
1423.000000	0.023616
1422.000000	0.023570
1421.000000	0.023592
1420.000000	0.023656
1419.000000	0.023675
1418.000000	0.023611
1417.000000	0.023540
1416.000000	0.023533
1415.000000	0.023591
1414.000000	0.023669
1413.000000	0.023731
1412.000000	0.023791
1411.000000	0.023876
1410.000000	0.023982
1409.000000	0.024089
1408.000000	0.024197
1407.000000	0.024314
1406.000000	0.024441
1405.000000	0.024576
1404.000000	0.024702
1403.000000	0.024795
1402.000000	0.024856
1401.000000	0.024908
1400.000000	0.024946
1399.000000	0.024923
1398.000000	0.024825
1397.000000	0.024699
1396.000000	0.024598
1395.000000	0.024533
1394.000000	0.024487
1393.000000	0.024430
1392.000000	0.024340
1391.000000	0.024234
1390.000000	0.024134
1389.000000	0.024041
1388.000000	0.023938
1387.000000	0.023811
1386.000000	0.023671
1385.000000	0.023544
1384.000000	0.023439
1383.000000	0.023341
1382.000000	0.023226
1381.000000	0.023086
1380.000000	0.022937
1379.000000	0.022780
1378.000000	0.022600
1377.000000	0.022385
1376.000000	0.022138
1375.000000	0.021866
1374.000000	0.021592
1373.000000	0.021349
1372.000000	0.021132
1371.000000	0.020909
1370.000000	0.020662
1369.000000	0.020394
1368.000000	0.020119
1367.000000	0.019853
1366.000000	0.019596
1365.000000	0.019332
1364.000000	0.019050
1363.000000	0.018764
1362.000000	0.018521
1361.000000	0.018354
1360.000000	0.018246
1359.000000	0.018171
1358.000000	0.018119
1357.000000	0.018086
1356.000000	0.018066
1355.000000	0.018056
1354.000000	0.018066
1353.000000	0.018107
1352.000000	0.018193
1351.000000	0.018320
1350.000000	0.018475
1349.000000	0.018647
1348.000000	0.018833
1347.000000	0.019034
1346.000000	0.019249
1345.000000	0.019467
1344.000000	0.019674
1343.000000	0.019855
1342.000000	0.020002
1341.000000	0.020114
1340.000000	0.020202
1339.000000	0.020290
1338.000000	0.020393
1337.000000	0.020493
1336.000000	0.020561
1335.000000	0.020579
1334.000000	0.020545
1333.000000	0.020464
1332.000000	0.020343
1331.000000	0.020187
1330.000000	0.020013
1329.000000	0.019842
1328.000000	0.019691
1327.000000	0.019559
1326.000000	0.019443
1325.000000	0.019338
1324.000000	0.019245
1323.000000	0.019165
1322.000000	0.019101
1321.000000	0.019050
1320.000000	0.019010
1319.000000	0.018978
1318.000000	0.018949
1317.000000	0.018916
1316.000000	0.018866
1315.000000	0.018795
1314.000000	0.018704
1313.000000	0.018596
1312.000000	0.018475
1311.000000	0.018350
1310.000000	0.018229
1309.000000	0.018123
1308.000000	0.018031
1307.000000	0.017946
1306.000000	0.017858
1305.000000	0.017761
1304.000000	0.017660
1303.000000	0.017555
1302.000000	0.017449
1301.000000	0.017345
1300.000000	0.017254
1299.000000	0.017180
1298.000000	0.017117
1297.000000	0.017057
1296.000000	0.017006
1295.000000	0.016986
1294.000000	0.017016
1293.000000	0.017095
1292.000000	0.017203
1291.000000	0.017323
1290.000000	0.017454
1289.000000	0.017601
1288.000000	0.017762
1287.000000	0.017929
1286.000000	0.018090
1285.000000	0.018244
1284.000000	0.018386
1283.000000	0.018506
1282.000000	0.018595
1281.000000	0.018654
1280.000000	0.018691
1279.000000	0.018709
1278.000000	0.018712
1277.000000	0.018702
1276.000000	0.018689
1275.000000	0.018671
1274.000000	0.018640
1273.000000	0.018597
1272.000000	0.018561
1271.000000	0.018559
1270.000000	0.018599
1269.000000	0.018669
1268.000000	0.018750
1267.000000	0.018836
1266.000000	0.018932
1265.000000	0.019040
1264.000000	0.019161
1263.000000	0.019287
1262.000000	0.019414
1261.000000	0.019540
1260.000000	0.019670
1259.000000	0.019818
1258.000000	0.019992
1257.000000	0.020185
1256.000000	0.020380
1255.000000	0.020561
1254.000000	0.020734
1253.000000	0.020921
1252.000000	0.021144
1251.000000	0.021408
1250.000000	0.021701
1249.000000	0.022007
1248.000000	0.022304
1247.000000	0.022585
1246.000000	0.022850
1245.000000	0.023104
1244.000000	0.023346
1243.000000	0.023575
1242.000000	0.023799
1241.000000	0.024027
1240.000000	0.024248
1239.000000	0.024440
1238.000000	0.024589
1237.000000	0.024692
1236.000000	0.024744
1235.000000	0.024738
1234.000000	0.024675
1233.000000	0.024572
1232.000000	0.024441
1231.000000	0.024287
1230.000000	0.024109
1229.000000	0.023903
1228.000000	0.023652
1227.000000	0.023330
1226.000000	0.022934
1225.000000	0.022486
1224.000000	0.022016
1223.000000	0.021545
1222.000000	0.021084
1221.000000	0.020649
1220.000000	0.020255
1219.000000	0.019908
1218.000000	0.019605
1217.000000	0.019338
1216.000000	0.019105
1215.000000	0.018913
1214.000000	0.018777
1213.000000	0.018704
1212.000000	0.018687
1211.000000	0.018712
1210.000000	0.018773
1209.000000	0.018863
1208.000000	0.018968
1207.000000	0.019068
1206.000000	0.019152
1205.000000	0.019222
1204.000000	0.019275
1203.000000	0.019302
1202.000000	0.019290
1201.000000	0.019234
1200.000000	0.019133
1199.000000	0.018986
1198.000000	0.018793
1197.000000	0.018570
1196.000000	0.018336
1195.000000	0.018103
1194.000000	0.017875
1193.000000	0.017650
1192.000000	0.017424
1191.000000	0.017186
1190.000000	0.016932
1189.000000	0.016679
1188.000000	0.016453
1187.000000	0.016273
1186.000000	0.016135
1185.000000	0.016014
1184.000000	0.015893
1183.000000	0.015772
1182.000000	0.015665
1181.000000	0.015592
1180.000000	0.015561
1179.000000	0.015560
1178.000000	0.015569
1177.000000	0.015574
1176.000000	0.015576
1175.000000	0.015584
1174.000000	0.015611
1173.000000	0.015664
1172.000000	0.015740
1171.000000	0.015826
1170.000000	0.015907
1169.000000	0.015981
1168.000000	0.016058
1167.000000	0.016147
1166.000000	0.016242
1165.000000	0.016334
1164.000000	0.016420
1163.000000	0.016498
1162.000000	0.016561
1161.000000	0.016594
1160.000000	0.016584
1159.000000	0.016534
1158.000000	0.016450
1157.000000	0.016337
1156.000000	0.016191
1155.000000	0.016015
1154.000000	0.015815
1153.000000	0.015600
1152.000000	0.015382
1151.000000	0.015177
1150.000000	0.014993
1149.000000	0.014822
1148.000000	0.014642
1147.000000	0.014443
1146.000000	0.014234
1145.000000	0.014033
1144.000000	0.013841
1143.000000	0.013643
1142.000000	0.013433
1141.000000	0.013225
1140.000000	0.013034
1139.000000	0.012857
1138.000000	0.012685
1137.000000	0.012516
1136.000000	0.012356
1135.000000	0.012210
1134.000000	0.012072
1133.000000	0.011942
1132.000000	0.011829
1131.000000	0.011738
1130.000000	0.011662
1129.000000	0.011594
1128.000000	0.011540
1127.000000	0.011509
1126.000000	0.011501
1125.000000	0.011517
1124.000000	0.011562
1123.000000	0.011635
1122.000000	0.011716
1121.000000	0.011779
1120.000000	0.011815
1119.000000	0.011842
1118.000000	0.011877
1117.000000	0.011918
1116.000000	0.011950
1115.000000	0.011967
1114.000000	0.011975
1113.000000	0.011984
1112.000000	0.011995
1111.000000	0.012003
1110.000000	0.012012
1109.000000	0.012030
1108.000000	0.012060
1107.000000	0.012094
1106.000000	0.012132
1105.000000	0.012190
1104.000000	0.012289
1103.000000	0.012422
1102.000000	0.012555
1101.000000	0.012661
1100.000000	0.012738
1099.000000	0.012796
1098.000000	0.012838
1097.000000	0.012862
1096.000000	0.012883
1095.000000	0.012924
1094.000000	0.012996
1093.000000	0.013099
1092.000000	0.013235
1091.000000	0.013417
1090.000000	0.013648
1089.000000	0.013916
1088.000000	0.014198
1087.000000	0.014477
1086.000000	0.014741
1085.000000	0.014979
1084.000000	0.015178
1083.000000	0.015328
1082.000000	0.015420
1081.000000	0.015452
1080.000000	0.015427
1079.000000	0.015353
1078.000000	0.015236
1077.000000	0.015074
1076.000000	0.014859
1075.000000	0.014600
1074.000000	0.014328
1073.000000	0.014084
1072.000000	0.013889
1071.000000	0.013738
1070.000000	0.013613
1069.000000	0.013509
1068.000000	0.013434
1067.000000	0.013399
1066.000000	0.013395
1065.000000	0.013406
1064.000000	0.013419
1063.000000	0.013432
1062.000000	0.013445
1061.000000	0.013450
1060.000000	0.013432
1059.000000	0.013382
1058.000000	0.013304
1057.000000	0.013216
1056.000000	0.013138
1055.000000	0.013078
1054.000000	0.013030
1053.000000	0.012982
1052.000000	0.012926
1051.000000	0.012870
1050.000000	0.012832
1049.000000	0.012817
1048.000000	0.012813
1047.000000	0.012800
1046.000000	0.012767
1045.000000	0.012723
1044.000000	0.012694
1043.000000	0.012707
1042.000000	0.012765
1041.000000	0.012847
1040.000000	0.012929
1039.000000	0.013007
1038.000000	0.013101
1037.000000	0.013228
1036.000000	0.013385
1035.000000	0.013551
1034.000000	0.013711
1033.000000	0.013863
1032.000000	0.014002
1031.000000	0.014115
1030.000000	0.014179
1029.000000	0.014180
1028.000000	0.014111
1027.000000	0.013986
1026.000000	0.013832
1025.000000	0.013683
1024.000000	0.013556
1023.000000	0.013453
1022.000000	0.013360
1021.000000	0.013265
1020.000000	0.013154
1019.000000	0.013026
1018.000000	0.012892
1017.000000	0.012763
1016.000000	0.012634
1015.000000	0.012486
1014.000000	0.012315
1013.000000	0.012131
1012.000000	0.011944
1011.000000	0.011750
1010.000000	0.011540
1009.000000	0.011327
1008.000000	0.011132
1007.000000	0.010952
1006.000000	0.010768
1005.000000	0.010567
1004.000000	0.010362
1003.000000	0.010170
1002.000000	0.009990
1001.000000	0.009809
1000.000000	0.009626
999.000000	0.009453
998.000000	0.009301
997.000000	0.009161
996.000000	0.009019
995.000000	0.008868
994.000000	0.008711
993.000000	0.008562
992.000000	0.008425
991.000000	0.008300
990.000000	0.008186
989.000000	0.008080
988.000000	0.007984
987.000000	0.007899
986.000000	0.007816
985.000000	0.007729
984.000000	0.007642
983.000000	0.007569
982.000000	0.007527
981.000000	0.007525
980.000000	0.007551
979.000000	0.007585
978.000000	0.007612
977.000000	0.007635
976.000000	0.007660
975.000000	0.007674
974.000000	0.007655
973.000000	0.007600
972.000000	0.007523
971.000000	0.007448
970.000000	0.007379
969.000000	0.007306
968.000000	0.007221
967.000000	0.007115
966.000000	0.006994
965.000000	0.006873
964.000000	0.006771
963.000000	0.006695
962.000000	0.006626
961.000000	0.006542
960.000000	0.006439
959.000000	0.006327
958.000000	0.006222
957.000000	0.006127
956.000000	0.006038
955.000000	0.005952
954.000000	0.005872
953.000000	0.005806
952.000000	0.005762
951.000000	0.005735
950.000000	0.005711
949.000000	0.005687
948.000000	0.005671
947.000000	0.005668
946.000000	0.005669
945.000000	0.005666
944.000000	0.005660
943.000000	0.005654
942.000000	0.005640
941.000000	0.005616
940.000000	0.005594
939.000000	0.005582
938.000000	0.005568
937.000000	0.005535
936.000000	0.005492
935.000000	0.005467
934.000000	0.005476
933.000000	0.005500
932.000000	0.005509
931.000000	0.005490
930.000000	0.005454
929.000000	0.005421
928.000000	0.005402
927.000000	0.005390
926.000000	0.005367
925.000000	0.005334
924.000000	0.005305
923.000000	0.005291
922.000000	0.005274
921.000000	0.005238
920.000000	0.005189
919.000000	0.005150
918.000000	0.005114
917.000000	0.005048
916.000000	0.004940
915.000000	0.004814
914.000000	0.004710
913.000000	0.004639
912.000000	0.004586
911.000000	0.004528
910.000000	0.004453
909.000000	0.004371
908.000000	0.004308
907.000000	0.004281
906.000000	0.004286
905.000000	0.004304
904.000000	0.004324
903.000000	0.004348
902.000000	0.004367
901.000000	0.004355
900.000000	0.004304
899.000000	0.004234
898.000000	0.004170
897.000000	0.004117
896.000000	0.004070
895.000000	0.004037
894.000000	0.004033
893.000000	0.004052
892.000000	0.004075
891.000000	0.004088
890.000000	0.004094
889.000000	0.004097
888.000000	0.004102
887.000000	0.004121
886.000000	0.004164
885.000000	0.004234
884.000000	0.004324
883.000000	0.004430
882.000000	0.004556
881.000000	0.004702
880.000000	0.004866
879.000000	0.005039
878.000000	0.005209
877.000000	0.005358
876.000000	0.005463
875.000000	0.005521
874.000000	0.005538
873.000000	0.005514
872.000000	0.005437
871.000000	0.005307
870.000000	0.005144
869.000000	0.004981
868.000000	0.004839
867.000000	0.004722
866.000000	0.004630
865.000000	0.004558
864.000000	0.004497
863.000000	0.004444
862.000000	0.004407
861.000000	0.004402
860.000000	0.004429
859.000000	0.004470
858.000000	0.004502
857.000000	0.004518
856.000000	0.004529
855.000000	0.004552
854.000000	0.004594
853.000000	0.004644
852.000000	0.004676
851.000000	0.004661
850.000000	0.004602
849.000000	0.004539
848.000000	0.004508
847.000000	0.004513
846.000000	0.004521
845.000000	0.004508
844.000000	0.004485
843.000000	0.004467
842.000000	0.004435
841.000000	0.004355
840.000000	0.004228
839.000000	0.004115
838.000000	0.004081
837.000000	0.004127
836.000000	0.004191
835.000000	0.004209
834.000000	0.004172
833.000000	0.004112
832.000000	0.004061
831.000000	0.004029
830.000000	0.004012
829.000000	0.004006
828.000000	0.004012
827.000000	0.004031
826.000000	0.004064
825.000000	0.004113
824.000000	0.004168
823.000000	0.004211
822.000000	0.004225
821.000000	0.004212
820.000000	0.004188
819.000000	0.004170
818.000000	0.004170
817.000000	0.004192
816.000000	0.004230
815.000000	0.004268
814.000000	0.004282
813.000000	0.004265
812.000000	0.004235
811.000000	0.004219
810.000000	0.004221
809.000000	0.004224
808.000000	0.004207
807.000000	0.004177
806.000000	0.004148
805.000000	0.004118
804.000000	0.004070
803.000000	0.004005
802.000000	0.003963
801.000000	0.003987
800.000000	0.004079
799.000000	0.004191
798.000000	0.004255
797.000000	0.004233
796.000000	0.004151
795.000000	0.004085
794.000000	0.004094
793.000000	0.004172
792.000000	0.004259
791.000000	0.004308
790.000000	0.004329
789.000000	0.004354
788.000000	0.004390
787.000000	0.004418
786.000000	0.004425
785.000000	0.004418
784.000000	0.004402
783.000000	0.004376
782.000000	0.004346
781.000000	0.004331
780.000000	0.004337
779.000000	0.004366
778.000000	0.004420
777.000000	0.004502
776.000000	0.004593
775.000000	0.004651
774.000000	0.004638
773.000000	0.004561
772.000000	0.004468
771.000000	0.004419
770.000000	0.004449
769.000000	0.004544
768.000000	0.004649
767.000000	0.004716
766.000000	0.004742
765.000000	0.004759
764.000000	0.004784
763.000000	0.004791
762.000000	0.004750
761.000000	0.004661
760.000000	0.004555
759.000000	0.004472
758.000000	0.004447
757.000000	0.004492
756.000000	0.004585
755.000000	0.004670
754.000000	0.004702
753.000000	0.004682
752.000000	0.004648
751.000000	0.004647
750.000000	0.004702
749.000000	0.004797
748.000000	0.004895
747.000000	0.004968
746.000000	0.005017
745.000000	0.005061
744.000000	0.005115
743.000000	0.005180
742.000000	0.005259
741.000000	0.005345
740.000000	0.005417
739.000000	0.005455
738.000000	0.005479
737.000000	0.005530
736.000000	0.005616
735.000000	0.005694
734.000000	0.005726
733.000000	0.005734
732.000000	0.005772
731.000000	0.005863
730.000000	0.005978
729.000000	0.006088
728.000000	0.006195
727.000000	0.006324
726.000000	0.006482
725.000000	0.006645
724.000000	0.006771
723.000000	0.006844
722.000000	0.006885
721.000000	0.006936
720.000000	0.007008
719.000000	0.007075
718.000000	0.007111
717.000000	0.007121
716.000000	0.007129
715.000000	0.007150
714.000000	0.007191
713.000000	0.007250
712.000000	0.007313
711.000000	0.007365
710.000000	0.007416
709.000000	0.007504
708.000000	0.007649
707.000000	0.007818
706.000000	0.007960
705.000000	0.008054
704.000000	0.008102
703.000000	0.008106
702.000000	0.008076
701.000000	0.008053
700.000000	0.008085
699.000000	0.008171
698.000000	0.008261
697.000000	0.008310
696.000000	0.008318
695.000000	0.008310
694.000000	0.008306
693.000000	0.008314
692.000000	0.008340
691.000000	0.008387
690.000000	0.008455
689.000000	0.008527
688.000000	0.008571
687.000000	0.008572
686.000000	0.008560
685.000000	0.008598
684.000000	0.008715
683.000000	0.008868
682.000000	0.008994
681.000000	0.009065
680.000000	0.009093
679.000000	0.009088
678.000000	0.009066
677.000000	0.009067
676.000000	0.009129
675.000000	0.009223
674.000000	0.009282
673.000000	0.009292
672.000000	0.009310
671.000000	0.009365
670.000000	0.009421
669.000000	0.009405
668.000000	0.009286
667.000000	0.009208
666.000000	0.009305
665.000000	0.009505
664.000000	0.009706
663.000000	0.009857
662.000000	0.009921
661.000000	0.009889
660.000000	0.009819
659.000000	0.009803
658.000000	0.009875
657.000000	0.009985
656.000000	0.010073
655.000000	0.010128
654.000000	0.010177
653.000000	0.010219
652.000000	0.010232
651.000000	0.010227
650.000000	0.010253
649.000000	0.010322
648.000000	0.010354
647.000000	0.010265
646.000000	0.010076
645.000000	0.009894
644.000000	0.009785
643.000000	0.009734
642.000000	0.009717
641.000000	0.009748
640.000000	0.009831
639.000000	0.009918
638.000000	0.009952
637.000000	0.009938
636.000000	0.009907
635.000000	0.009858
634.000000	0.009771
633.000000	0.009673
632.000000	0.009631
631.000000	0.009684
630.000000	0.009795
629.000000	0.009904
628.000000	0.009986
627.000000	0.010058
626.000000	0.010130
625.000000	0.010193
624.000000	0.010237
623.000000	0.010269
622.000000	0.010297
621.000000	0.010308
620.000000	0.010284
619.000000	0.010229
618.000000	0.010174
617.000000	0.010145
616.000000	0.010150
615.000000	0.010187
614.000000	0.010265
613.000000	0.010359
612.000000	0.010400
611.000000	0.010328
610.000000	0.010169
609.000000	0.010030
608.000000	0.009994
607.000000	0.010043
606.000000	0.010089
605.000000	0.010062
604.000000	0.009969
603.000000	0.009890
602.000000	0.009910
601.000000	0.010029
600.000000	0.010151
599.000000	0.010183
598.000000	0.010137
597.000000	0.010111
596.000000	0.010144
595.000000	0.010178
594.000000	0.010152
593.000000	0.010096
592.000000	0.010082
591.000000	0.010131
590.000000	0.010205
589.000000	0.010273
588.000000	0.010322
587.000000	0.010334
586.000000	0.010298
585.000000	0.010236
584.000000	0.010188
583.000000	0.010168
582.000000	0.010171
581.000000	0.010205
580.000000	0.010278
579.000000	0.010353
578.000000	0.010370
577.000000	0.010317
576.000000	0.010266
575.000000	0.010304
574.000000	0.010443
573.000000	0.010609
572.000000	0.010730
571.000000	0.010816
570.000000	0.010946
569.000000	0.011158
568.000000	0.011377
567.000000	0.011487
566.000000	0.011470
565.000000	0.011420
564.000000	0.011418
563.000000	0.011465
562.000000	0.011543
561.000000	0.011661
560.000000	0.011789
559.000000	0.011833
558.000000	0.011745
557.000000	0.011611
556.000000	0.011539
555.000000	0.011510
554.000000	0.011415
553.000000	0.011246
552.000000	0.011136
551.000000	0.011201
550.000000	0.011400
549.000000	0.011570
548.000000	0.011592
547.000000	0.011486
546.000000	0.011385
545.000000	0.011394
544.000000	0.011473
543.000000	0.011478
542.000000	0.011321
541.000000	0.011058
540.000000	0.010820
539.000000	0.010701
538.000000	0.010751
537.000000	0.010981
536.000000	0.011318
535.000000	0.011612
534.000000	0.011773
533.000000	0.011872
532.000000	0.012023
531.000000	0.012188
530.000000	0.012211
529.000000	0.012031
528.000000	0.011762
527.000000	0.011569
526.000000	0.011528
525.000000	0.011591
524.000000	0.011661
523.000000	0.011673
522.000000	0.011612
521.000000	0.011491
520.000000	0.011298
519.000000	0.011017
518.000000	0.010697
517.000000	0.010453
516.000000	0.010337
515.000000	0.010287
514.000000	0.010234
513.000000	0.010209
512.000000	0.010243
511.000000	0.010260
510.000000	0.010161
509.000000	0.009990
508.000000	0.009892
507.000000	0.009914
506.000000	0.009938
505.000000	0.009844
504.000000	0.009642
503.000000	0.009400
502.000000	0.009159
501.000000	0.008929
500.000000	0.008725
499.000000	0.008574
498.000000	0.008501
497.000000	0.008503
496.000000	0.008509
495.000000	0.008410
494.000000	0.008183
493.000000	0.007952
492.000000	0.007855
491.000000	0.007848
490.000000	0.007755
489.000000	0.007517
488.000000	0.007256
487.000000	0.007103
486.000000	0.007056
485.000000	0.007042
484.000000	0.007034
483.000000	0.007035
482.000000	0.007014
481.000000	0.006928
480.000000	0.006790
479.000000	0.006666
478.000000	0.006625
477.000000	0.006684
476.000000	0.006795
475.000000	0.006860
474.000000	0.006805
473.000000	0.006659
472.000000	0.006525
471.000000	0.006427
470.000000	0.006288
469.000000	0.006075
468.000000	0.005864
467.000000	0.005760
466.000000	0.005795
465.000000	0.005925
464.000000	0.006055
463.000000	0.006066
462.000000	0.005895
461.000000	0.005605
460.000000	0.005320
459.000000	0.005085
458.000000	0.004879
457.000000	0.004736
456.000000	0.004697
455.000000	0.004707
454.000000	0.004650
453.000000	0.004465
452.000000	0.004213
451.000000	0.004066
450.000000	0.004143
