PE IR       SUBTECH     SPECTRUM    ASCII       PEDS        4.00        
   -1
3C-N10-F014_1.ASC
22/02/16
15:29:45.00
22/02/16
15:56:00.00
uco
Sample 014 By uco Date Wednesday, February 16 2022
450.000000
#HDR
-1
-1
#GR
cm-1
A
1.0
0.0
4000.000000
-1.000000
3551
8
0.055822
0.003957
#DATA
4000.000000	0.004522
3999.000000	0.004527
3998.000000	0.004539
3997.000000	0.004560
3996.000000	0.004580
3995.000000	0.004588
3994.000000	0.004577
3993.000000	0.004556
3992.000000	0.004541
3991.000000	0.004547
3990.000000	0.004573
3989.000000	0.004612
3988.000000	0.004649
3987.000000	0.004675
3986.000000	0.004687
3985.000000	0.004685
3984.000000	0.004672
3983.000000	0.004653
3982.000000	0.004630
3981.000000	0.004604
3980.000000	0.004574
3979.000000	0.004545
3978.000000	0.004521
3977.000000	0.004506
3976.000000	0.004503
3975.000000	0.004515
3974.000000	0.004538
3973.000000	0.004568
3972.000000	0.004594
3971.000000	0.004607
3970.000000	0.004607
3969.000000	0.004602
3968.000000	0.004601
3967.000000	0.004607
3966.000000	0.004618
3965.000000	0.004630
3964.000000	0.004642
3963.000000	0.004655
3962.000000	0.004667
3961.000000	0.004678
3960.000000	0.004682
3959.000000	0.004681
3958.000000	0.004675
3957.000000	0.004670
3956.000000	0.004667
3955.000000	0.004669
3954.000000	0.004678
3953.000000	0.004690
3952.000000	0.004698
3951.000000	0.004698
3950.000000	0.004691
3949.000000	0.004683
3948.000000	0.004676
3947.000000	0.004669
3946.000000	0.004658
3945.000000	0.004648
3944.000000	0.004647
3943.000000	0.004662
3942.000000	0.004689
3941.000000	0.004712
3940.000000	0.004721
3939.000000	0.004714
3938.000000	0.004698
3937.000000	0.004681
3936.000000	0.004669
3935.000000	0.004664
3934.000000	0.004668
3933.000000	0.004675
3932.000000	0.004677
3931.000000	0.004668
3930.000000	0.004650
3929.000000	0.004630
3928.000000	0.004621
3927.000000	0.004627
3926.000000	0.004650
3925.000000	0.004685
3924.000000	0.004724
3923.000000	0.004755
3922.000000	0.004770
3921.000000	0.004765
3920.000000	0.004748
3919.000000	0.004729
3918.000000	0.004718
3917.000000	0.004715
3916.000000	0.004714
3915.000000	0.004711
3914.000000	0.004705
3913.000000	0.004697
3912.000000	0.004688
3911.000000	0.004681
3910.000000	0.004683
3909.000000	0.004696
3908.000000	0.004723
3907.000000	0.004753
3906.000000	0.004774
3905.000000	0.004778
3904.000000	0.004766
3903.000000	0.004745
3902.000000	0.004721
3901.000000	0.004693
3900.000000	0.004667
3899.000000	0.004650
3898.000000	0.004651
3897.000000	0.004671
3896.000000	0.004704
3895.000000	0.004739
3894.000000	0.004762
3893.000000	0.004764
3892.000000	0.004750
3891.000000	0.004737
3890.000000	0.004738
3889.000000	0.004744
3888.000000	0.004736
3887.000000	0.004706
3886.000000	0.004666
3885.000000	0.004643
3884.000000	0.004653
3883.000000	0.004691
3882.000000	0.004739
3881.000000	0.004777
3880.000000	0.004793
3879.000000	0.004788
3878.000000	0.004773
3877.000000	0.004757
3876.000000	0.004750
3875.000000	0.004758
3874.000000	0.004776
3873.000000	0.004787
3872.000000	0.004774
3871.000000	0.004745
3870.000000	0.004725
3869.000000	0.004728
3868.000000	0.004744
3867.000000	0.004756
3866.000000	0.004762
3865.000000	0.004770
3864.000000	0.004782
3863.000000	0.004791
3862.000000	0.004795
3861.000000	0.004803
3860.000000	0.004824
3859.000000	0.004857
3858.000000	0.004892
3857.000000	0.004912
3856.000000	0.004905
3855.000000	0.004863
3854.000000	0.004798
3853.000000	0.004731
3852.000000	0.004681
3851.000000	0.004659
3850.000000	0.004664
3849.000000	0.004687
3848.000000	0.004717
3847.000000	0.004740
3846.000000	0.004752
3845.000000	0.004754
3844.000000	0.004752
3843.000000	0.004749
3842.000000	0.004742
3841.000000	0.004728
3840.000000	0.004711
3839.000000	0.004702
3838.000000	0.004707
3837.000000	0.004721
3836.000000	0.004737
3835.000000	0.004755
3834.000000	0.004777
3833.000000	0.004799
3832.000000	0.004818
3831.000000	0.004830
3830.000000	0.004829
3829.000000	0.004807
3828.000000	0.004764
3827.000000	0.004710
3826.000000	0.004669
3825.000000	0.004656
3824.000000	0.004672
3823.000000	0.004710
3822.000000	0.004758
3821.000000	0.004802
3820.000000	0.004827
3819.000000	0.004827
3818.000000	0.004806
3817.000000	0.004775
3816.000000	0.004746
3815.000000	0.004726
3814.000000	0.004709
3813.000000	0.004691
3812.000000	0.004675
3811.000000	0.004672
3810.000000	0.004679
3809.000000	0.004683
3808.000000	0.004675
3807.000000	0.004664
3806.000000	0.004668
3805.000000	0.004694
3804.000000	0.004736
3803.000000	0.004784
3802.000000	0.004828
3801.000000	0.004852
3800.000000	0.004843
3799.000000	0.004803
3798.000000	0.004745
3797.000000	0.004685
3796.000000	0.004639
3795.000000	0.004611
3794.000000	0.004597
3793.000000	0.004590
3792.000000	0.004592
3791.000000	0.004602
3790.000000	0.004619
3789.000000	0.004630
3788.000000	0.004630
3787.000000	0.004625
3786.000000	0.004625
3785.000000	0.004637
3784.000000	0.004656
3783.000000	0.004675
3782.000000	0.004687
3781.000000	0.004692
3780.000000	0.004694
3779.000000	0.004698
3778.000000	0.004700
3777.000000	0.004692
3776.000000	0.004670
3775.000000	0.004645
3774.000000	0.004629
3773.000000	0.004630
3772.000000	0.004642
3771.000000	0.004655
3770.000000	0.004665
3769.000000	0.004679
3768.000000	0.004702
3767.000000	0.004729
3766.000000	0.004744
3765.000000	0.004734
3764.000000	0.004705
3763.000000	0.004673
3762.000000	0.004648
3761.000000	0.004630
3760.000000	0.004618
3759.000000	0.004617
3758.000000	0.004630
3757.000000	0.004653
3756.000000	0.004678
3755.000000	0.004699
3754.000000	0.004715
3753.000000	0.004728
3752.000000	0.004735
3751.000000	0.004730
3750.000000	0.004714
3749.000000	0.004700
3748.000000	0.004695
3747.000000	0.004691
3746.000000	0.004676
3745.000000	0.004654
3744.000000	0.004644
3743.000000	0.004652
3742.000000	0.004665
3741.000000	0.004671
3740.000000	0.004673
3739.000000	0.004680
3738.000000	0.004698
3737.000000	0.004722
3736.000000	0.004739
3735.000000	0.004742
3734.000000	0.004729
3733.000000	0.004711
3732.000000	0.004692
3731.000000	0.004675
3730.000000	0.004656
3729.000000	0.004632
3728.000000	0.004606
3727.000000	0.004585
3726.000000	0.004572
3725.000000	0.004566
3724.000000	0.004563
3723.000000	0.004562
3722.000000	0.004556
3721.000000	0.004536
3720.000000	0.004507
3719.000000	0.004485
3718.000000	0.004483
3717.000000	0.004501
3716.000000	0.004530
3715.000000	0.004562
3714.000000	0.004598
3713.000000	0.004644
3712.000000	0.004696
3711.000000	0.004740
3710.000000	0.004757
3709.000000	0.004739
3708.000000	0.004697
3707.000000	0.004651
3706.000000	0.004619
3705.000000	0.004609
3704.000000	0.004617
3703.000000	0.004629
3702.000000	0.004628
3701.000000	0.004604
3700.000000	0.004564
3699.000000	0.004525
3698.000000	0.004499
3697.000000	0.004490
3696.000000	0.004496
3695.000000	0.004514
3694.000000	0.004536
3693.000000	0.004553
3692.000000	0.004563
3691.000000	0.004572
3690.000000	0.004592
3689.000000	0.004619
3688.000000	0.004636
3687.000000	0.004633
3686.000000	0.004616
3685.000000	0.004603
3684.000000	0.004610
3683.000000	0.004644
3682.000000	0.004695
3681.000000	0.004748
3680.000000	0.004801
3679.000000	0.004861
3678.000000	0.004924
3677.000000	0.004969
3676.000000	0.004972
3675.000000	0.004937
3674.000000	0.004889
3673.000000	0.004847
3672.000000	0.004814
3671.000000	0.004793
3670.000000	0.004796
3669.000000	0.004819
3668.000000	0.004845
3667.000000	0.004867
3666.000000	0.004882
3665.000000	0.004894
3664.000000	0.004908
3663.000000	0.004930
3662.000000	0.004959
3661.000000	0.004990
3660.000000	0.005019
3659.000000	0.005043
3658.000000	0.005065
3657.000000	0.005086
3656.000000	0.005113
3655.000000	0.005146
3654.000000	0.005180
3653.000000	0.005203
3652.000000	0.005209
3651.000000	0.005208
3650.000000	0.005228
3649.000000	0.005288
3648.000000	0.005381
3647.000000	0.005486
3646.000000	0.005584
3645.000000	0.005659
3644.000000	0.005703
3643.000000	0.005717
3642.000000	0.005713
3641.000000	0.005706
3640.000000	0.005708
3639.000000	0.005727
3638.000000	0.005761
3637.000000	0.005802
3636.000000	0.005840
3635.000000	0.005874
3634.000000	0.005905
3633.000000	0.005933
3632.000000	0.005956
3631.000000	0.005975
3630.000000	0.006005
3629.000000	0.006054
3628.000000	0.006108
3627.000000	0.006150
3626.000000	0.006181
3625.000000	0.006215
3624.000000	0.006260
3623.000000	0.006317
3622.000000	0.006375
3621.000000	0.006423
3620.000000	0.006468
3619.000000	0.006525
3618.000000	0.006600
3617.000000	0.006683
3616.000000	0.006764
3615.000000	0.006836
3614.000000	0.006898
3613.000000	0.006946
3612.000000	0.006982
3611.000000	0.007014
3610.000000	0.007052
3609.000000	0.007097
3608.000000	0.007143
3607.000000	0.007183
3606.000000	0.007218
3605.000000	0.007260
3604.000000	0.007316
3603.000000	0.007386
3602.000000	0.007459
3601.000000	0.007518
3600.000000	0.007561
3599.000000	0.007602
3598.000000	0.007661
3597.000000	0.007747
3596.000000	0.007847
3595.000000	0.007939
3594.000000	0.008005
3593.000000	0.008040
3592.000000	0.008054
3591.000000	0.008060
3590.000000	0.008069
3589.000000	0.008106
3588.000000	0.008192
3587.000000	0.008322
3586.000000	0.008456
3585.000000	0.008557
3584.000000	0.008620
3583.000000	0.008667
3582.000000	0.008721
3581.000000	0.008797
3580.000000	0.008893
3579.000000	0.008995
3578.000000	0.009089
3577.000000	0.009170
3576.000000	0.009238
3575.000000	0.009304
3574.000000	0.009368
3573.000000	0.009424
3572.000000	0.009468
3571.000000	0.009499
3570.000000	0.009528
3569.000000	0.009568
3568.000000	0.009635
3567.000000	0.009731
3566.000000	0.009840
3565.000000	0.009943
3564.000000	0.010033
3563.000000	0.010113
3562.000000	0.010184
3561.000000	0.010246
3560.000000	0.010306
3559.000000	0.010375
3558.000000	0.010463
3557.000000	0.010565
3556.000000	0.010672
3555.000000	0.010775
3554.000000	0.010876
3553.000000	0.010976
3552.000000	0.011072
3551.000000	0.011156
3550.000000	0.011221
3549.000000	0.011262
3548.000000	0.011293
3547.000000	0.011336
3546.000000	0.011404
3545.000000	0.011493
3544.000000	0.011587
3543.000000	0.011677
3542.000000	0.011761
3541.000000	0.011838
3540.000000	0.011910
3539.000000	0.011981
3538.000000	0.012056
3537.000000	0.012133
3536.000000	0.012208
3535.000000	0.012281
3534.000000	0.012352
3533.000000	0.012425
3532.000000	0.012505
3531.000000	0.012594
3530.000000	0.012689
3529.000000	0.012773
3528.000000	0.012839
3527.000000	0.012892
3526.000000	0.012949
3525.000000	0.013019
3524.000000	0.013101
3523.000000	0.013185
3522.000000	0.013267
3521.000000	0.013346
3520.000000	0.013426
3519.000000	0.013509
3518.000000	0.013592
3517.000000	0.013669
3516.000000	0.013732
3515.000000	0.013780
3514.000000	0.013820
3513.000000	0.013865
3512.000000	0.013923
3511.000000	0.013996
3510.000000	0.014075
3509.000000	0.014149
3508.000000	0.014219
3507.000000	0.014291
3506.000000	0.014368
3505.000000	0.014439
3504.000000	0.014500
3503.000000	0.014553
3502.000000	0.014606
3501.000000	0.014668
3500.000000	0.014742
3499.000000	0.014827
3498.000000	0.014917
3497.000000	0.014999
3496.000000	0.015063
3495.000000	0.015112
3494.000000	0.015157
3493.000000	0.015206
3492.000000	0.015257
3491.000000	0.015307
3490.000000	0.015355
3489.000000	0.015405
3488.000000	0.015461
3487.000000	0.015525
3486.000000	0.015590
3485.000000	0.015646
3484.000000	0.015690
3483.000000	0.015729
3482.000000	0.015772
3481.000000	0.015824
3480.000000	0.015883
3479.000000	0.015951
3478.000000	0.016022
3477.000000	0.016088
3476.000000	0.016138
3475.000000	0.016179
3474.000000	0.016223
3473.000000	0.016279
3472.000000	0.016348
3471.000000	0.016424
3470.000000	0.016499
3469.000000	0.016566
3468.000000	0.016627
3467.000000	0.016685
3466.000000	0.016740
3465.000000	0.016785
3464.000000	0.016815
3463.000000	0.016835
3462.000000	0.016857
3461.000000	0.016894
3460.000000	0.016953
3459.000000	0.017034
3458.000000	0.017129
3457.000000	0.017222
3456.000000	0.017298
3455.000000	0.017351
3454.000000	0.017391
3453.000000	0.017432
3452.000000	0.017483
3451.000000	0.017543
3450.000000	0.017607
3449.000000	0.017666
3448.000000	0.017720
3447.000000	0.017773
3446.000000	0.017826
3445.000000	0.017872
3444.000000	0.017908
3443.000000	0.017942
3442.000000	0.017984
3441.000000	0.018042
3440.000000	0.018112
3439.000000	0.018191
3438.000000	0.018275
3437.000000	0.018357
3436.000000	0.018431
3435.000000	0.018490
3434.000000	0.018532
3433.000000	0.018563
3432.000000	0.018594
3431.000000	0.018634
3430.000000	0.018683
3429.000000	0.018735
3428.000000	0.018787
3427.000000	0.018845
3426.000000	0.018918
3425.000000	0.018999
3424.000000	0.019071
3423.000000	0.019122
3422.000000	0.019154
3421.000000	0.019183
3420.000000	0.019219
3419.000000	0.019266
3418.000000	0.019319
3417.000000	0.019371
3416.000000	0.019423
3415.000000	0.019476
3414.000000	0.019537
3413.000000	0.019603
3412.000000	0.019668
3411.000000	0.019728
3410.000000	0.019781
3409.000000	0.019831
3408.000000	0.019886
3407.000000	0.019947
3406.000000	0.020007
3405.000000	0.020055
3404.000000	0.020094
3403.000000	0.020134
3402.000000	0.020186
3401.000000	0.020246
3400.000000	0.020302
3399.000000	0.020347
3398.000000	0.020384
3397.000000	0.020424
3396.000000	0.020477
3395.000000	0.020543
3394.000000	0.020614
3393.000000	0.020678
3392.000000	0.020730
3391.000000	0.020772
3390.000000	0.020808
3389.000000	0.020844
3388.000000	0.020887
3387.000000	0.020945
3386.000000	0.021020
3385.000000	0.021107
3384.000000	0.021191
3383.000000	0.021261
3382.000000	0.021315
3381.000000	0.021362
3380.000000	0.021416
3379.000000	0.021492
3378.000000	0.021590
3377.000000	0.021702
3376.000000	0.021809
3375.000000	0.021895
3374.000000	0.021951
3373.000000	0.021988
3372.000000	0.022029
3371.000000	0.022099
3370.000000	0.022200
3369.000000	0.022309
3368.000000	0.022407
3367.000000	0.022493
3366.000000	0.022579
3365.000000	0.022671
3364.000000	0.022762
3363.000000	0.022839
3362.000000	0.022897
3361.000000	0.022941
3360.000000	0.022988
3359.000000	0.023051
3358.000000	0.023138
3357.000000	0.023247
3356.000000	0.023371
3355.000000	0.023504
3354.000000	0.023637
3353.000000	0.023755
3352.000000	0.023855
3351.000000	0.023941
3350.000000	0.024022
3349.000000	0.024106
3348.000000	0.024199
3347.000000	0.024305
3346.000000	0.024421
3345.000000	0.024533
3344.000000	0.024630
3343.000000	0.024717
3342.000000	0.024804
3341.000000	0.024895
3340.000000	0.024990
3339.000000	0.025089
3338.000000	0.025195
3337.000000	0.025308
3336.000000	0.025418
3335.000000	0.025515
3334.000000	0.025593
3333.000000	0.025664
3332.000000	0.025747
3331.000000	0.025855
3330.000000	0.025974
3329.000000	0.026077
3328.000000	0.026151
3327.000000	0.026206
3326.000000	0.026261
3325.000000	0.026328
3324.000000	0.026408
3323.000000	0.026493
3322.000000	0.026573
3321.000000	0.026639
3320.000000	0.026689
3319.000000	0.026738
3318.000000	0.026798
3317.000000	0.026873
3316.000000	0.026954
3315.000000	0.027035
3314.000000	0.027107
3313.000000	0.027162
3312.000000	0.027194
3311.000000	0.027206
3310.000000	0.027211
3309.000000	0.027224
3308.000000	0.027257
3307.000000	0.027306
3306.000000	0.027360
3305.000000	0.027409
3304.000000	0.027451
3303.000000	0.027497
3302.000000	0.027547
3301.000000	0.027590
3300.000000	0.027617
3299.000000	0.027631
3298.000000	0.027647
3297.000000	0.027674
3296.000000	0.027711
3295.000000	0.027749
3294.000000	0.027779
3293.000000	0.027790
3292.000000	0.027786
3291.000000	0.027784
3290.000000	0.027804
3289.000000	0.027843
3288.000000	0.027883
3287.000000	0.027903
3286.000000	0.027897
3285.000000	0.027874
3284.000000	0.027850
3283.000000	0.027836
3282.000000	0.027833
3281.000000	0.027834
3280.000000	0.027829
3279.000000	0.027817
3278.000000	0.027796
3277.000000	0.027759
3276.000000	0.027701
3275.000000	0.027627
3274.000000	0.027548
3273.000000	0.027478
3272.000000	0.027431
3271.000000	0.027413
3270.000000	0.027416
3269.000000	0.027418
3268.000000	0.027401
3267.000000	0.027356
3266.000000	0.027297
3265.000000	0.027237
3264.000000	0.027188
3263.000000	0.027151
3262.000000	0.027119
3261.000000	0.027079
3260.000000	0.027020
3259.000000	0.026943
3258.000000	0.026856
3257.000000	0.026772
3256.000000	0.026705
3255.000000	0.026654
3254.000000	0.026603
3253.000000	0.026533
3252.000000	0.026446
3251.000000	0.026358
3250.000000	0.026289
3249.000000	0.026244
3248.000000	0.026211
3247.000000	0.026175
3246.000000	0.026126
3245.000000	0.026059
3244.000000	0.025984
3243.000000	0.025916
3242.000000	0.025861
3241.000000	0.025814
3240.000000	0.025769
3239.000000	0.025726
3238.000000	0.025687
3237.000000	0.025647
3236.000000	0.025599
3235.000000	0.025545
3234.000000	0.025491
3233.000000	0.025437
3232.000000	0.025384
3231.000000	0.025332
3230.000000	0.025286
3229.000000	0.025235
3228.000000	0.025167
3227.000000	0.025080
3226.000000	0.024989
3225.000000	0.024913
3224.000000	0.024864
3223.000000	0.024837
3222.000000	0.024822
3221.000000	0.024807
3220.000000	0.024784
3219.000000	0.024747
3218.000000	0.024693
3217.000000	0.024623
3216.000000	0.024549
3215.000000	0.024485
3214.000000	0.024439
3213.000000	0.024398
3212.000000	0.024348
3211.000000	0.024284
3210.000000	0.024218
3209.000000	0.024158
3208.000000	0.024101
3207.000000	0.024044
3206.000000	0.023986
3205.000000	0.023929
3204.000000	0.023874
3203.000000	0.023821
3202.000000	0.023772
3201.000000	0.023727
3200.000000	0.023684
3199.000000	0.023634
3198.000000	0.023567
3197.000000	0.023478
3196.000000	0.023375
3195.000000	0.023278
3194.000000	0.023198
3193.000000	0.023134
3192.000000	0.023069
3191.000000	0.022993
3190.000000	0.022910
3189.000000	0.022830
3188.000000	0.022763
3187.000000	0.022704
3186.000000	0.022644
3185.000000	0.022578
3184.000000	0.022505
3183.000000	0.022433
3182.000000	0.022365
3181.000000	0.022295
3180.000000	0.022220
3179.000000	0.022141
3178.000000	0.022064
3177.000000	0.021990
3176.000000	0.021914
3175.000000	0.021828
3174.000000	0.021733
3173.000000	0.021636
3172.000000	0.021548
3171.000000	0.021471
3170.000000	0.021404
3169.000000	0.021339
3168.000000	0.021271
3167.000000	0.021199
3166.000000	0.021123
3165.000000	0.021041
3164.000000	0.020954
3163.000000	0.020871
3162.000000	0.020801
3161.000000	0.020743
3160.000000	0.020689
3159.000000	0.020627
3158.000000	0.020554
3157.000000	0.020473
3156.000000	0.020386
3155.000000	0.020296
3154.000000	0.020207
3153.000000	0.020119
3152.000000	0.020038
3151.000000	0.019971
3150.000000	0.019921
3149.000000	0.019881
3148.000000	0.019840
3147.000000	0.019792
3146.000000	0.019735
3145.000000	0.019675
3144.000000	0.019612
3143.000000	0.019548
3142.000000	0.019482
3141.000000	0.019417
3140.000000	0.019355
3139.000000	0.019294
3138.000000	0.019229
3137.000000	0.019159
3136.000000	0.019096
3135.000000	0.019054
3134.000000	0.019034
3133.000000	0.019017
3132.000000	0.018984
3131.000000	0.018929
3130.000000	0.018870
3129.000000	0.018828
3128.000000	0.018815
3127.000000	0.018828
3126.000000	0.018844
3125.000000	0.018835
3124.000000	0.018781
3123.000000	0.018688
3122.000000	0.018586
3121.000000	0.018507
3120.000000	0.018463
3119.000000	0.018449
3118.000000	0.018452
3117.000000	0.018461
3116.000000	0.018473
3115.000000	0.018484
3114.000000	0.018491
3113.000000	0.018492
3112.000000	0.018491
3111.000000	0.018490
3110.000000	0.018489
3109.000000	0.018483
3108.000000	0.018473
3107.000000	0.018467
3106.000000	0.018471
3105.000000	0.018484
3104.000000	0.018502
3103.000000	0.018517
3102.000000	0.018526
3101.000000	0.018533
3100.000000	0.018549
3099.000000	0.018587
3098.000000	0.018651
3097.000000	0.018727
3096.000000	0.018791
3095.000000	0.018825
3094.000000	0.018829
3093.000000	0.018817
3092.000000	0.018802
3091.000000	0.018796
3090.000000	0.018806
3089.000000	0.018832
3088.000000	0.018870
3087.000000	0.018905
3086.000000	0.018929
3085.000000	0.018941
3084.000000	0.018951
3083.000000	0.018964
3082.000000	0.018977
3081.000000	0.018981
3080.000000	0.018972
3079.000000	0.018956
3078.000000	0.018944
3077.000000	0.018944
3076.000000	0.018952
3075.000000	0.018964
3074.000000	0.018973
3073.000000	0.018980
3072.000000	0.018986
3071.000000	0.018994
3070.000000	0.019000
3069.000000	0.018998
3068.000000	0.018981
3067.000000	0.018947
3066.000000	0.018898
3065.000000	0.018839
3064.000000	0.018782
3063.000000	0.018734
3062.000000	0.018701
3061.000000	0.018674
3060.000000	0.018642
3059.000000	0.018596
3058.000000	0.018540
3057.000000	0.018484
3056.000000	0.018434
3055.000000	0.018384
3054.000000	0.018323
3053.000000	0.018249
3052.000000	0.018172
3051.000000	0.018102
3050.000000	0.018042
3049.000000	0.017987
3048.000000	0.017929
3047.000000	0.017865
3046.000000	0.017793
3045.000000	0.017717
3044.000000	0.017642
3043.000000	0.017574
3042.000000	0.017507
3041.000000	0.017438
3040.000000	0.017363
3039.000000	0.017285
3038.000000	0.017207
3037.000000	0.017132
3036.000000	0.017065
3035.000000	0.017007
3034.000000	0.016955
3033.000000	0.016905
3032.000000	0.016855
3031.000000	0.016803
3030.000000	0.016748
3029.000000	0.016689
3028.000000	0.016627
3027.000000	0.016571
3026.000000	0.016528
3025.000000	0.016498
3024.000000	0.016472
3023.000000	0.016435
3022.000000	0.016382
3021.000000	0.016320
3020.000000	0.016263
3019.000000	0.016217
3018.000000	0.016185
3017.000000	0.016162
3016.000000	0.016146
3015.000000	0.016135
3014.000000	0.016131
3013.000000	0.016139
3012.000000	0.016164
3011.000000	0.016202
3010.000000	0.016241
3009.000000	0.016268
3008.000000	0.016275
3007.000000	0.016260
3006.000000	0.016229
3005.000000	0.016196
3004.000000	0.016173
3003.000000	0.016165
3002.000000	0.016169
3001.000000	0.016176
3000.000000	0.016181
2999.000000	0.016179
2998.000000	0.016171
2997.000000	0.016161
2996.000000	0.016162
2995.000000	0.016183
2994.000000	0.016223
2993.000000	0.016275
2992.000000	0.016329
2991.000000	0.016381
2990.000000	0.016433
2989.000000	0.016491
2988.000000	0.016560
2987.000000	0.016642
2986.000000	0.016730
2985.000000	0.016818
2984.000000	0.016910
2983.000000	0.017013
2982.000000	0.017133
2981.000000	0.017268
2980.000000	0.017411
2979.000000	0.017551
2978.000000	0.017680
2977.000000	0.017801
2976.000000	0.017930
2975.000000	0.018078
2974.000000	0.018239
2973.000000	0.018399
2972.000000	0.018554
2971.000000	0.018714
2970.000000	0.018893
2969.000000	0.019096
2968.000000	0.019324
2967.000000	0.019579
2966.000000	0.019856
2965.000000	0.020142
2964.000000	0.020418
2963.000000	0.020676
2962.000000	0.020920
2961.000000	0.021161
2960.000000	0.021402
2959.000000	0.021634
2958.000000	0.021839
2957.000000	0.022001
2956.000000	0.022118
2955.000000	0.022194
2954.000000	0.022239
2953.000000	0.022259
2952.000000	0.022262
2951.000000	0.022271
2950.000000	0.022308
2949.000000	0.022386
2948.000000	0.022506
2947.000000	0.022663
2946.000000	0.022857
2945.000000	0.023085
2944.000000	0.023349
2943.000000	0.023650
2942.000000	0.023999
2941.000000	0.024404
2940.000000	0.024869
2939.000000	0.025380
2938.000000	0.025923
2937.000000	0.026493
2936.000000	0.027094
2935.000000	0.027727
2934.000000	0.028378
2933.000000	0.029029
2932.000000	0.029665
2931.000000	0.030277
2930.000000	0.030859
2929.000000	0.031403
2928.000000	0.031903
2927.000000	0.032351
2926.000000	0.032729
2925.000000	0.033007
2924.000000	0.033161
2923.000000	0.033179
2922.000000	0.033060
2921.000000	0.032810
2920.000000	0.032441
2919.000000	0.031967
2918.000000	0.031401
2917.000000	0.030758
2916.000000	0.030055
2915.000000	0.029316
2914.000000	0.028568
2913.000000	0.027835
2912.000000	0.027140
2911.000000	0.026496
2910.000000	0.025904
2909.000000	0.025360
2908.000000	0.024859
2907.000000	0.024408
2906.000000	0.024011
2905.000000	0.023662
2904.000000	0.023346
2903.000000	0.023053
2902.000000	0.022775
2901.000000	0.022511
2900.000000	0.022257
2899.000000	0.022013
2898.000000	0.021781
2897.000000	0.021562
2896.000000	0.021346
2895.000000	0.021126
2894.000000	0.020896
2893.000000	0.020666
2892.000000	0.020451
2891.000000	0.020269
2890.000000	0.020122
2889.000000	0.019996
2888.000000	0.019869
2887.000000	0.019731
2886.000000	0.019592
2885.000000	0.019471
2884.000000	0.019375
2883.000000	0.019297
2882.000000	0.019231
2881.000000	0.019182
2880.000000	0.019167
2879.000000	0.019189
2878.000000	0.019241
2877.000000	0.019315
2876.000000	0.019404
2875.000000	0.019497
2874.000000	0.019579
2873.000000	0.019632
2872.000000	0.019652
2871.000000	0.019653
2870.000000	0.019654
2869.000000	0.019665
2868.000000	0.019687
2867.000000	0.019727
2866.000000	0.019803
2865.000000	0.019941
2864.000000	0.020155
2863.000000	0.020447
2862.000000	0.020814
2861.000000	0.021258
2860.000000	0.021770
2859.000000	0.022326
2858.000000	0.022890
2857.000000	0.023429
2856.000000	0.023912
2855.000000	0.024304
2854.000000	0.024556
2853.000000	0.024629
2852.000000	0.024502
2851.000000	0.024181
2850.000000	0.023689
2849.000000	0.023056
2848.000000	0.022322
2847.000000	0.021529
2846.000000	0.020723
2845.000000	0.019945
2844.000000	0.019231
2843.000000	0.018601
2842.000000	0.018060
2841.000000	0.017595
2840.000000	0.017192
2839.000000	0.016842
2838.000000	0.016540
2837.000000	0.016284
2836.000000	0.016071
2835.000000	0.015892
2834.000000	0.015737
2833.000000	0.015598
2832.000000	0.015468
2831.000000	0.015343
2830.000000	0.015222
2829.000000	0.015104
2828.000000	0.014993
2827.000000	0.014890
2826.000000	0.014793
2825.000000	0.014700
2824.000000	0.014610
2823.000000	0.014523
2822.000000	0.014442
2821.000000	0.014368
2820.000000	0.014302
2819.000000	0.014240
2818.000000	0.014178
2817.000000	0.014117
2816.000000	0.014058
2815.000000	0.013997
2814.000000	0.013932
2813.000000	0.013866
2812.000000	0.013805
2811.000000	0.013754
2810.000000	0.013708
2809.000000	0.013661
2808.000000	0.013610
2807.000000	0.013558
2806.000000	0.013509
2805.000000	0.013463
2804.000000	0.013419
2803.000000	0.013374
2802.000000	0.013329
2801.000000	0.013290
2800.000000	0.013259
2799.000000	0.013237
2798.000000	0.013218
2797.000000	0.013195
2796.000000	0.013163
2795.000000	0.013122
2794.000000	0.013080
2793.000000	0.013044
2792.000000	0.013014
2791.000000	0.012979
2790.000000	0.012934
2789.000000	0.012886
2788.000000	0.012845
2787.000000	0.012814
2786.000000	0.012788
2785.000000	0.012762
2784.000000	0.012731
2783.000000	0.012688
2782.000000	0.012630
2781.000000	0.012562
2780.000000	0.012503
2779.000000	0.012468
2778.000000	0.012458
2777.000000	0.012462
2776.000000	0.012463
2775.000000	0.012452
2774.000000	0.012425
2773.000000	0.012389
2772.000000	0.012353
2771.000000	0.012322
2770.000000	0.012296
2769.000000	0.012268
2768.000000	0.012233
2767.000000	0.012189
2766.000000	0.012140
2765.000000	0.012095
2764.000000	0.012059
2763.000000	0.012029
2762.000000	0.011992
2761.000000	0.011944
2760.000000	0.011895
2759.000000	0.011864
2758.000000	0.011857
2757.000000	0.011862
2756.000000	0.011863
2755.000000	0.011852
2754.000000	0.011836
2753.000000	0.011822
2752.000000	0.011806
2751.000000	0.011785
2750.000000	0.011761
2749.000000	0.011745
2748.000000	0.011737
2747.000000	0.011727
2746.000000	0.011707
2745.000000	0.011678
2744.000000	0.011651
2743.000000	0.011632
2742.000000	0.011620
2741.000000	0.011613
2740.000000	0.011606
2739.000000	0.011591
2738.000000	0.011559
2737.000000	0.011513
2736.000000	0.011468
2735.000000	0.011432
2734.000000	0.011407
2733.000000	0.011392
2732.000000	0.011389
2731.000000	0.011397
2730.000000	0.011402
2729.000000	0.011385
2728.000000	0.011344
2727.000000	0.011292
2726.000000	0.011246
2725.000000	0.011217
2724.000000	0.011203
2723.000000	0.011195
2722.000000	0.011181
2721.000000	0.011155
2720.000000	0.011121
2719.000000	0.011085
2718.000000	0.011056
2717.000000	0.011037
2716.000000	0.011029
2715.000000	0.011029
2714.000000	0.011031
2713.000000	0.011024
2712.000000	0.011004
2711.000000	0.010975
2710.000000	0.010946
2709.000000	0.010926
2708.000000	0.010913
2707.000000	0.010897
2706.000000	0.010873
2705.000000	0.010841
2704.000000	0.010810
2703.000000	0.010792
2702.000000	0.010790
2701.000000	0.010798
2700.000000	0.010803
2699.000000	0.010792
2698.000000	0.010764
2697.000000	0.010730
2696.000000	0.010703
2695.000000	0.010686
2694.000000	0.010679
2693.000000	0.010676
2692.000000	0.010676
2691.000000	0.010675
2690.000000	0.010668
2689.000000	0.010659
2688.000000	0.010654
2687.000000	0.010659
2686.000000	0.010668
2685.000000	0.010673
2684.000000	0.010669
2683.000000	0.010658
2682.000000	0.010649
2681.000000	0.010643
2680.000000	0.010638
2679.000000	0.010628
2678.000000	0.010606
2677.000000	0.010574
2676.000000	0.010544
2675.000000	0.010532
2674.000000	0.010541
2673.000000	0.010562
2672.000000	0.010578
2671.000000	0.010578
2670.000000	0.010565
2669.000000	0.010546
2668.000000	0.010524
2667.000000	0.010501
2666.000000	0.010475
2665.000000	0.010449
2664.000000	0.010423
2663.000000	0.010402
2662.000000	0.010392
2661.000000	0.010393
2660.000000	0.010395
2659.000000	0.010383
2658.000000	0.010351
2657.000000	0.010307
2656.000000	0.010265
2655.000000	0.010234
2654.000000	0.010207
2653.000000	0.010174
2652.000000	0.010135
2651.000000	0.010101
2650.000000	0.010080
2649.000000	0.010067
2648.000000	0.010049
2647.000000	0.010023
2646.000000	0.009998
2645.000000	0.009983
2644.000000	0.009974
2643.000000	0.009952
2642.000000	0.009912
2641.000000	0.009861
2640.000000	0.009809
2639.000000	0.009760
2638.000000	0.009715
2637.000000	0.009683
2636.000000	0.009665
2635.000000	0.009651
2634.000000	0.009625
2633.000000	0.009587
2632.000000	0.009547
2631.000000	0.009515
2630.000000	0.009493
2629.000000	0.009476
2628.000000	0.009456
2627.000000	0.009425
2626.000000	0.009379
2625.000000	0.009325
2624.000000	0.009277
2623.000000	0.009246
2622.000000	0.009234
2621.000000	0.009234
2620.000000	0.009230
2619.000000	0.009207
2618.000000	0.009157
2617.000000	0.009094
2616.000000	0.009040
2615.000000	0.009011
2614.000000	0.009002
2613.000000	0.008994
2612.000000	0.008974
2611.000000	0.008941
2610.000000	0.008908
2609.000000	0.008887
2608.000000	0.008874
2607.000000	0.008862
2606.000000	0.008844
2605.000000	0.008828
2604.000000	0.008819
2603.000000	0.008816
2602.000000	0.008813
2601.000000	0.008809
2600.000000	0.008802
2599.000000	0.008784
2598.000000	0.008754
2597.000000	0.008725
2596.000000	0.008713
2595.000000	0.008721
2594.000000	0.008734
2593.000000	0.008731
2592.000000	0.008702
2591.000000	0.008652
2590.000000	0.008602
2589.000000	0.008570
2588.000000	0.008563
2587.000000	0.008568
2586.000000	0.008569
2585.000000	0.008566
2584.000000	0.008557
2583.000000	0.008528
2582.000000	0.008468
2581.000000	0.008389
2580.000000	0.008330
2579.000000	0.008314
2578.000000	0.008329
2577.000000	0.008345
2576.000000	0.008341
2575.000000	0.008319
2574.000000	0.008290
2573.000000	0.008256
2572.000000	0.008217
2571.000000	0.008183
2570.000000	0.008173
2569.000000	0.008197
2568.000000	0.008232
2567.000000	0.008243
2566.000000	0.008214
2565.000000	0.008166
2564.000000	0.008133
2563.000000	0.008132
2562.000000	0.008153
2561.000000	0.008182
2560.000000	0.008202
2559.000000	0.008205
2558.000000	0.008186
2557.000000	0.008153
2556.000000	0.008116
2555.000000	0.008078
2554.000000	0.008038
2553.000000	0.007995
2552.000000	0.007958
2551.000000	0.007938
2550.000000	0.007944
2549.000000	0.007974
2548.000000	0.008012
2547.000000	0.008036
2546.000000	0.008032
2545.000000	0.008013
2544.000000	0.007999
2543.000000	0.008001
2542.000000	0.008014
2541.000000	0.008030
2540.000000	0.008044
2539.000000	0.008047
2538.000000	0.008031
2537.000000	0.008000
2536.000000	0.007970
2535.000000	0.007955
2534.000000	0.007961
2533.000000	0.007985
2532.000000	0.008015
2531.000000	0.008033
2530.000000	0.008025
2529.000000	0.007996
2528.000000	0.007967
2527.000000	0.007966
2526.000000	0.007996
2525.000000	0.008035
2524.000000	0.008049
2523.000000	0.008022
2522.000000	0.007971
2521.000000	0.007924
2520.000000	0.007898
2519.000000	0.007882
2518.000000	0.007859
2517.000000	0.007830
2516.000000	0.007805
2515.000000	0.007793
2514.000000	0.007789
2513.000000	0.007782
2512.000000	0.007767
2511.000000	0.007744
2510.000000	0.007719
2509.000000	0.007695
2508.000000	0.007674
2507.000000	0.007664
2506.000000	0.007681
2505.000000	0.007723
2504.000000	0.007771
2503.000000	0.007799
2502.000000	0.007806
2501.000000	0.007810
2500.000000	0.007825
2499.000000	0.007844
2498.000000	0.007853
2497.000000	0.007851
2496.000000	0.007843
2495.000000	0.007828
2494.000000	0.007801
2493.000000	0.007762
2492.000000	0.007721
2491.000000	0.007682
2490.000000	0.007642
2489.000000	0.007600
2488.000000	0.007563
2487.000000	0.007539
2486.000000	0.007533
2485.000000	0.007537
2484.000000	0.007534
2483.000000	0.007510
2482.000000	0.007465
2481.000000	0.007421
2480.000000	0.007407
2479.000000	0.007433
2478.000000	0.007489
2477.000000	0.007545
2476.000000	0.007569
2475.000000	0.007548
2474.000000	0.007500
2473.000000	0.007461
2472.000000	0.007455
2471.000000	0.007481
2470.000000	0.007512
2469.000000	0.007524
2468.000000	0.007508
2467.000000	0.007482
2466.000000	0.007465
2465.000000	0.007461
2464.000000	0.007456
2463.000000	0.007439
2462.000000	0.007420
2461.000000	0.007416
2460.000000	0.007427
2459.000000	0.007438
2458.000000	0.007442
2457.000000	0.007447
2456.000000	0.007448
2455.000000	0.007432
2454.000000	0.007400
2453.000000	0.007377
2452.000000	0.007385
2451.000000	0.007417
2450.000000	0.007450
2449.000000	0.007466
2448.000000	0.007457
2447.000000	0.007434
2446.000000	0.007413
2445.000000	0.007412
2444.000000	0.007432
2443.000000	0.007458
2442.000000	0.007475
2441.000000	0.007477
2440.000000	0.007460
2439.000000	0.007424
2438.000000	0.007385
2437.000000	0.007363
2436.000000	0.007363
2435.000000	0.007366
2434.000000	0.007353
2433.000000	0.007323
2432.000000	0.007282
2431.000000	0.007227
2430.000000	0.007162
2429.000000	0.007118
2428.000000	0.007123
2427.000000	0.007175
2426.000000	0.007239
2425.000000	0.007272
2424.000000	0.007262
2423.000000	0.007227
2422.000000	0.007204
2421.000000	0.007217
2420.000000	0.007257
2419.000000	0.007294
2418.000000	0.007303
2417.000000	0.007287
2416.000000	0.007260
2415.000000	0.007238
2414.000000	0.007236
2413.000000	0.007263
2412.000000	0.007302
2411.000000	0.007317
2410.000000	0.007289
2409.000000	0.007238
2408.000000	0.007197
2407.000000	0.007179
2406.000000	0.007180
2405.000000	0.007191
2404.000000	0.007211
2403.000000	0.007231
2402.000000	0.007244
2401.000000	0.007247
2400.000000	0.007243
2399.000000	0.007235
2398.000000	0.007229
2397.000000	0.007226
2396.000000	0.007222
2395.000000	0.007206
2394.000000	0.007177
2393.000000	0.007151
2392.000000	0.007149
2391.000000	0.007179
2390.000000	0.007228
2389.000000	0.007275
2388.000000	0.007300
2387.000000	0.007298
2386.000000	0.007280
2385.000000	0.007270
2384.000000	0.007277
2383.000000	0.007290
2382.000000	0.007288
2381.000000	0.007271
2380.000000	0.007252
2379.000000	0.007251
2378.000000	0.007276
2377.000000	0.007319
2376.000000	0.007358
2375.000000	0.007377
2374.000000	0.007376
2373.000000	0.007363
2372.000000	0.007340
2371.000000	0.007305
2370.000000	0.007267
2369.000000	0.007247
2368.000000	0.007252
2367.000000	0.007269
2366.000000	0.007288
2365.000000	0.007312
2364.000000	0.007340
2363.000000	0.007372
2362.000000	0.007413
2361.000000	0.007465
2360.000000	0.007520
2359.000000	0.007556
2358.000000	0.007553
2357.000000	0.007519
2356.000000	0.007476
2355.000000	0.007455
2354.000000	0.007455
2353.000000	0.007447
2352.000000	0.007416
2351.000000	0.007388
2350.000000	0.007401
2349.000000	0.007465
2348.000000	0.007557
2347.000000	0.007624
2346.000000	0.007618
2345.000000	0.007557
2344.000000	0.007506
2343.000000	0.007504
2342.000000	0.007529
2341.000000	0.007544
2340.000000	0.007537
2339.000000	0.007516
2338.000000	0.007496
2337.000000	0.007491
2336.000000	0.007508
2335.000000	0.007530
2334.000000	0.007536
2333.000000	0.007507
2332.000000	0.007456
2331.000000	0.007396
2330.000000	0.007356
2329.000000	0.007345
2328.000000	0.007386
2327.000000	0.007480
2326.000000	0.007613
2325.000000	0.007742
2324.000000	0.007815
2323.000000	0.007799
2322.000000	0.007723
2321.000000	0.007648
2320.000000	0.007613
2319.000000	0.007601
2318.000000	0.007584
2317.000000	0.007549
2316.000000	0.007504
2315.000000	0.007446
2314.000000	0.007380
2313.000000	0.007314
2312.000000	0.007259
2311.000000	0.007204
2310.000000	0.007145
2309.000000	0.007096
2308.000000	0.007076
2307.000000	0.007086
2306.000000	0.007112
2305.000000	0.007142
2304.000000	0.007162
2303.000000	0.007157
2302.000000	0.007127
2301.000000	0.007089
2300.000000	0.007069
2299.000000	0.007065
2298.000000	0.007068
2297.000000	0.007068
2296.000000	0.007067
2295.000000	0.007071
2294.000000	0.007090
2293.000000	0.007124
2292.000000	0.007157
2291.000000	0.007160
2290.000000	0.007126
2289.000000	0.007077
2288.000000	0.007037
2287.000000	0.007011
2286.000000	0.006996
2285.000000	0.007001
2284.000000	0.007024
2283.000000	0.007048
2282.000000	0.007049
2281.000000	0.007013
2280.000000	0.006935
2279.000000	0.006828
2278.000000	0.006737
2277.000000	0.006715
2276.000000	0.006769
2275.000000	0.006848
2274.000000	0.006907
2273.000000	0.006946
2272.000000	0.006972
2271.000000	0.006962
2270.000000	0.006901
2269.000000	0.006821
2268.000000	0.006773
2267.000000	0.006767
2266.000000	0.006783
2265.000000	0.006810
2264.000000	0.006849
2263.000000	0.006887
2262.000000	0.006904
2261.000000	0.006898
2260.000000	0.006880
2259.000000	0.006862
2258.000000	0.006846
2257.000000	0.006825
2256.000000	0.006771
2255.000000	0.006660
2254.000000	0.006520
2253.000000	0.006428
2252.000000	0.006421
2251.000000	0.006463
2250.000000	0.006499
2249.000000	0.006523
2248.000000	0.006555
2247.000000	0.006592
2246.000000	0.006616
2245.000000	0.006622
2244.000000	0.006604
2243.000000	0.006555
2242.000000	0.006493
2241.000000	0.006469
2240.000000	0.006502
2239.000000	0.006548
2238.000000	0.006543
2237.000000	0.006470
2236.000000	0.006361
2235.000000	0.006264
2234.000000	0.006238
2233.000000	0.006337
2232.000000	0.006535
2231.000000	0.006718
2230.000000	0.006767
2229.000000	0.006666
2228.000000	0.006490
2227.000000	0.006339
2226.000000	0.006283
2225.000000	0.006335
2224.000000	0.006426
2223.000000	0.006448
2222.000000	0.006364
2221.000000	0.006241
2220.000000	0.006173
2219.000000	0.006180
2218.000000	0.006235
2217.000000	0.006320
2216.000000	0.006416
2215.000000	0.006479
2214.000000	0.006486
2213.000000	0.006463
2212.000000	0.006430
2211.000000	0.006353
2210.000000	0.006203
2209.000000	0.006029
2208.000000	0.005930
2207.000000	0.005952
2206.000000	0.006064
2205.000000	0.006191
2204.000000	0.006269
2203.000000	0.006284
2202.000000	0.006288
2201.000000	0.006336
2200.000000	0.006397
2199.000000	0.006381
2198.000000	0.006272
2197.000000	0.006172
2196.000000	0.006170
2195.000000	0.006234
2194.000000	0.006277
2193.000000	0.006263
2192.000000	0.006212
2191.000000	0.006141
2190.000000	0.006073
2189.000000	0.006045
2188.000000	0.006057
2187.000000	0.006068
2186.000000	0.006058
2185.000000	0.006056
2184.000000	0.006059
2183.000000	0.006009
2182.000000	0.005896
2181.000000	0.005792
2180.000000	0.005737
2179.000000	0.005673
2178.000000	0.005564
2177.000000	0.005477
2176.000000	0.005473
2175.000000	0.005503
2174.000000	0.005495
2173.000000	0.005474
2172.000000	0.005506
2171.000000	0.005597
2170.000000	0.005727
2169.000000	0.005899
2168.000000	0.006096
2167.000000	0.006237
2166.000000	0.006265
2165.000000	0.006222
2164.000000	0.006168
2163.000000	0.006063
2162.000000	0.005818
2161.000000	0.005417
2160.000000	0.004922
2159.000000	0.004421
2158.000000	0.004050
2157.000000	0.003957
2156.000000	0.004142
2155.000000	0.004462
2154.000000	0.004799
2153.000000	0.005141
2152.000000	0.005478
2151.000000	0.005729
2150.000000	0.005826
2149.000000	0.005807
2148.000000	0.005778
2147.000000	0.005812
2146.000000	0.005905
2145.000000	0.005991
2144.000000	0.005966
2143.000000	0.005790
2142.000000	0.005570
2141.000000	0.005484
2140.000000	0.005584
2139.000000	0.005743
2138.000000	0.005809
2137.000000	0.005741
2136.000000	0.005585
2135.000000	0.005408
2134.000000	0.005299
2133.000000	0.005337
2132.000000	0.005516
2131.000000	0.005734
2130.000000	0.005904
2129.000000	0.006011
2128.000000	0.006063
2127.000000	0.006051
2126.000000	0.005994
2125.000000	0.005961
2124.000000	0.005990
2123.000000	0.006041
2122.000000	0.006059
2121.000000	0.006056
2120.000000	0.006087
2119.000000	0.006169
2118.000000	0.006263
2117.000000	0.006322
2116.000000	0.006331
2115.000000	0.006310
2114.000000	0.006308
2113.000000	0.006365
2112.000000	0.006455
2111.000000	0.006510
2110.000000	0.006507
2109.000000	0.006499
2108.000000	0.006525
2107.000000	0.006550
2106.000000	0.006521
2105.000000	0.006451
2104.000000	0.006398
2103.000000	0.006390
2102.000000	0.006414
2101.000000	0.006441
2100.000000	0.006440
2099.000000	0.006391
2098.000000	0.006312
2097.000000	0.006251
2096.000000	0.006221
2095.000000	0.006177
2094.000000	0.006088
2093.000000	0.005993
2092.000000	0.005948
2091.000000	0.005961
2090.000000	0.006009
2089.000000	0.006079
2088.000000	0.006163
2087.000000	0.006234
2086.000000	0.006280
2085.000000	0.006317
2084.000000	0.006354
2083.000000	0.006360
2082.000000	0.006308
2081.000000	0.006221
2080.000000	0.006149
2079.000000	0.006121
2078.000000	0.006144
2077.000000	0.006208
2076.000000	0.006263
2075.000000	0.006233
2074.000000	0.006102
2073.000000	0.005954
2072.000000	0.005889
2071.000000	0.005927
2070.000000	0.005991
2069.000000	0.005992
2068.000000	0.005894
2067.000000	0.005746
2066.000000	0.005660
2065.000000	0.005715
2064.000000	0.005866
2063.000000	0.005983
2062.000000	0.005993
2061.000000	0.005928
2060.000000	0.005852
2059.000000	0.005785
2058.000000	0.005730
2057.000000	0.005694
2056.000000	0.005657
2055.000000	0.005605
2054.000000	0.005585
2053.000000	0.005669
2052.000000	0.005824
2051.000000	0.005919
2050.000000	0.005882
2049.000000	0.005777
2048.000000	0.005692
2047.000000	0.005634
2046.000000	0.005606
2045.000000	0.005653
2044.000000	0.005757
2043.000000	0.005792
2042.000000	0.005689
2041.000000	0.005542
2040.000000	0.005464
2039.000000	0.005442
2038.000000	0.005411
2037.000000	0.005380
2036.000000	0.005381
2035.000000	0.005395
2034.000000	0.005407
2033.000000	0.005424
2032.000000	0.005372
2031.000000	0.005138
2030.000000	0.004780
2029.000000	0.004547
2028.000000	0.004586
2027.000000	0.004778
2026.000000	0.004955
2025.000000	0.005094
2024.000000	0.005191
2023.000000	0.005132
2022.000000	0.004864
2021.000000	0.004552
2020.000000	0.004420
2019.000000	0.004510
2018.000000	0.004713
2017.000000	0.004913
2016.000000	0.005011
2015.000000	0.004943
2014.000000	0.004770
2013.000000	0.004651
2012.000000	0.004661
2011.000000	0.004713
2010.000000	0.004726
2009.000000	0.004738
2008.000000	0.004780
2007.000000	0.004790
2006.000000	0.004750
2005.000000	0.004751
2004.000000	0.004828
2003.000000	0.004879
2002.000000	0.004827
2001.000000	0.004735
2000.000000	0.004668
1999.000000	0.004603
1998.000000	0.004538
1997.000000	0.004570
1996.000000	0.004756
1995.000000	0.005002
1994.000000	0.005178
1993.000000	0.005266
1992.000000	0.005298
1991.000000	0.005244
1990.000000	0.005076
1989.000000	0.004875
1988.000000	0.004765
1987.000000	0.004789
1986.000000	0.004907
1985.000000	0.005061
1984.000000	0.005175
1983.000000	0.005195
1982.000000	0.005179
1981.000000	0.005258
1980.000000	0.005437
1979.000000	0.005526
1978.000000	0.005370
1977.000000	0.005062
1976.000000	0.004794
1975.000000	0.004615
1974.000000	0.004478
1973.000000	0.004387
1972.000000	0.004365
1971.000000	0.004385
1970.000000	0.004436
1969.000000	0.004549
1968.000000	0.004695
1967.000000	0.004776
1966.000000	0.004758
1965.000000	0.004720
1964.000000	0.004703
1963.000000	0.004662
1962.000000	0.004599
1961.000000	0.004609
1960.000000	0.004724
1959.000000	0.004835
1958.000000	0.004850
1957.000000	0.004817
1956.000000	0.004812
1955.000000	0.004828
1954.000000	0.004835
1953.000000	0.004856
1952.000000	0.004911
1951.000000	0.004956
1950.000000	0.004949
1949.000000	0.004930
1948.000000	0.004948
1947.000000	0.004989
1946.000000	0.005002
1945.000000	0.004959
1944.000000	0.004858
1943.000000	0.004727
1942.000000	0.004647
1941.000000	0.004692
1940.000000	0.004825
1939.000000	0.004935
1938.000000	0.004969
1937.000000	0.004956
1936.000000	0.004923
1935.000000	0.004855
1934.000000	0.004775
1933.000000	0.004763
1932.000000	0.004852
1931.000000	0.004965
1930.000000	0.005021
1929.000000	0.005026
1928.000000	0.005010
1927.000000	0.004981
1926.000000	0.004943
1925.000000	0.004941
1924.000000	0.004986
1923.000000	0.005011
1922.000000	0.004968
1921.000000	0.004905
1920.000000	0.004888
1919.000000	0.004909
1918.000000	0.004913
1917.000000	0.004900
1916.000000	0.004898
1915.000000	0.004907
1914.000000	0.004906
1913.000000	0.004894
1912.000000	0.004883
1911.000000	0.004869
1910.000000	0.004844
1909.000000	0.004816
1908.000000	0.004782
1907.000000	0.004738
1906.000000	0.004689
1905.000000	0.004670
1904.000000	0.004700
1903.000000	0.004762
1902.000000	0.004843
1901.000000	0.004942
1900.000000	0.005031
1899.000000	0.005065
1898.000000	0.005044
1897.000000	0.005017
1896.000000	0.005011
1895.000000	0.004992
1894.000000	0.004928
1893.000000	0.004837
1892.000000	0.004750
1891.000000	0.004687
1890.000000	0.004677
1889.000000	0.004746
1888.000000	0.004857
1887.000000	0.004937
1886.000000	0.004966
1885.000000	0.004981
1884.000000	0.004991
1883.000000	0.004956
1882.000000	0.004863
1881.000000	0.004769
1880.000000	0.004730
1879.000000	0.004755
1878.000000	0.004820
1877.000000	0.004907
1876.000000	0.004984
1875.000000	0.005006
1874.000000	0.004945
1873.000000	0.004829
1872.000000	0.004705
1871.000000	0.004598
1870.000000	0.004523
1869.000000	0.004514
1868.000000	0.004573
1867.000000	0.004657
1866.000000	0.004734
1865.000000	0.004804
1864.000000	0.004855
1863.000000	0.004868
1862.000000	0.004863
1861.000000	0.004888
1860.000000	0.004937
1859.000000	0.004957
1858.000000	0.004931
1857.000000	0.004896
1856.000000	0.004879
1855.000000	0.004862
1854.000000	0.004832
1853.000000	0.004811
1852.000000	0.004793
1851.000000	0.004772
1850.000000	0.004753
1849.000000	0.004729
1848.000000	0.004677
1847.000000	0.004598
1846.000000	0.004551
1845.000000	0.004578
1844.000000	0.004620
1843.000000	0.004580
1842.000000	0.004494
1841.000000	0.004487
1840.000000	0.004589
1839.000000	0.004706
1838.000000	0.004751
1837.000000	0.004754
1836.000000	0.004768
1835.000000	0.004767
1834.000000	0.004708
1833.000000	0.004612
1832.000000	0.004527
1831.000000	0.004482
1830.000000	0.004466
1829.000000	0.004468
1828.000000	0.004485
1827.000000	0.004522
1826.000000	0.004570
1825.000000	0.004598
1824.000000	0.004590
1823.000000	0.004567
1822.000000	0.004574
1821.000000	0.004626
1820.000000	0.004681
1819.000000	0.004694
1818.000000	0.004671
1817.000000	0.004665
1816.000000	0.004692
1815.000000	0.004710
1814.000000	0.004695
1813.000000	0.004655
1812.000000	0.004609
1811.000000	0.004559
1810.000000	0.004517
1809.000000	0.004521
1808.000000	0.004568
1807.000000	0.004607
1806.000000	0.004616
1805.000000	0.004621
1804.000000	0.004637
1803.000000	0.004629
1802.000000	0.004585
1801.000000	0.004529
1800.000000	0.004508
1799.000000	0.004526
1798.000000	0.004561
1797.000000	0.004590
1796.000000	0.004594
1795.000000	0.004571
1794.000000	0.004560
1793.000000	0.004588
1792.000000	0.004634
1791.000000	0.004649
1790.000000	0.004636
1789.000000	0.004642
1788.000000	0.004680
1787.000000	0.004712
1786.000000	0.004719
1785.000000	0.004714
1784.000000	0.004686
1783.000000	0.004616
1782.000000	0.004565
1781.000000	0.004577
1780.000000	0.004629
1779.000000	0.004654
1778.000000	0.004633
1777.000000	0.004593
1776.000000	0.004530
1775.000000	0.004456
1774.000000	0.004423
1773.000000	0.004450
1772.000000	0.004478
1771.000000	0.004464
1770.000000	0.004472
1769.000000	0.004611
1768.000000	0.004848
1767.000000	0.005012
1766.000000	0.005041
1765.000000	0.005049
1764.000000	0.005164
1763.000000	0.005376
1762.000000	0.005609
1761.000000	0.005823
1760.000000	0.006052
1759.000000	0.006349
1758.000000	0.006780
1757.000000	0.007343
1756.000000	0.007900
1755.000000	0.008351
1754.000000	0.008778
1753.000000	0.009325
1752.000000	0.009978
1751.000000	0.010563
1750.000000	0.010971
1749.000000	0.011313
1748.000000	0.011669
1747.000000	0.011968
1746.000000	0.012147
1745.000000	0.012199
1744.000000	0.012124
1743.000000	0.011909
1742.000000	0.011600
1741.000000	0.011279
1740.000000	0.010933
1739.000000	0.010441
1738.000000	0.009836
1737.000000	0.009337
1736.000000	0.009070
1735.000000	0.008884
1734.000000	0.008526
1733.000000	0.008021
1732.000000	0.007574
1731.000000	0.007301
1730.000000	0.007190
1729.000000	0.007150
1728.000000	0.007087
1727.000000	0.006971
1726.000000	0.006842
1725.000000	0.006737
1724.000000	0.006667
1723.000000	0.006563
1722.000000	0.006379
1721.000000	0.006191
1720.000000	0.006098
1719.000000	0.006093
1718.000000	0.006084
1717.000000	0.006073
1716.000000	0.006119
1715.000000	0.006223
1714.000000	0.006386
1713.000000	0.006622
1712.000000	0.006908
1711.000000	0.007184
1710.000000	0.007420
1709.000000	0.007630
1708.000000	0.007849
1707.000000	0.008140
1706.000000	0.008519
1705.000000	0.008908
1704.000000	0.009213
1703.000000	0.009530
1702.000000	0.010114
1701.000000	0.011046
1700.000000	0.011910
1699.000000	0.012271
1698.000000	0.012488
1697.000000	0.013162
1696.000000	0.014321
1695.000000	0.015356
1694.000000	0.015909
1693.000000	0.016279
1692.000000	0.016789
1691.000000	0.017428
1690.000000	0.018050
1689.000000	0.018587
1688.000000	0.019050
1687.000000	0.019531
1686.000000	0.020151
1685.000000	0.021014
1684.000000	0.021994
1683.000000	0.022755
1682.000000	0.023337
1681.000000	0.024038
1680.000000	0.024885
1679.000000	0.025685
1678.000000	0.026410
1677.000000	0.027263
1676.000000	0.028357
1675.000000	0.029445
1674.000000	0.030244
1673.000000	0.030851
1672.000000	0.031568
1671.000000	0.032517
1670.000000	0.033650
1669.000000	0.034865
1668.000000	0.036002
1667.000000	0.036952
1666.000000	0.037780
1665.000000	0.038660
1664.000000	0.039700
1663.000000	0.040795
1662.000000	0.041791
1661.000000	0.042670
1660.000000	0.043499
1659.000000	0.044277
1658.000000	0.044921
1657.000000	0.045420
1656.000000	0.045921
1655.000000	0.046634
1654.000000	0.047656
1653.000000	0.048835
1652.000000	0.049602
1651.000000	0.049739
1650.000000	0.049717
1649.000000	0.049932
1648.000000	0.050448
1647.000000	0.051128
1646.000000	0.051792
1645.000000	0.052356
1644.000000	0.052827
1643.000000	0.053232
1642.000000	0.053606
1641.000000	0.053937
1640.000000	0.054176
1639.000000	0.054312
1638.000000	0.054424
1637.000000	0.054643
1636.000000	0.055001
1635.000000	0.055367
1634.000000	0.055563
1633.000000	0.055650
1632.000000	0.055748
1631.000000	0.055822
1630.000000	0.055776
1629.000000	0.055585
1628.000000	0.055281
1627.000000	0.054882
1626.000000	0.054409
1625.000000	0.053869
1624.000000	0.053236
1623.000000	0.052471
1622.000000	0.051633
1621.000000	0.050826
1620.000000	0.050101
1619.000000	0.049422
1618.000000	0.048632
1617.000000	0.047582
1616.000000	0.046352
1615.000000	0.045169
1614.000000	0.044147
1613.000000	0.043250
1612.000000	0.042360
1611.000000	0.041391
1610.000000	0.040384
1609.000000	0.039425
1608.000000	0.038534
1607.000000	0.037687
1606.000000	0.036884
1605.000000	0.036113
1604.000000	0.035355
1603.000000	0.034632
1602.000000	0.033979
1601.000000	0.033404
1600.000000	0.032886
1599.000000	0.032416
1598.000000	0.031991
1597.000000	0.031598
1596.000000	0.031228
1595.000000	0.030899
1594.000000	0.030640
1593.000000	0.030449
1592.000000	0.030304
1591.000000	0.030198
1590.000000	0.030140
1589.000000	0.030126
1588.000000	0.030142
1587.000000	0.030198
1586.000000	0.030305
1585.000000	0.030451
1584.000000	0.030601
1583.000000	0.030775
1582.000000	0.030997
1581.000000	0.031216
1580.000000	0.031378
1579.000000	0.031557
1578.000000	0.031883
1577.000000	0.032387
1576.000000	0.032934
1575.000000	0.033334
1574.000000	0.033573
1573.000000	0.033798
1572.000000	0.034129
1571.000000	0.034584
1570.000000	0.035122
1569.000000	0.035683
1568.000000	0.036197
1567.000000	0.036716
1566.000000	0.037327
1565.000000	0.038001
1564.000000	0.038583
1563.000000	0.039016
1562.000000	0.039409
1561.000000	0.039885
1560.000000	0.040440
1559.000000	0.041076
1558.000000	0.041766
1557.000000	0.042344
1556.000000	0.042921
1555.000000	0.043616
1554.000000	0.044315
1553.000000	0.044851
1552.000000	0.045260
1551.000000	0.045692
1550.000000	0.046151
1549.000000	0.046558
1548.000000	0.046867
1547.000000	0.047117
1546.000000	0.047326
1545.000000	0.047449
1544.000000	0.047474
1543.000000	0.047476
1542.000000	0.047508
1541.000000	0.047606
1540.000000	0.047810
1539.000000	0.048050
1538.000000	0.048119
1537.000000	0.048034
1536.000000	0.047959
1535.000000	0.047918
1534.000000	0.047808
1533.000000	0.047582
1532.000000	0.047333
1531.000000	0.047115
1530.000000	0.046890
1529.000000	0.046629
1528.000000	0.046340
1527.000000	0.046025
1526.000000	0.045674
1525.000000	0.045281
1524.000000	0.044898
1523.000000	0.044561
1522.000000	0.044206
1521.000000	0.043788
1520.000000	0.043344
1519.000000	0.042933
1518.000000	0.042590
1517.000000	0.042285
1516.000000	0.041976
1515.000000	0.041648
1514.000000	0.041298
1513.000000	0.040879
1512.000000	0.040321
1511.000000	0.039603
1510.000000	0.038816
1509.000000	0.038048
1508.000000	0.037261
1507.000000	0.036400
1506.000000	0.035675
1505.000000	0.035143
1504.000000	0.034648
1503.000000	0.034150
1502.000000	0.033623
1501.000000	0.033022
1500.000000	0.032348
1499.000000	0.031649
1498.000000	0.030954
1497.000000	0.030274
1496.000000	0.029617
1495.000000	0.028944
1494.000000	0.028265
1493.000000	0.027649
1492.000000	0.027089
1491.000000	0.026467
1490.000000	0.025756
1489.000000	0.025149
1488.000000	0.024800
1487.000000	0.024622
1486.000000	0.024488
1485.000000	0.024389
1484.000000	0.024320
1483.000000	0.024272
1482.000000	0.024234
1481.000000	0.024236
1480.000000	0.024301
1479.000000	0.024413
1478.000000	0.024551
1477.000000	0.024716
1476.000000	0.024924
1475.000000	0.025188
1474.000000	0.025600
1473.000000	0.026251
1472.000000	0.027082
1471.000000	0.027880
1470.000000	0.028553
1469.000000	0.029164
1468.000000	0.029747
1467.000000	0.030269
1466.000000	0.030754
1465.000000	0.031258
1464.000000	0.031751
1463.000000	0.032139
1462.000000	0.032402
1461.000000	0.032617
1460.000000	0.032853
1459.000000	0.033182
1458.000000	0.033693
1457.000000	0.034420
1456.000000	0.035096
1455.000000	0.035472
1454.000000	0.035693
1453.000000	0.035932
1452.000000	0.036169
1451.000000	0.036307
1450.000000	0.036348
1449.000000	0.036365
1448.000000	0.036380
1447.000000	0.036346
1446.000000	0.036279
1445.000000	0.036200
1444.000000	0.036112
1443.000000	0.035996
1442.000000	0.035826
1441.000000	0.035602
1440.000000	0.035350
1439.000000	0.035101
1438.000000	0.034822
1437.000000	0.034455
1436.000000	0.034005
1435.000000	0.033553
1434.000000	0.033165
1433.000000	0.032861
1432.000000	0.032593
1431.000000	0.032296
1430.000000	0.031980
1429.000000	0.031716
1428.000000	0.031531
1427.000000	0.031381
1426.000000	0.031247
1425.000000	0.031117
1424.000000	0.030977
1423.000000	0.030846
1422.000000	0.030767
1421.000000	0.030776
1420.000000	0.030832
1419.000000	0.030850
1418.000000	0.030820
1417.000000	0.030823
1416.000000	0.030906
1415.000000	0.031022
1414.000000	0.031095
1413.000000	0.031118
1412.000000	0.031146
1411.000000	0.031209
1410.000000	0.031285
1409.000000	0.031362
1408.000000	0.031449
1407.000000	0.031529
1406.000000	0.031603
1405.000000	0.031691
1404.000000	0.031795
1403.000000	0.031881
1402.000000	0.031928
1401.000000	0.031949
1400.000000	0.031931
1399.000000	0.031836
1398.000000	0.031678
1397.000000	0.031538
1396.000000	0.031457
1395.000000	0.031397
1394.000000	0.031319
1393.000000	0.031229
1392.000000	0.031141
1391.000000	0.031047
1390.000000	0.030927
1389.000000	0.030781
1388.000000	0.030620
1387.000000	0.030441
1386.000000	0.030255
1385.000000	0.030096
1384.000000	0.029976
1383.000000	0.029857
1382.000000	0.029700
1381.000000	0.029522
1380.000000	0.029353
1379.000000	0.029168
1378.000000	0.028921
1377.000000	0.028618
1376.000000	0.028292
1375.000000	0.027958
1374.000000	0.027629
1373.000000	0.027327
1372.000000	0.027055
1371.000000	0.026780
1370.000000	0.026482
1369.000000	0.026161
1368.000000	0.025827
1367.000000	0.025475
1366.000000	0.025094
1365.000000	0.024689
1364.000000	0.024282
1363.000000	0.023910
1362.000000	0.023613
1361.000000	0.023410
1360.000000	0.023275
1359.000000	0.023170
1358.000000	0.023082
1357.000000	0.023029
1356.000000	0.023022
1355.000000	0.023050
1354.000000	0.023098
1353.000000	0.023174
1352.000000	0.023294
1351.000000	0.023447
1350.000000	0.023624
1349.000000	0.023824
1348.000000	0.024051
1347.000000	0.024289
1346.000000	0.024526
1345.000000	0.024763
1344.000000	0.024994
1343.000000	0.025195
1342.000000	0.025348
1341.000000	0.025473
1340.000000	0.025607
1339.000000	0.025760
1338.000000	0.025911
1337.000000	0.026031
1336.000000	0.026100
1335.000000	0.026102
1334.000000	0.026039
1333.000000	0.025932
1332.000000	0.025797
1331.000000	0.025624
1330.000000	0.025413
1329.000000	0.025188
1328.000000	0.024980
1327.000000	0.024796
1326.000000	0.024636
1325.000000	0.024505
1324.000000	0.024405
1323.000000	0.024322
1322.000000	0.024247
1321.000000	0.024184
1320.000000	0.024139
1319.000000	0.024100
1318.000000	0.024059
1317.000000	0.024025
1316.000000	0.023997
1315.000000	0.023948
1314.000000	0.023853
1313.000000	0.023719
1312.000000	0.023571
1311.000000	0.023423
1310.000000	0.023281
1309.000000	0.023151
1308.000000	0.023031
1307.000000	0.022903
1306.000000	0.022764
1305.000000	0.022627
1304.000000	0.022502
1303.000000	0.022374
1302.000000	0.022234
1301.000000	0.022100
1300.000000	0.021989
1299.000000	0.021890
1298.000000	0.021789
1297.000000	0.021697
1296.000000	0.021635
1295.000000	0.021609
1294.000000	0.021619
1293.000000	0.021675
1292.000000	0.021781
1291.000000	0.021918
1290.000000	0.022069
1289.000000	0.022240
1288.000000	0.022437
1287.000000	0.022639
1286.000000	0.022830
1285.000000	0.023016
1284.000000	0.023201
1283.000000	0.023363
1282.000000	0.023481
1281.000000	0.023565
1280.000000	0.023633
1279.000000	0.023674
1278.000000	0.023680
1277.000000	0.023671
1276.000000	0.023664
1275.000000	0.023647
1274.000000	0.023603
1273.000000	0.023556
1272.000000	0.023547
1271.000000	0.023588
1270.000000	0.023660
1269.000000	0.023751
1268.000000	0.023857
1267.000000	0.023963
1266.000000	0.024059
1265.000000	0.024156
1264.000000	0.024278
1263.000000	0.024426
1262.000000	0.024590
1261.000000	0.024771
1260.000000	0.024966
1259.000000	0.025162
1258.000000	0.025353
1257.000000	0.025555
1256.000000	0.025774
1255.000000	0.025996
1254.000000	0.026221
1253.000000	0.026474
1252.000000	0.026775
1251.000000	0.027106
1250.000000	0.027446
1249.000000	0.027793
1248.000000	0.028148
1247.000000	0.028491
1246.000000	0.028807
1245.000000	0.029104
1244.000000	0.029386
1243.000000	0.029637
1242.000000	0.029860
1241.000000	0.030085
1240.000000	0.030320
1239.000000	0.030525
1238.000000	0.030665
1237.000000	0.030751
1236.000000	0.030793
1235.000000	0.030774
1234.000000	0.030676
1233.000000	0.030522
1232.000000	0.030339
1231.000000	0.030122
1230.000000	0.029858
1229.000000	0.029555
1228.000000	0.029215
1227.000000	0.028818
1226.000000	0.028357
1225.000000	0.027855
1224.000000	0.027334
1223.000000	0.026791
1222.000000	0.026237
1221.000000	0.025706
1220.000000	0.025225
1219.000000	0.024784
1218.000000	0.024375
1217.000000	0.024020
1216.000000	0.023744
1215.000000	0.023533
1214.000000	0.023364
1213.000000	0.023237
1212.000000	0.023163
1211.000000	0.023140
1210.000000	0.023162
1209.000000	0.023231
1208.000000	0.023332
1207.000000	0.023428
1206.000000	0.023494
1205.000000	0.023540
1204.000000	0.023579
1203.000000	0.023593
1202.000000	0.023564
1201.000000	0.023497
1200.000000	0.023392
1199.000000	0.023226
1198.000000	0.022994
1197.000000	0.022727
1196.000000	0.022454
1195.000000	0.022163
1194.000000	0.021849
1193.000000	0.021547
1192.000000	0.021284
1191.000000	0.021044
1190.000000	0.020790
1189.000000	0.020527
1188.000000	0.020282
1187.000000	0.020067
1186.000000	0.019880
1185.000000	0.019726
1184.000000	0.019608
1183.000000	0.019511
1182.000000	0.019426
1181.000000	0.019373
1180.000000	0.019365
1179.000000	0.019374
1178.000000	0.019374
1177.000000	0.019386
1176.000000	0.019441
1175.000000	0.019536
1174.000000	0.019646
1173.000000	0.019763
1172.000000	0.019895
1171.000000	0.020033
1170.000000	0.020173
1169.000000	0.020327
1168.000000	0.020504
1167.000000	0.020684
1166.000000	0.020841
1165.000000	0.020982
1164.000000	0.021116
1163.000000	0.021229
1162.000000	0.021300
1161.000000	0.021333
1160.000000	0.021331
1159.000000	0.021286
1158.000000	0.021193
1157.000000	0.021071
1156.000000	0.020928
1155.000000	0.020743
1154.000000	0.020511
1153.000000	0.020260
1152.000000	0.020018
1151.000000	0.019771
1150.000000	0.019502
1149.000000	0.019226
1148.000000	0.018958
1147.000000	0.018683
1146.000000	0.018393
1145.000000	0.018118
1144.000000	0.017878
1143.000000	0.017643
1142.000000	0.017377
1141.000000	0.017091
1140.000000	0.016809
1139.000000	0.016532
1138.000000	0.016257
1137.000000	0.016000
1136.000000	0.015777
1135.000000	0.015568
1134.000000	0.015359
1133.000000	0.015177
1132.000000	0.015050
1131.000000	0.014963
1130.000000	0.014889
1129.000000	0.014838
1128.000000	0.014834
1127.000000	0.014871
1126.000000	0.014925
1125.000000	0.014995
1124.000000	0.015085
1123.000000	0.015177
1122.000000	0.015256
1121.000000	0.015327
1120.000000	0.015397
1119.000000	0.015451
1118.000000	0.015484
1117.000000	0.015518
1116.000000	0.015565
1115.000000	0.015605
1114.000000	0.015628
1113.000000	0.015666
1112.000000	0.015741
1111.000000	0.015823
1110.000000	0.015881
1109.000000	0.015925
1108.000000	0.015977
1107.000000	0.016025
1106.000000	0.016061
1105.000000	0.016116
1104.000000	0.016219
1103.000000	0.016342
1102.000000	0.016441
1101.000000	0.016513
1100.000000	0.016580
1099.000000	0.016641
1098.000000	0.016687
1097.000000	0.016738
1096.000000	0.016819
1095.000000	0.016930
1094.000000	0.017072
1093.000000	0.017264
1092.000000	0.017508
1091.000000	0.017765
1090.000000	0.018009
1089.000000	0.018264
1088.000000	0.018556
1087.000000	0.018868
1086.000000	0.019183
1085.000000	0.019517
1084.000000	0.019862
1083.000000	0.020150
1082.000000	0.020313
1081.000000	0.020355
1080.000000	0.020312
1079.000000	0.020191
1078.000000	0.019992
1077.000000	0.019741
1076.000000	0.019459
1075.000000	0.019138
1074.000000	0.018790
1073.000000	0.018474
1072.000000	0.018238
1071.000000	0.018059
1070.000000	0.017898
1069.000000	0.017761
1068.000000	0.017676
1067.000000	0.017639
1066.000000	0.017634
1065.000000	0.017660
1064.000000	0.017713
1063.000000	0.017764
1062.000000	0.017789
1061.000000	0.017795
1060.000000	0.017779
1059.000000	0.017717
1058.000000	0.017616
1057.000000	0.017532
1056.000000	0.017496
1055.000000	0.017471
1054.000000	0.017420
1053.000000	0.017361
1052.000000	0.017327
1051.000000	0.017313
1050.000000	0.017308
1049.000000	0.017336
1048.000000	0.017404
1047.000000	0.017466
1046.000000	0.017484
1045.000000	0.017475
1044.000000	0.017470
1043.000000	0.017464
1042.000000	0.017462
1041.000000	0.017501
1040.000000	0.017597
1039.000000	0.017718
1038.000000	0.017850
1037.000000	0.018038
1036.000000	0.018304
1035.000000	0.018585
1034.000000	0.018810
1033.000000	0.018983
1032.000000	0.019140
1031.000000	0.019271
1030.000000	0.019345
1029.000000	0.019364
1028.000000	0.019338
1027.000000	0.019246
1026.000000	0.019084
1025.000000	0.018905
1024.000000	0.018766
1023.000000	0.018668
1022.000000	0.018585
1021.000000	0.018510
1020.000000	0.018432
1019.000000	0.018316
1018.000000	0.018152
1017.000000	0.017980
1016.000000	0.017816
1015.000000	0.017614
1014.000000	0.017337
1013.000000	0.017026
1012.000000	0.016732
1011.000000	0.016450
1010.000000	0.016152
1009.000000	0.015844
1008.000000	0.015540
1007.000000	0.015230
1006.000000	0.014917
1005.000000	0.014632
1004.000000	0.014385
1003.000000	0.014134
1002.000000	0.013854
1001.000000	0.013580
1000.000000	0.013345
999.000000	0.013128
998.000000	0.012904
997.000000	0.012696
996.000000	0.012521
995.000000	0.012341
994.000000	0.012119
993.000000	0.011875
992.000000	0.011645
991.000000	0.011429
990.000000	0.011220
989.000000	0.011039
988.000000	0.010889
987.000000	0.010732
986.000000	0.010546
985.000000	0.010366
984.000000	0.010227
983.000000	0.010106
982.000000	0.009985
981.000000	0.009893
980.000000	0.009846
979.000000	0.009803
978.000000	0.009731
977.000000	0.009667
976.000000	0.009652
975.000000	0.009648
974.000000	0.009600
973.000000	0.009512
972.000000	0.009424
971.000000	0.009339
970.000000	0.009239
969.000000	0.009134
968.000000	0.009037
967.000000	0.008919
966.000000	0.008753
965.000000	0.008562
964.000000	0.008382
963.000000	0.008205
962.000000	0.008022
961.000000	0.007861
960.000000	0.007742
959.000000	0.007638
958.000000	0.007520
957.000000	0.007408
956.000000	0.007321
955.000000	0.007237
954.000000	0.007128
953.000000	0.007012
952.000000	0.006913
951.000000	0.006814
950.000000	0.006714
949.000000	0.006657
948.000000	0.006672
947.000000	0.006710
946.000000	0.006719
945.000000	0.006716
944.000000	0.006733
943.000000	0.006745
942.000000	0.006717
941.000000	0.006675
940.000000	0.006661
939.000000	0.006664
938.000000	0.006644
937.000000	0.006605
936.000000	0.006571
935.000000	0.006539
934.000000	0.006500
933.000000	0.006466
932.000000	0.006441
931.000000	0.006394
930.000000	0.006314
929.000000	0.006246
928.000000	0.006222
927.000000	0.006204
926.000000	0.006154
925.000000	0.006097
924.000000	0.006076
923.000000	0.006069
922.000000	0.006038
921.000000	0.005992
920.000000	0.005958
919.000000	0.005911
918.000000	0.005823
917.000000	0.005718
916.000000	0.005627
915.000000	0.005532
914.000000	0.005408
913.000000	0.005284
912.000000	0.005205
911.000000	0.005154
910.000000	0.005094
909.000000	0.005034
908.000000	0.004996
907.000000	0.004967
906.000000	0.004931
905.000000	0.004912
904.000000	0.004926
903.000000	0.004930
902.000000	0.004887
901.000000	0.004821
900.000000	0.004771
899.000000	0.004720
898.000000	0.004643
897.000000	0.004566
896.000000	0.004528
895.000000	0.004511
894.000000	0.004480
893.000000	0.004449
892.000000	0.004446
891.000000	0.004453
890.000000	0.004449
889.000000	0.004463
888.000000	0.004530
887.000000	0.004628
886.000000	0.004717
885.000000	0.004802
884.000000	0.004912
883.000000	0.005049
882.000000	0.005215
881.000000	0.005439
880.000000	0.005723
879.000000	0.006001
878.000000	0.006216
877.000000	0.006379
876.000000	0.006510
875.000000	0.006579
874.000000	0.006563
873.000000	0.006486
872.000000	0.006362
871.000000	0.006157
870.000000	0.005876
869.000000	0.005607
868.000000	0.005428
867.000000	0.005316
866.000000	0.005219
865.000000	0.005137
864.000000	0.005080
863.000000	0.005024
862.000000	0.004956
861.000000	0.004920
860.000000	0.004929
859.000000	0.004930
858.000000	0.004891
857.000000	0.004874
856.000000	0.004939
855.000000	0.005052
854.000000	0.005148
853.000000	0.005221
852.000000	0.005282
851.000000	0.005301
850.000000	0.005258
849.000000	0.005201
848.000000	0.005176
847.000000	0.005157
846.000000	0.005111
845.000000	0.005061
844.000000	0.005025
843.000000	0.004966
842.000000	0.004864
841.000000	0.004770
840.000000	0.004724
839.000000	0.004694
838.000000	0.004643
837.000000	0.004604
836.000000	0.004606
835.000000	0.004610
834.000000	0.004581
833.000000	0.004552
832.000000	0.004554
831.000000	0.004548
830.000000	0.004502
829.000000	0.004454
828.000000	0.004436
827.000000	0.004412
826.000000	0.004374
825.000000	0.004394
824.000000	0.004504
823.000000	0.004608
822.000000	0.004618
821.000000	0.004574
820.000000	0.004558
819.000000	0.004569
818.000000	0.004585
817.000000	0.004644
816.000000	0.004758
815.000000	0.004849
814.000000	0.004839
813.000000	0.004758
812.000000	0.004681
811.000000	0.004622
810.000000	0.004571
809.000000	0.004553
808.000000	0.004571
807.000000	0.004567
806.000000	0.004514
805.000000	0.004478
804.000000	0.004498
803.000000	0.004514
802.000000	0.004474
801.000000	0.004439
800.000000	0.004479
799.000000	0.004552
798.000000	0.004579
797.000000	0.004573
796.000000	0.004581
795.000000	0.004599
794.000000	0.004605
793.000000	0.004627
792.000000	0.004697
791.000000	0.004785
790.000000	0.004853
789.000000	0.004911
788.000000	0.004962
787.000000	0.004969
786.000000	0.004935
785.000000	0.004926
784.000000	0.004969
783.000000	0.005000
782.000000	0.004969
781.000000	0.004927
780.000000	0.004928
779.000000	0.004952
778.000000	0.004982
777.000000	0.005050
776.000000	0.005152
775.000000	0.005204
774.000000	0.005160
773.000000	0.005079
772.000000	0.005030
771.000000	0.005008
770.000000	0.005009
769.000000	0.005077
768.000000	0.005207
767.000000	0.005301
766.000000	0.005314
765.000000	0.005326
764.000000	0.005398
763.000000	0.005461
762.000000	0.005433
761.000000	0.005355
760.000000	0.005311
759.000000	0.005314
758.000000	0.005349
757.000000	0.005432
756.000000	0.005536
755.000000	0.005566
754.000000	0.005487
753.000000	0.005403
752.000000	0.005419
751.000000	0.005505
750.000000	0.005589
749.000000	0.005669
748.000000	0.005759
747.000000	0.005822
746.000000	0.005847
745.000000	0.005906
744.000000	0.006034
743.000000	0.006150
742.000000	0.006185
741.000000	0.006194
740.000000	0.006256
739.000000	0.006346
738.000000	0.006420
737.000000	0.006508
736.000000	0.006642
735.000000	0.006768
734.000000	0.006836
733.000000	0.006898
732.000000	0.007017
731.000000	0.007160
730.000000	0.007278
729.000000	0.007395
728.000000	0.007544
727.000000	0.007687
726.000000	0.007799
725.000000	0.007939
724.000000	0.008147
723.000000	0.008362
722.000000	0.008525
721.000000	0.008657
720.000000	0.008775
719.000000	0.008816
718.000000	0.008757
717.000000	0.008693
716.000000	0.008710
715.000000	0.008776
714.000000	0.008840
713.000000	0.008929
712.000000	0.009052
711.000000	0.009132
710.000000	0.009131
709.000000	0.009140
708.000000	0.009243
707.000000	0.009384
706.000000	0.009484
705.000000	0.009566
704.000000	0.009672
703.000000	0.009753
702.000000	0.009766
701.000000	0.009778
700.000000	0.009856
699.000000	0.009948
698.000000	0.009978
697.000000	0.009978
696.000000	0.009996
695.000000	0.010005
694.000000	0.009975
693.000000	0.009958
692.000000	0.010000
691.000000	0.010064
690.000000	0.010121
689.000000	0.010221
688.000000	0.010367
687.000000	0.010441
686.000000	0.010389
685.000000	0.010328
684.000000	0.010387
683.000000	0.010532
682.000000	0.010675
681.000000	0.010807
680.000000	0.010927
679.000000	0.010959
678.000000	0.010871
677.000000	0.010790
676.000000	0.010844
675.000000	0.011002
674.000000	0.011165
673.000000	0.011310
672.000000	0.011427
671.000000	0.011437
670.000000	0.011285
669.000000	0.011055
668.000000	0.010955
667.000000	0.011104
666.000000	0.011317
665.000000	0.011562
664.000000	0.011841
663.000000	0.012022
662.000000	0.012025
661.000000	0.011969
660.000000	0.011996
659.000000	0.012062
658.000000	0.012073
657.000000	0.012073
656.000000	0.012130
655.000000	0.012187
654.000000	0.012183
653.000000	0.012163
652.000000	0.012149
651.000000	0.012062
650.000000	0.011909
649.000000	0.011844
648.000000	0.011935
647.000000	0.012034
646.000000	0.012022
645.000000	0.011959
644.000000	0.011899
643.000000	0.011780
642.000000	0.011610
641.000000	0.011551
640.000000	0.011669
639.000000	0.011795
638.000000	0.011790
637.000000	0.011745
636.000000	0.011764
635.000000	0.011768
634.000000	0.011688
633.000000	0.011632
632.000000	0.011694
631.000000	0.011778
630.000000	0.011782
629.000000	0.011789
628.000000	0.011885
627.000000	0.011982
626.000000	0.011994
625.000000	0.012011
624.000000	0.012120
623.000000	0.012229
622.000000	0.012230
621.000000	0.012190
620.000000	0.012189
619.000000	0.012153
618.000000	0.012019
617.000000	0.011894
616.000000	0.011893
615.000000	0.011961
614.000000	0.012022
613.000000	0.012116
612.000000	0.012236
611.000000	0.012242
610.000000	0.012093
609.000000	0.011982
608.000000	0.012052
607.000000	0.012184
606.000000	0.012231
605.000000	0.012240
604.000000	0.012279
603.000000	0.012255
602.000000	0.012125
601.000000	0.012038
600.000000	0.012088
599.000000	0.012137
598.000000	0.012074
597.000000	0.012026
596.000000	0.012096
595.000000	0.012143
594.000000	0.012039
593.000000	0.011923
592.000000	0.011963
591.000000	0.012053
590.000000	0.012018
589.000000	0.011920
588.000000	0.011907
587.000000	0.011951
586.000000	0.011956
585.000000	0.011958
584.000000	0.011979
583.000000	0.011889
582.000000	0.011641
581.000000	0.011453
580.000000	0.011521
579.000000	0.011728
578.000000	0.011861
577.000000	0.011926
576.000000	0.012038
575.000000	0.012179
574.000000	0.012296
573.000000	0.012443
572.000000	0.012614
571.000000	0.012654
570.000000	0.012524
569.000000	0.012454
568.000000	0.012605
567.000000	0.012825
566.000000	0.012942
565.000000	0.013036
564.000000	0.013198
563.000000	0.013292
562.000000	0.013221
561.000000	0.013153
560.000000	0.013243
559.000000	0.013365
558.000000	0.013377
557.000000	0.013390
556.000000	0.013505
555.000000	0.013549
554.000000	0.013353
553.000000	0.013075
552.000000	0.012957
551.000000	0.013005
550.000000	0.013113
549.000000	0.013271
548.000000	0.013423
547.000000	0.013389
546.000000	0.013163
545.000000	0.013018
544.000000	0.013086
543.000000	0.013133
542.000000	0.012977
541.000000	0.012793
540.000000	0.012763
539.000000	0.012765
538.000000	0.012686
537.000000	0.012720
536.000000	0.013018
535.000000	0.013359
534.000000	0.013489
533.000000	0.013518
532.000000	0.013648
531.000000	0.013787
530.000000	0.013743
529.000000	0.013562
528.000000	0.013380
527.000000	0.013180
526.000000	0.012984
525.000000	0.012985
524.000000	0.013208
523.000000	0.013358
522.000000	0.013235
521.000000	0.012990
520.000000	0.012771
519.000000	0.012457
518.000000	0.011983
517.000000	0.011610
516.000000	0.011519
515.000000	0.011504
514.000000	0.011381
513.000000	0.011288
512.000000	0.011334
511.000000	0.011323
510.000000	0.011138
509.000000	0.011021
508.000000	0.011158
507.000000	0.011319
506.000000	0.011246
505.000000	0.011052
504.000000	0.010888
503.000000	0.010602
502.000000	0.010110
501.000000	0.009734
500.000000	0.009702
499.000000	0.009746
498.000000	0.009548
497.000000	0.009235
496.000000	0.009095
495.000000	0.009124
494.000000	0.009183
493.000000	0.009301
492.000000	0.009477
491.000000	0.009490
490.000000	0.009247
489.000000	0.008998
488.000000	0.008872
487.000000	0.008616
486.000000	0.008099
485.000000	0.007704
484.000000	0.007786
483.000000	0.008084
482.000000	0.008158
481.000000	0.008018
480.000000	0.007880
479.000000	0.007701
478.000000	0.007402
477.000000	0.007191
476.000000	0.007222
475.000000	0.007261
474.000000	0.007101
473.000000	0.006989
472.000000	0.007180
471.000000	0.007396
470.000000	0.007318
469.000000	0.007138
468.000000	0.007124
467.000000	0.007127
466.000000	0.006921
465.000000	0.006664
464.000000	0.006532
463.000000	0.006345
462.000000	0.005962
461.000000	0.005614
460.000000	0.005431
459.000000	0.005114
458.000000	0.004546
457.000000	0.004246
456.000000	0.004471
455.000000	0.004671
454.000000	0.004472
453.000000	0.004276
452.000000	0.004510
451.000000	0.004835
450.000000	0.004739
