PE IR       SUBTECH     SPECTRUM    ASCII       PEDS        4.00        
   -1
3C-N10-C031_1.ASC
22/02/16
14:53:33.00
22/02/16
15:05:49.00
uco
Sample 031 By uco Date Wednesday, February 16 2022
450.000000
#HDR
-1
-1
#GR
cm-1
A
1.0
0.0
4000.000000
-1.000000
3551
8
0.065286
0.001744
#DATA
4000.000000	0.006237
3999.000000	0.006147
3998.000000	0.006079
3997.000000	0.006070
3996.000000	0.006103
3995.000000	0.006132
3994.000000	0.006162
3993.000000	0.006216
3992.000000	0.006286
3991.000000	0.006337
3990.000000	0.006355
3989.000000	0.006364
3988.000000	0.006376
3987.000000	0.006364
3986.000000	0.006314
3985.000000	0.006251
3984.000000	0.006202
3983.000000	0.006166
3982.000000	0.006136
3981.000000	0.006119
3980.000000	0.006139
3979.000000	0.006205
3978.000000	0.006299
3977.000000	0.006392
3976.000000	0.006489
3975.000000	0.006586
3974.000000	0.006646
3973.000000	0.006654
3972.000000	0.006642
3971.000000	0.006653
3970.000000	0.006675
3969.000000	0.006675
3968.000000	0.006625
3967.000000	0.006509
3966.000000	0.006347
3965.000000	0.006207
3964.000000	0.006180
3963.000000	0.006287
3962.000000	0.006456
3961.000000	0.006607
3960.000000	0.006713
3959.000000	0.006773
3958.000000	0.006757
3957.000000	0.006703
3956.000000	0.006681
3955.000000	0.006680
3954.000000	0.006647
3953.000000	0.006540
3952.000000	0.006414
3951.000000	0.006364
3950.000000	0.006506
3949.000000	0.006804
3948.000000	0.006986
3947.000000	0.006943
3946.000000	0.006840
3945.000000	0.006888
3944.000000	0.007103
3943.000000	0.007291
3942.000000	0.007358
3941.000000	0.007392
3940.000000	0.007424
3939.000000	0.007354
3938.000000	0.007041
3937.000000	0.006575
3936.000000	0.006231
3935.000000	0.006120
3934.000000	0.006246
3933.000000	0.006550
3932.000000	0.007048
3931.000000	0.007589
3930.000000	0.007824
3929.000000	0.007616
3928.000000	0.007196
3927.000000	0.007001
3926.000000	0.007103
3925.000000	0.007161
3924.000000	0.007127
3923.000000	0.007253
3922.000000	0.007414
3921.000000	0.007248
3920.000000	0.006843
3919.000000	0.006840
3918.000000	0.007333
3917.000000	0.007731
3916.000000	0.007709
3915.000000	0.007539
3914.000000	0.007466
3913.000000	0.007371
3912.000000	0.007155
3911.000000	0.007056
3910.000000	0.007043
3909.000000	0.006957
3908.000000	0.006831
3907.000000	0.006799
3906.000000	0.006944
3905.000000	0.006946
3904.000000	0.006755
3903.000000	0.006860
3902.000000	0.007670
3901.000000	0.008845
3900.000000	0.009438
3899.000000	0.009090
3898.000000	0.008415
3897.000000	0.008011
3896.000000	0.007743
3895.000000	0.007441
3894.000000	0.007323
3893.000000	0.007869
3892.000000	0.008513
3891.000000	0.008045
3890.000000	0.006859
3889.000000	0.006393
3888.000000	0.007042
3887.000000	0.007742
3886.000000	0.007517
3885.000000	0.006597
3884.000000	0.006291
3883.000000	0.007215
3882.000000	0.008504
3881.000000	0.009187
3880.000000	0.008949
3879.000000	0.008130
3878.000000	0.007646
3877.000000	0.007831
3876.000000	0.008104
3875.000000	0.007864
3874.000000	0.007095
3873.000000	0.006748
3872.000000	0.007595
3871.000000	0.008676
3870.000000	0.008320
3869.000000	0.006973
3868.000000	0.006674
3867.000000	0.007780
3866.000000	0.008351
3865.000000	0.007732
3864.000000	0.007437
3863.000000	0.008075
3862.000000	0.008568
3861.000000	0.008508
3860.000000	0.008352
3859.000000	0.008500
3858.000000	0.008746
3857.000000	0.008628
3856.000000	0.007751
3855.000000	0.005996
3854.000000	0.004084
3853.000000	0.002345
3852.000000	0.001744
3851.000000	0.003466
3850.000000	0.005915
3849.000000	0.007386
3848.000000	0.007816
3847.000000	0.007905
3846.000000	0.007780
3845.000000	0.007637
3844.000000	0.007646
3843.000000	0.007549
3842.000000	0.007355
3841.000000	0.007679
3840.000000	0.008249
3839.000000	0.008396
3838.000000	0.007937
3837.000000	0.007236
3836.000000	0.006951
3835.000000	0.007269
3834.000000	0.007955
3833.000000	0.008522
3832.000000	0.008422
3831.000000	0.007732
3830.000000	0.007149
3829.000000	0.007282
3828.000000	0.007959
3827.000000	0.008362
3826.000000	0.007903
3825.000000	0.007355
3824.000000	0.007482
3823.000000	0.008051
3822.000000	0.008619
3821.000000	0.008316
3820.000000	0.007277
3819.000000	0.007148
3818.000000	0.008090
3817.000000	0.008400
3816.000000	0.007150
3815.000000	0.005587
3814.000000	0.005705
3813.000000	0.007157
3812.000000	0.007852
3811.000000	0.007261
3810.000000	0.006660
3809.000000	0.006993
3808.000000	0.007553
3807.000000	0.006962
3806.000000	0.005529
3805.000000	0.005176
3804.000000	0.006273
3803.000000	0.007591
3802.000000	0.007841
3801.000000	0.006622
3800.000000	0.005564
3799.000000	0.006216
3798.000000	0.007731
3797.000000	0.008607
3796.000000	0.008547
3795.000000	0.008122
3794.000000	0.007958
3793.000000	0.007873
3792.000000	0.007574
3791.000000	0.007306
3790.000000	0.007238
3789.000000	0.007128
3788.000000	0.006868
3787.000000	0.006782
3786.000000	0.007136
3785.000000	0.007583
3784.000000	0.007624
3783.000000	0.007432
3782.000000	0.007394
3781.000000	0.007591
3780.000000	0.007802
3779.000000	0.007827
3778.000000	0.007740
3777.000000	0.007849
3776.000000	0.007950
3775.000000	0.007556
3774.000000	0.006865
3773.000000	0.006661
3772.000000	0.007134
3771.000000	0.007620
3770.000000	0.007580
3769.000000	0.007306
3768.000000	0.007349
3767.000000	0.007787
3766.000000	0.008140
3765.000000	0.007897
3764.000000	0.007367
3763.000000	0.007243
3762.000000	0.007397
3761.000000	0.007341
3760.000000	0.007303
3759.000000	0.007870
3758.000000	0.008522
3757.000000	0.008539
3756.000000	0.008198
3755.000000	0.007749
3754.000000	0.006757
3753.000000	0.005149
3752.000000	0.004456
3751.000000	0.005620
3750.000000	0.006610
3749.000000	0.006133
3748.000000	0.005765
3747.000000	0.006874
3746.000000	0.008535
3745.000000	0.008421
3744.000000	0.005863
3743.000000	0.003911
3742.000000	0.004923
3741.000000	0.006957
3740.000000	0.007504
3739.000000	0.007068
3738.000000	0.006936
3737.000000	0.007233
3736.000000	0.007934
3735.000000	0.009138
3734.000000	0.010514
3733.000000	0.010942
3732.000000	0.009817
3731.000000	0.008029
3730.000000	0.006977
3729.000000	0.007005
3728.000000	0.007406
3727.000000	0.007453
3726.000000	0.007303
3725.000000	0.007522
3724.000000	0.008086
3723.000000	0.008406
3722.000000	0.008282
3721.000000	0.008047
3720.000000	0.007950
3719.000000	0.008035
3718.000000	0.007869
3717.000000	0.007227
3716.000000	0.006662
3715.000000	0.006331
3714.000000	0.005900
3713.000000	0.005674
3712.000000	0.006362
3711.000000	0.007726
3710.000000	0.008708
3709.000000	0.009029
3708.000000	0.008930
3707.000000	0.008467
3706.000000	0.007945
3705.000000	0.007657
3704.000000	0.007658
3703.000000	0.007885
3702.000000	0.008045
3701.000000	0.007886
3700.000000	0.007509
3699.000000	0.007325
3698.000000	0.007357
3697.000000	0.007198
3696.000000	0.006967
3695.000000	0.007017
3694.000000	0.007077
3693.000000	0.006757
3692.000000	0.006369
3691.000000	0.006581
3690.000000	0.007274
3689.000000	0.007443
3688.000000	0.006534
3687.000000	0.005733
3686.000000	0.006077
3685.000000	0.007011
3684.000000	0.007439
3683.000000	0.007269
3682.000000	0.007259
3681.000000	0.007435
3680.000000	0.007155
3679.000000	0.006444
3678.000000	0.006355
3677.000000	0.007471
3676.000000	0.008853
3675.000000	0.008768
3674.000000	0.007747
3673.000000	0.007597
3672.000000	0.007950
3671.000000	0.007949
3670.000000	0.007837
3669.000000	0.007847
3668.000000	0.008023
3667.000000	0.008261
3666.000000	0.008231
3665.000000	0.007929
3664.000000	0.007703
3663.000000	0.007800
3662.000000	0.007981
3661.000000	0.007810
3660.000000	0.007482
3659.000000	0.007453
3658.000000	0.007976
3657.000000	0.008455
3656.000000	0.008200
3655.000000	0.007632
3654.000000	0.007594
3653.000000	0.007678
3652.000000	0.006993
3651.000000	0.006438
3650.000000	0.007509
3649.000000	0.009622
3648.000000	0.010944
3647.000000	0.011047
3646.000000	0.010610
3645.000000	0.010099
3644.000000	0.009634
3643.000000	0.009276
3642.000000	0.008994
3641.000000	0.008786
3640.000000	0.008756
3639.000000	0.008742
3638.000000	0.008559
3637.000000	0.008379
3636.000000	0.008582
3635.000000	0.009033
3634.000000	0.009171
3633.000000	0.008952
3632.000000	0.008786
3631.000000	0.008802
3630.000000	0.009230
3629.000000	0.009651
3628.000000	0.009161
3627.000000	0.008816
3626.000000	0.009293
3625.000000	0.009737
3624.000000	0.009578
3623.000000	0.009221
3622.000000	0.009151
3621.000000	0.009362
3620.000000	0.009668
3619.000000	0.009851
3618.000000	0.009650
3617.000000	0.009415
3616.000000	0.009578
3615.000000	0.010054
3614.000000	0.010456
3613.000000	0.010573
3612.000000	0.010504
3611.000000	0.010374
3610.000000	0.010269
3609.000000	0.010383
3608.000000	0.010789
3607.000000	0.011255
3606.000000	0.011427
3605.000000	0.011161
3604.000000	0.010606
3603.000000	0.010114
3602.000000	0.009963
3601.000000	0.010089
3600.000000	0.010321
3599.000000	0.010523
3598.000000	0.010564
3597.000000	0.010492
3596.000000	0.010683
3595.000000	0.011109
3594.000000	0.011434
3593.000000	0.011463
3592.000000	0.011229
3591.000000	0.010803
3590.000000	0.010379
3589.000000	0.010424
3588.000000	0.011300
3587.000000	0.012304
3586.000000	0.012669
3585.000000	0.012516
3584.000000	0.012245
3583.000000	0.011948
3582.000000	0.011697
3581.000000	0.011575
3580.000000	0.011621
3579.000000	0.011728
3578.000000	0.011786
3577.000000	0.011823
3576.000000	0.011953
3575.000000	0.012166
3574.000000	0.012270
3573.000000	0.012166
3572.000000	0.011831
3571.000000	0.011319
3570.000000	0.010830
3569.000000	0.010851
3568.000000	0.011866
3567.000000	0.013527
3566.000000	0.014748
3565.000000	0.015059
3564.000000	0.014750
3563.000000	0.014202
3562.000000	0.013716
3561.000000	0.013495
3560.000000	0.013508
3559.000000	0.013557
3558.000000	0.013475
3557.000000	0.013241
3556.000000	0.012973
3555.000000	0.012876
3554.000000	0.013079
3553.000000	0.013508
3552.000000	0.013899
3551.000000	0.013997
3550.000000	0.013797
3549.000000	0.013501
3548.000000	0.013416
3547.000000	0.013784
3546.000000	0.014484
3545.000000	0.015109
3544.000000	0.015400
3543.000000	0.015362
3542.000000	0.015100
3541.000000	0.014750
3540.000000	0.014469
3539.000000	0.014378
3538.000000	0.014491
3537.000000	0.014743
3536.000000	0.015037
3535.000000	0.015216
3534.000000	0.015184
3533.000000	0.014985
3532.000000	0.014795
3531.000000	0.014766
3530.000000	0.014917
3529.000000	0.015166
3528.000000	0.015422
3527.000000	0.015630
3526.000000	0.015798
3525.000000	0.016008
3524.000000	0.016331
3523.000000	0.016680
3522.000000	0.016843
3521.000000	0.016748
3520.000000	0.016548
3519.000000	0.016400
3518.000000	0.016335
3517.000000	0.016326
3516.000000	0.016376
3515.000000	0.016420
3514.000000	0.016383
3513.000000	0.016315
3512.000000	0.016361
3511.000000	0.016583
3510.000000	0.016889
3509.000000	0.017107
3508.000000	0.017134
3507.000000	0.016990
3506.000000	0.016793
3505.000000	0.016738
3504.000000	0.017008
3503.000000	0.017520
3502.000000	0.017946
3501.000000	0.018065
3500.000000	0.017952
3499.000000	0.017797
3498.000000	0.017705
3497.000000	0.017709
3496.000000	0.017816
3495.000000	0.017966
3494.000000	0.018050
3493.000000	0.018033
3492.000000	0.017979
3491.000000	0.017945
3490.000000	0.017959
3489.000000	0.018059
3488.000000	0.018254
3487.000000	0.018464
3486.000000	0.018572
3485.000000	0.018574
3484.000000	0.018582
3483.000000	0.018674
3482.000000	0.018826
3481.000000	0.018974
3480.000000	0.019089
3479.000000	0.019149
3478.000000	0.019130
3477.000000	0.019074
3476.000000	0.019061
3475.000000	0.019111
3474.000000	0.019150
3473.000000	0.019144
3472.000000	0.019141
3471.000000	0.019171
3470.000000	0.019228
3469.000000	0.019327
3468.000000	0.019479
3467.000000	0.019615
3466.000000	0.019652
3465.000000	0.019610
3464.000000	0.019589
3463.000000	0.019646
3462.000000	0.019769
3461.000000	0.019929
3460.000000	0.020103
3459.000000	0.020230
3458.000000	0.020268
3457.000000	0.020252
3456.000000	0.020257
3455.000000	0.020304
3454.000000	0.020380
3453.000000	0.020436
3452.000000	0.020425
3451.000000	0.020349
3450.000000	0.020285
3449.000000	0.020351
3448.000000	0.020587
3447.000000	0.020891
3446.000000	0.021120
3445.000000	0.021228
3444.000000	0.021268
3443.000000	0.021290
3442.000000	0.021305
3441.000000	0.021317
3440.000000	0.021337
3439.000000	0.021375
3438.000000	0.021427
3437.000000	0.021488
3436.000000	0.021547
3435.000000	0.021596
3434.000000	0.021650
3433.000000	0.021717
3432.000000	0.021802
3431.000000	0.021909
3430.000000	0.022019
3429.000000	0.022102
3428.000000	0.022155
3427.000000	0.022204
3426.000000	0.022255
3425.000000	0.022285
3424.000000	0.022298
3423.000000	0.022337
3422.000000	0.022439
3421.000000	0.022595
3420.000000	0.022763
3419.000000	0.022897
3418.000000	0.022957
3417.000000	0.022935
3416.000000	0.022875
3415.000000	0.022845
3414.000000	0.022869
3413.000000	0.022927
3412.000000	0.022998
3411.000000	0.023089
3410.000000	0.023193
3409.000000	0.023292
3408.000000	0.023380
3407.000000	0.023462
3406.000000	0.023520
3405.000000	0.023545
3404.000000	0.023577
3403.000000	0.023650
3402.000000	0.023754
3401.000000	0.023869
3400.000000	0.024015
3399.000000	0.024195
3398.000000	0.024342
3397.000000	0.024391
3396.000000	0.024362
3395.000000	0.024331
3394.000000	0.024355
3393.000000	0.024438
3392.000000	0.024554
3391.000000	0.024655
3390.000000	0.024702
3389.000000	0.024701
3388.000000	0.024700
3387.000000	0.024729
3386.000000	0.024770
3385.000000	0.024805
3384.000000	0.024847
3383.000000	0.024899
3382.000000	0.024941
3381.000000	0.024972
3380.000000	0.025028
3379.000000	0.025122
3378.000000	0.025223
3377.000000	0.025304
3376.000000	0.025368
3375.000000	0.025413
3374.000000	0.025430
3373.000000	0.025452
3372.000000	0.025535
3371.000000	0.025684
3370.000000	0.025851
3369.000000	0.025998
3368.000000	0.026126
3367.000000	0.026232
3366.000000	0.026302
3365.000000	0.026349
3364.000000	0.026415
3363.000000	0.026520
3362.000000	0.026648
3361.000000	0.026777
3360.000000	0.026889
3359.000000	0.026968
3358.000000	0.027014
3357.000000	0.027063
3356.000000	0.027150
3355.000000	0.027250
3354.000000	0.027319
3353.000000	0.027372
3352.000000	0.027470
3351.000000	0.027633
3350.000000	0.027818
3349.000000	0.027982
3348.000000	0.028119
3347.000000	0.028225
3346.000000	0.028291
3345.000000	0.028330
3344.000000	0.028385
3343.000000	0.028463
3342.000000	0.028532
3341.000000	0.028581
3340.000000	0.028642
3339.000000	0.028746
3338.000000	0.028892
3337.000000	0.029066
3336.000000	0.029253
3335.000000	0.029413
3334.000000	0.029503
3333.000000	0.029519
3332.000000	0.029503
3331.000000	0.029505
3330.000000	0.029542
3329.000000	0.029611
3328.000000	0.029708
3327.000000	0.029820
3326.000000	0.029931
3325.000000	0.030038
3324.000000	0.030152
3323.000000	0.030263
3322.000000	0.030339
3321.000000	0.030379
3320.000000	0.030412
3319.000000	0.030462
3318.000000	0.030525
3317.000000	0.030586
3316.000000	0.030640
3315.000000	0.030691
3314.000000	0.030737
3313.000000	0.030778
3312.000000	0.030809
3311.000000	0.030827
3310.000000	0.030848
3309.000000	0.030901
3308.000000	0.030991
3307.000000	0.031084
3306.000000	0.031141
3305.000000	0.031171
3304.000000	0.031212
3303.000000	0.031270
3302.000000	0.031328
3301.000000	0.031376
3300.000000	0.031424
3299.000000	0.031468
3298.000000	0.031502
3297.000000	0.031535
3296.000000	0.031584
3295.000000	0.031638
3294.000000	0.031676
3293.000000	0.031702
3292.000000	0.031729
3291.000000	0.031737
3290.000000	0.031703
3289.000000	0.031632
3288.000000	0.031560
3287.000000	0.031513
3286.000000	0.031499
3285.000000	0.031527
3284.000000	0.031598
3283.000000	0.031671
3282.000000	0.031695
3281.000000	0.031674
3280.000000	0.031650
3279.000000	0.031625
3278.000000	0.031561
3277.000000	0.031457
3276.000000	0.031359
3275.000000	0.031301
3274.000000	0.031273
3273.000000	0.031261
3272.000000	0.031270
3271.000000	0.031299
3270.000000	0.031328
3269.000000	0.031340
3268.000000	0.031331
3267.000000	0.031296
3266.000000	0.031227
3265.000000	0.031141
3264.000000	0.031071
3263.000000	0.031020
3262.000000	0.030959
3261.000000	0.030885
3260.000000	0.030809
3259.000000	0.030720
3258.000000	0.030616
3257.000000	0.030544
3256.000000	0.030555
3255.000000	0.030626
3254.000000	0.030673
3253.000000	0.030642
3252.000000	0.030552
3251.000000	0.030433
3250.000000	0.030294
3249.000000	0.030149
3248.000000	0.030031
3247.000000	0.029968
3246.000000	0.029959
3245.000000	0.029989
3244.000000	0.030028
3243.000000	0.030026
3242.000000	0.029952
3241.000000	0.029841
3240.000000	0.029747
3239.000000	0.029682
3238.000000	0.029620
3237.000000	0.029551
3236.000000	0.029487
3235.000000	0.029428
3234.000000	0.029370
3233.000000	0.029320
3232.000000	0.029289
3231.000000	0.029265
3230.000000	0.029239
3229.000000	0.029228
3228.000000	0.029235
3227.000000	0.029220
3226.000000	0.029158
3225.000000	0.029078
3224.000000	0.029023
3223.000000	0.028977
3222.000000	0.028904
3221.000000	0.028820
3220.000000	0.028769
3219.000000	0.028738
3218.000000	0.028682
3217.000000	0.028606
3216.000000	0.028562
3215.000000	0.028563
3214.000000	0.028570
3213.000000	0.028546
3212.000000	0.028492
3211.000000	0.028435
3210.000000	0.028398
3209.000000	0.028398
3208.000000	0.028418
3207.000000	0.028415
3206.000000	0.028359
3205.000000	0.028272
3204.000000	0.028190
3203.000000	0.028119
3202.000000	0.028040
3201.000000	0.027946
3200.000000	0.027858
3199.000000	0.027794
3198.000000	0.027768
3197.000000	0.027770
3196.000000	0.027758
3195.000000	0.027690
3194.000000	0.027575
3193.000000	0.027469
3192.000000	0.027399
3191.000000	0.027329
3190.000000	0.027229
3189.000000	0.027121
3188.000000	0.027044
3187.000000	0.027002
3186.000000	0.026986
3185.000000	0.026991
3184.000000	0.026979
3183.000000	0.026895
3182.000000	0.026740
3181.000000	0.026591
3180.000000	0.026514
3179.000000	0.026504
3178.000000	0.026507
3177.000000	0.026486
3176.000000	0.026414
3175.000000	0.026274
3174.000000	0.026095
3173.000000	0.025951
3172.000000	0.025879
3171.000000	0.025834
3170.000000	0.025759
3169.000000	0.025656
3168.000000	0.025557
3167.000000	0.025472
3166.000000	0.025395
3165.000000	0.025331
3164.000000	0.025276
3163.000000	0.025209
3162.000000	0.025134
3161.000000	0.025073
3160.000000	0.025028
3159.000000	0.024983
3158.000000	0.024928
3157.000000	0.024867
3156.000000	0.024780
3155.000000	0.024650
3154.000000	0.024512
3153.000000	0.024432
3152.000000	0.024421
3151.000000	0.024421
3150.000000	0.024393
3149.000000	0.024352
3148.000000	0.024308
3147.000000	0.024239
3146.000000	0.024134
3145.000000	0.024024
3144.000000	0.023936
3143.000000	0.023856
3142.000000	0.023770
3141.000000	0.023705
3140.000000	0.023688
3139.000000	0.023697
3138.000000	0.023694
3137.000000	0.023675
3136.000000	0.023647
3135.000000	0.023600
3134.000000	0.023545
3133.000000	0.023514
3132.000000	0.023503
3131.000000	0.023459
3130.000000	0.023366
3129.000000	0.023266
3128.000000	0.023186
3127.000000	0.023102
3126.000000	0.022999
3125.000000	0.022906
3124.000000	0.022848
3123.000000	0.022824
3122.000000	0.022820
3121.000000	0.022825
3120.000000	0.022825
3119.000000	0.022804
3118.000000	0.022787
3117.000000	0.022820
3116.000000	0.022895
3115.000000	0.022949
3114.000000	0.022945
3113.000000	0.022904
3112.000000	0.022851
3111.000000	0.022793
3110.000000	0.022755
3109.000000	0.022766
3108.000000	0.022808
3107.000000	0.022832
3106.000000	0.022819
3105.000000	0.022794
3104.000000	0.022774
3103.000000	0.022777
3102.000000	0.022820
3101.000000	0.022894
3100.000000	0.022951
3099.000000	0.022941
3098.000000	0.022886
3097.000000	0.022868
3096.000000	0.022927
3095.000000	0.023020
3094.000000	0.023077
3093.000000	0.023076
3092.000000	0.023033
3091.000000	0.022969
3090.000000	0.022909
3089.000000	0.022873
3088.000000	0.022864
3087.000000	0.022869
3086.000000	0.022883
3085.000000	0.022911
3084.000000	0.022940
3083.000000	0.022953
3082.000000	0.022951
3081.000000	0.022957
3080.000000	0.022982
3079.000000	0.023012
3078.000000	0.023039
3077.000000	0.023059
3076.000000	0.023054
3075.000000	0.023007
3074.000000	0.022942
3073.000000	0.022899
3072.000000	0.022884
3071.000000	0.022867
3070.000000	0.022837
3069.000000	0.022812
3068.000000	0.022803
3067.000000	0.022800
3066.000000	0.022799
3065.000000	0.022811
3064.000000	0.022831
3063.000000	0.022831
3062.000000	0.022788
3061.000000	0.022712
3060.000000	0.022626
3059.000000	0.022550
3058.000000	0.022499
3057.000000	0.022480
3056.000000	0.022480
3055.000000	0.022460
3054.000000	0.022401
3053.000000	0.022310
3052.000000	0.022206
3051.000000	0.022103
3050.000000	0.022008
3049.000000	0.021935
3048.000000	0.021876
3047.000000	0.021801
3046.000000	0.021700
3045.000000	0.021598
3044.000000	0.021519
3043.000000	0.021455
3042.000000	0.021388
3041.000000	0.021316
3040.000000	0.021230
3039.000000	0.021111
3038.000000	0.020963
3037.000000	0.020832
3036.000000	0.020760
3035.000000	0.020734
3034.000000	0.020717
3033.000000	0.020705
3032.000000	0.020713
3031.000000	0.020718
3030.000000	0.020667
3029.000000	0.020534
3028.000000	0.020344
3027.000000	0.020159
3026.000000	0.020035
3025.000000	0.019983
3024.000000	0.019965
3023.000000	0.019930
3022.000000	0.019863
3021.000000	0.019791
3020.000000	0.019745
3019.000000	0.019743
3018.000000	0.019781
3017.000000	0.019840
3016.000000	0.019893
3015.000000	0.019920
3014.000000	0.019928
3013.000000	0.019945
3012.000000	0.019981
3011.000000	0.020011
3010.000000	0.020005
3009.000000	0.019948
3008.000000	0.019849
3007.000000	0.019741
3006.000000	0.019665
3005.000000	0.019644
3004.000000	0.019652
3003.000000	0.019643
3002.000000	0.019601
3001.000000	0.019548
3000.000000	0.019512
2999.000000	0.019506
2998.000000	0.019533
2997.000000	0.019591
2996.000000	0.019659
2995.000000	0.019706
2994.000000	0.019724
2993.000000	0.019732
2992.000000	0.019748
2991.000000	0.019779
2990.000000	0.019834
2989.000000	0.019917
2988.000000	0.020008
2987.000000	0.020066
2986.000000	0.020086
2985.000000	0.020108
2984.000000	0.020173
2983.000000	0.020274
2982.000000	0.020377
2981.000000	0.020460
2980.000000	0.020525
2979.000000	0.020576
2978.000000	0.020616
2977.000000	0.020646
2976.000000	0.020656
2975.000000	0.020638
2974.000000	0.020599
2973.000000	0.020562
2972.000000	0.020549
2971.000000	0.020575
2970.000000	0.020652
2969.000000	0.020785
2968.000000	0.020953
2967.000000	0.021127
2966.000000	0.021309
2965.000000	0.021517
2964.000000	0.021743
2963.000000	0.021950
2962.000000	0.022117
2961.000000	0.022257
2960.000000	0.022396
2959.000000	0.022534
2958.000000	0.022663
2957.000000	0.022776
2956.000000	0.022870
2955.000000	0.022942
2954.000000	0.022997
2953.000000	0.023033
2952.000000	0.023033
2951.000000	0.022991
2950.000000	0.022934
2949.000000	0.022893
2948.000000	0.022863
2947.000000	0.022817
2946.000000	0.022767
2945.000000	0.022762
2944.000000	0.022831
2943.000000	0.022946
2942.000000	0.023062
2941.000000	0.023161
2940.000000	0.023253
2939.000000	0.023368
2938.000000	0.023537
2937.000000	0.023765
2936.000000	0.024015
2935.000000	0.024237
2934.000000	0.024421
2933.000000	0.024585
2932.000000	0.024747
2931.000000	0.024921
2930.000000	0.025141
2929.000000	0.025441
2928.000000	0.025807
2927.000000	0.026193
2926.000000	0.026570
2925.000000	0.026933
2924.000000	0.027265
2923.000000	0.027533
2922.000000	0.027725
2921.000000	0.027851
2920.000000	0.027909
2919.000000	0.027882
2918.000000	0.027762
2917.000000	0.027551
2916.000000	0.027238
2915.000000	0.026828
2914.000000	0.026361
2913.000000	0.025900
2912.000000	0.025471
2911.000000	0.025069
2910.000000	0.024699
2909.000000	0.024380
2908.000000	0.024116
2907.000000	0.023884
2906.000000	0.023670
2905.000000	0.023477
2904.000000	0.023297
2903.000000	0.023123
2902.000000	0.022966
2901.000000	0.022841
2900.000000	0.022732
2899.000000	0.022617
2898.000000	0.022504
2897.000000	0.022428
2896.000000	0.022386
2895.000000	0.022343
2894.000000	0.022275
2893.000000	0.022194
2892.000000	0.022112
2891.000000	0.022023
2890.000000	0.021931
2889.000000	0.021859
2888.000000	0.021816
2887.000000	0.021790
2886.000000	0.021758
2885.000000	0.021708
2884.000000	0.021640
2883.000000	0.021565
2882.000000	0.021513
2881.000000	0.021499
2880.000000	0.021491
2879.000000	0.021450
2878.000000	0.021376
2877.000000	0.021302
2876.000000	0.021253
2875.000000	0.021222
2874.000000	0.021203
2873.000000	0.021186
2872.000000	0.021149
2871.000000	0.021064
2870.000000	0.020944
2869.000000	0.020820
2868.000000	0.020706
2867.000000	0.020595
2866.000000	0.020503
2865.000000	0.020472
2864.000000	0.020529
2863.000000	0.020665
2862.000000	0.020852
2861.000000	0.021060
2860.000000	0.021260
2859.000000	0.021437
2858.000000	0.021616
2857.000000	0.021828
2856.000000	0.022067
2855.000000	0.022299
2854.000000	0.022509
2853.000000	0.022697
2852.000000	0.022844
2851.000000	0.022916
2850.000000	0.022886
2849.000000	0.022749
2848.000000	0.022498
2847.000000	0.022144
2846.000000	0.021737
2845.000000	0.021347
2844.000000	0.021008
2843.000000	0.020713
2842.000000	0.020453
2841.000000	0.020222
2840.000000	0.020007
2839.000000	0.019795
2838.000000	0.019602
2837.000000	0.019447
2836.000000	0.019325
2835.000000	0.019207
2834.000000	0.019092
2833.000000	0.019001
2832.000000	0.018936
2831.000000	0.018871
2830.000000	0.018794
2829.000000	0.018724
2828.000000	0.018680
2827.000000	0.018659
2826.000000	0.018643
2825.000000	0.018621
2824.000000	0.018586
2823.000000	0.018541
2822.000000	0.018493
2821.000000	0.018440
2820.000000	0.018362
2819.000000	0.018258
2818.000000	0.018167
2817.000000	0.018122
2816.000000	0.018111
2815.000000	0.018093
2814.000000	0.018056
2813.000000	0.018015
2812.000000	0.017975
2811.000000	0.017928
2810.000000	0.017880
2809.000000	0.017844
2808.000000	0.017814
2807.000000	0.017769
2806.000000	0.017708
2805.000000	0.017641
2804.000000	0.017573
2803.000000	0.017513
2802.000000	0.017486
2801.000000	0.017507
2800.000000	0.017546
2799.000000	0.017562
2798.000000	0.017554
2797.000000	0.017555
2796.000000	0.017569
2795.000000	0.017571
2794.000000	0.017547
2793.000000	0.017506
2792.000000	0.017459
2791.000000	0.017410
2790.000000	0.017374
2789.000000	0.017365
2788.000000	0.017367
2787.000000	0.017355
2786.000000	0.017330
2785.000000	0.017311
2784.000000	0.017298
2783.000000	0.017272
2782.000000	0.017229
2781.000000	0.017185
2780.000000	0.017148
2779.000000	0.017112
2778.000000	0.017071
2777.000000	0.017031
2776.000000	0.016992
2775.000000	0.016957
2774.000000	0.016937
2773.000000	0.016935
2772.000000	0.016930
2771.000000	0.016899
2770.000000	0.016856
2769.000000	0.016828
2768.000000	0.016813
2767.000000	0.016792
2766.000000	0.016763
2765.000000	0.016735
2764.000000	0.016707
2763.000000	0.016675
2762.000000	0.016650
2761.000000	0.016640
2760.000000	0.016632
2759.000000	0.016609
2758.000000	0.016578
2757.000000	0.016557
2756.000000	0.016542
2755.000000	0.016516
2754.000000	0.016480
2753.000000	0.016445
2752.000000	0.016412
2751.000000	0.016374
2750.000000	0.016334
2749.000000	0.016298
2748.000000	0.016264
2747.000000	0.016239
2746.000000	0.016244
2745.000000	0.016284
2744.000000	0.016323
2743.000000	0.016326
2742.000000	0.016304
2741.000000	0.016286
2740.000000	0.016276
2739.000000	0.016262
2738.000000	0.016240
2737.000000	0.016214
2736.000000	0.016177
2735.000000	0.016134
2734.000000	0.016116
2733.000000	0.016134
2732.000000	0.016151
2731.000000	0.016129
2730.000000	0.016084
2729.000000	0.016053
2728.000000	0.016035
2727.000000	0.016004
2726.000000	0.015960
2725.000000	0.015925
2724.000000	0.015904
2723.000000	0.015887
2722.000000	0.015883
2721.000000	0.015916
2720.000000	0.015967
2719.000000	0.015992
2718.000000	0.015974
2717.000000	0.015932
2716.000000	0.015890
2715.000000	0.015857
2714.000000	0.015839
2713.000000	0.015834
2712.000000	0.015827
2711.000000	0.015806
2710.000000	0.015784
2709.000000	0.015779
2708.000000	0.015779
2707.000000	0.015767
2706.000000	0.015747
2705.000000	0.015730
2704.000000	0.015704
2703.000000	0.015659
2702.000000	0.015617
2701.000000	0.015607
2700.000000	0.015623
2699.000000	0.015632
2698.000000	0.015624
2697.000000	0.015605
2696.000000	0.015574
2695.000000	0.015531
2694.000000	0.015499
2693.000000	0.015502
2692.000000	0.015528
2691.000000	0.015546
2690.000000	0.015553
2689.000000	0.015561
2688.000000	0.015570
2687.000000	0.015566
2686.000000	0.015560
2685.000000	0.015567
2684.000000	0.015583
2683.000000	0.015589
2682.000000	0.015584
2681.000000	0.015574
2680.000000	0.015550
2679.000000	0.015504
2678.000000	0.015455
2677.000000	0.015425
2676.000000	0.015412
2675.000000	0.015398
2674.000000	0.015382
2673.000000	0.015370
2672.000000	0.015353
2671.000000	0.015320
2670.000000	0.015283
2669.000000	0.015261
2668.000000	0.015246
2667.000000	0.015213
2666.000000	0.015156
2665.000000	0.015068
2664.000000	0.014924
2663.000000	0.014711
2662.000000	0.014471
2661.000000	0.014264
2660.000000	0.014110
2659.000000	0.013986
2658.000000	0.013871
2657.000000	0.013764
2656.000000	0.013665
2655.000000	0.013567
2654.000000	0.013469
2653.000000	0.013373
2652.000000	0.013275
2651.000000	0.013184
2650.000000	0.013127
2649.000000	0.013109
2648.000000	0.013094
2647.000000	0.013048
2646.000000	0.012987
2645.000000	0.012941
2644.000000	0.012908
2643.000000	0.012874
2642.000000	0.012849
2641.000000	0.012847
2640.000000	0.012840
2639.000000	0.012799
2638.000000	0.012735
2637.000000	0.012683
2636.000000	0.012646
2635.000000	0.012608
2634.000000	0.012582
2633.000000	0.012588
2632.000000	0.012605
2631.000000	0.012593
2630.000000	0.012550
2629.000000	0.012501
2628.000000	0.012463
2627.000000	0.012443
2626.000000	0.012457
2625.000000	0.012497
2624.000000	0.012513
2623.000000	0.012465
2622.000000	0.012382
2621.000000	0.012320
2620.000000	0.012292
2619.000000	0.012282
2618.000000	0.012299
2617.000000	0.012348
2616.000000	0.012401
2615.000000	0.012430
2614.000000	0.012450
2613.000000	0.012468
2612.000000	0.012455
2611.000000	0.012404
2610.000000	0.012382
2609.000000	0.012453
2608.000000	0.012574
2607.000000	0.012650
2606.000000	0.012654
2605.000000	0.012629
2604.000000	0.012605
2603.000000	0.012582
2602.000000	0.012571
2601.000000	0.012585
2600.000000	0.012590
2599.000000	0.012547
2598.000000	0.012481
2597.000000	0.012452
2596.000000	0.012469
2595.000000	0.012498
2594.000000	0.012518
2593.000000	0.012532
2592.000000	0.012539
2591.000000	0.012544
2590.000000	0.012568
2589.000000	0.012603
2588.000000	0.012586
2587.000000	0.012494
2586.000000	0.012404
2585.000000	0.012398
2584.000000	0.012454
2583.000000	0.012498
2582.000000	0.012515
2581.000000	0.012535
2580.000000	0.012565
2579.000000	0.012593
2578.000000	0.012641
2577.000000	0.012729
2576.000000	0.012804
2575.000000	0.012803
2574.000000	0.012741
2573.000000	0.012683
2572.000000	0.012654
2571.000000	0.012631
2570.000000	0.012601
2569.000000	0.012569
2568.000000	0.012541
2567.000000	0.012552
2566.000000	0.012652
2565.000000	0.012819
2564.000000	0.012943
2563.000000	0.012946
2562.000000	0.012877
2561.000000	0.012820
2560.000000	0.012780
2559.000000	0.012733
2558.000000	0.012707
2557.000000	0.012725
2556.000000	0.012735
2555.000000	0.012695
2554.000000	0.012668
2553.000000	0.012732
2552.000000	0.012845
2551.000000	0.012901
2550.000000	0.012882
2549.000000	0.012857
2548.000000	0.012855
2547.000000	0.012841
2546.000000	0.012801
2545.000000	0.012751
2544.000000	0.012694
2543.000000	0.012645
2542.000000	0.012661
2541.000000	0.012766
2540.000000	0.012885
2539.000000	0.012926
2538.000000	0.012895
2537.000000	0.012864
2536.000000	0.012854
2535.000000	0.012836
2534.000000	0.012795
2533.000000	0.012743
2532.000000	0.012675
2531.000000	0.012607
2530.000000	0.012595
2529.000000	0.012662
2528.000000	0.012738
2527.000000	0.012758
2526.000000	0.012752
2525.000000	0.012787
2524.000000	0.012858
2523.000000	0.012917
2522.000000	0.012954
2521.000000	0.012972
2520.000000	0.012941
2519.000000	0.012849
2518.000000	0.012762
2517.000000	0.012751
2516.000000	0.012791
2515.000000	0.012820
2514.000000	0.012843
2513.000000	0.012903
2512.000000	0.012986
2511.000000	0.013042
2510.000000	0.013058
2509.000000	0.013047
2508.000000	0.013001
2507.000000	0.012930
2506.000000	0.012891
2505.000000	0.012920
2504.000000	0.012960
2503.000000	0.012944
2502.000000	0.012886
2501.000000	0.012827
2500.000000	0.012766
2499.000000	0.012700
2498.000000	0.012688
2497.000000	0.012772
2496.000000	0.012898
2495.000000	0.012975
2494.000000	0.012985
2493.000000	0.012954
2492.000000	0.012875
2491.000000	0.012744
2490.000000	0.012619
2489.000000	0.012566
2488.000000	0.012576
2487.000000	0.012608
2486.000000	0.012663
2485.000000	0.012746
2484.000000	0.012814
2483.000000	0.012828
2482.000000	0.012821
2481.000000	0.012838
2480.000000	0.012867
2479.000000	0.012878
2478.000000	0.012884
2477.000000	0.012892
2476.000000	0.012865
2475.000000	0.012789
2474.000000	0.012724
2473.000000	0.012704
2472.000000	0.012677
2471.000000	0.012602
2470.000000	0.012535
2469.000000	0.012536
2468.000000	0.012565
2467.000000	0.012550
2466.000000	0.012502
2465.000000	0.012478
2464.000000	0.012491
2463.000000	0.012528
2462.000000	0.012592
2461.000000	0.012658
2460.000000	0.012649
2459.000000	0.012541
2458.000000	0.012417
2457.000000	0.012358
2456.000000	0.012340
2455.000000	0.012307
2454.000000	0.012268
2453.000000	0.012240
2452.000000	0.012185
2451.000000	0.012089
2450.000000	0.012031
2449.000000	0.012063
2448.000000	0.012111
2447.000000	0.012099
2446.000000	0.012083
2445.000000	0.012157
2444.000000	0.012286
2443.000000	0.012365
2442.000000	0.012384
2441.000000	0.012418
2440.000000	0.012496
2439.000000	0.012578
2438.000000	0.012630
2437.000000	0.012640
2436.000000	0.012590
2435.000000	0.012520
2434.000000	0.012527
2433.000000	0.012643
2432.000000	0.012771
2431.000000	0.012820
2430.000000	0.012839
2429.000000	0.012901
2428.000000	0.012966
2427.000000	0.012954
2426.000000	0.012890
2425.000000	0.012863
2424.000000	0.012881
2423.000000	0.012900
2422.000000	0.012924
2421.000000	0.012978
2420.000000	0.013022
2419.000000	0.012995
2418.000000	0.012922
2417.000000	0.012875
2416.000000	0.012868
2415.000000	0.012872
2414.000000	0.012882
2413.000000	0.012890
2412.000000	0.012853
2411.000000	0.012761
2410.000000	0.012700
2409.000000	0.012759
2408.000000	0.012916
2407.000000	0.013095
2406.000000	0.013270
2405.000000	0.013429
2404.000000	0.013520
2403.000000	0.013520
2402.000000	0.013497
2401.000000	0.013510
2400.000000	0.013521
2399.000000	0.013487
2398.000000	0.013457
2397.000000	0.013484
2396.000000	0.013509
2395.000000	0.013465
2394.000000	0.013406
2393.000000	0.013426
2392.000000	0.013501
2391.000000	0.013533
2390.000000	0.013511
2389.000000	0.013499
2388.000000	0.013515
2387.000000	0.013518
2386.000000	0.013511
2385.000000	0.013540
2384.000000	0.013597
2383.000000	0.013642
2382.000000	0.013681
2381.000000	0.013751
2380.000000	0.013822
2379.000000	0.013809
2378.000000	0.013688
2377.000000	0.013493
2376.000000	0.013252
2375.000000	0.013008
2374.000000	0.012867
2373.000000	0.012896
2372.000000	0.012992
2371.000000	0.013018
2370.000000	0.013004
2369.000000	0.013086
2368.000000	0.013240
2367.000000	0.013304
2366.000000	0.013249
2365.000000	0.013176
2364.000000	0.013065
2363.000000	0.012745
2362.000000	0.012270
2361.000000	0.011973
2360.000000	0.011918
2359.000000	0.011896
2358.000000	0.011827
2357.000000	0.011831
2356.000000	0.012100
2355.000000	0.012596
2354.000000	0.013194
2353.000000	0.013655
2352.000000	0.013243
2351.000000	0.011338
2350.000000	0.008348
2349.000000	0.005964
2348.000000	0.005870
2347.000000	0.008352
2346.000000	0.012031
2345.000000	0.014428
2344.000000	0.014190
2343.000000	0.012336
2342.000000	0.010791
2341.000000	0.010379
2340.000000	0.010392
2339.000000	0.010365
2338.000000	0.010296
2337.000000	0.010287
2336.000000	0.010292
2335.000000	0.010283
2334.000000	0.010466
2333.000000	0.010928
2332.000000	0.011546
2331.000000	0.011953
2330.000000	0.011949
2329.000000	0.011479
2328.000000	0.010738
2327.000000	0.009739
2326.000000	0.008839
2325.000000	0.008172
2324.000000	0.007995
2323.000000	0.008196
2322.000000	0.008579
2321.000000	0.008943
2320.000000	0.009135
2319.000000	0.009230
2318.000000	0.009301
2317.000000	0.009454
2316.000000	0.009766
2315.000000	0.010212
2314.000000	0.010701
2313.000000	0.010932
2312.000000	0.010840
2311.000000	0.010489
2310.000000	0.010205
2309.000000	0.010002
2308.000000	0.009868
2307.000000	0.009694
2306.000000	0.009607
2305.000000	0.009586
2304.000000	0.009620
2303.000000	0.009626
2302.000000	0.009666
2301.000000	0.009700
2300.000000	0.009691
2299.000000	0.009595
2298.000000	0.009521
2297.000000	0.009480
2296.000000	0.009460
2295.000000	0.009411
2294.000000	0.009393
2293.000000	0.009348
2292.000000	0.009208
2291.000000	0.008962
2290.000000	0.008757
2289.000000	0.008665
2288.000000	0.008619
2287.000000	0.008534
2286.000000	0.008432
2285.000000	0.008365
2284.000000	0.008350
2283.000000	0.008430
2282.000000	0.008648
2281.000000	0.008935
2280.000000	0.009140
2279.000000	0.009254
2278.000000	0.009402
2277.000000	0.009601
2276.000000	0.009704
2275.000000	0.009666
2274.000000	0.009632
2273.000000	0.009694
2272.000000	0.009775
2271.000000	0.009814
2270.000000	0.009884
2269.000000	0.009990
2268.000000	0.010017
2267.000000	0.009948
2266.000000	0.009933
2265.000000	0.010042
2264.000000	0.010152
2263.000000	0.010190
2262.000000	0.010240
2261.000000	0.010311
2260.000000	0.010264
2259.000000	0.010072
2258.000000	0.009923
2257.000000	0.009946
2256.000000	0.010054
2255.000000	0.010193
2254.000000	0.010437
2253.000000	0.010736
2252.000000	0.010848
2251.000000	0.010681
2250.000000	0.010449
2249.000000	0.010318
2248.000000	0.010199
2247.000000	0.010025
2246.000000	0.009956
2245.000000	0.010104
2244.000000	0.010308
2243.000000	0.010370
2242.000000	0.010296
2241.000000	0.010158
2240.000000	0.009960
2239.000000	0.009784
2238.000000	0.009799
2237.000000	0.009974
2236.000000	0.010056
2235.000000	0.009966
2234.000000	0.009934
2233.000000	0.010100
2232.000000	0.010301
2231.000000	0.010406
2230.000000	0.010524
2229.000000	0.010699
2228.000000	0.010756
2227.000000	0.010635
2226.000000	0.010547
2225.000000	0.010615
2224.000000	0.010681
2223.000000	0.010648
2222.000000	0.010666
2221.000000	0.010784
2220.000000	0.010788
2219.000000	0.010573
2218.000000	0.010355
2217.000000	0.010298
2216.000000	0.010284
2215.000000	0.010234
2214.000000	0.010280
2213.000000	0.010422
2212.000000	0.010414
2211.000000	0.010180
2210.000000	0.009956
2209.000000	0.009851
2208.000000	0.009671
2207.000000	0.009384
2206.000000	0.009311
2205.000000	0.009613
2204.000000	0.010013
2203.000000	0.010274
2202.000000	0.010497
2201.000000	0.010732
2200.000000	0.010739
2199.000000	0.010417
2198.000000	0.010025
2197.000000	0.009764
2196.000000	0.009516
2195.000000	0.009244
2194.000000	0.009169
2193.000000	0.009297
2192.000000	0.009289
2191.000000	0.009036
2190.000000	0.008909
2189.000000	0.009138
2188.000000	0.009438
2187.000000	0.009523
2186.000000	0.009491
2185.000000	0.009453
2184.000000	0.009336
2183.000000	0.009293
2182.000000	0.009692
2181.000000	0.010372
2180.000000	0.010609
2179.000000	0.010156
2178.000000	0.009660
2177.000000	0.009730
2176.000000	0.010196
2175.000000	0.010625
2174.000000	0.010912
2173.000000	0.010987
2172.000000	0.010599
2171.000000	0.009793
2170.000000	0.009031
2169.000000	0.008507
2168.000000	0.007882
2167.000000	0.007017
2166.000000	0.006335
2165.000000	0.006026
2164.000000	0.005580
2163.000000	0.004673
2162.000000	0.003929
2161.000000	0.004312
2160.000000	0.006216
2159.000000	0.009431
2158.000000	0.013252
2157.000000	0.016369
2156.000000	0.017710
2155.000000	0.017530
2154.000000	0.016936
2153.000000	0.016464
2152.000000	0.015832
2151.000000	0.014958
2150.000000	0.014314
2149.000000	0.014133
2148.000000	0.014084
2147.000000	0.014018
2146.000000	0.014250
2145.000000	0.014814
2144.000000	0.015194
2143.000000	0.015068
2142.000000	0.014697
2141.000000	0.014360
2140.000000	0.014015
2139.000000	0.013702
2138.000000	0.013721
2137.000000	0.014156
2136.000000	0.014736
2135.000000	0.015309
2134.000000	0.015940
2133.000000	0.016450
2132.000000	0.016450
2131.000000	0.015946
2130.000000	0.015381
2129.000000	0.015012
2128.000000	0.014660
2127.000000	0.014206
2126.000000	0.013821
2125.000000	0.013600
2124.000000	0.013377
2123.000000	0.013093
2122.000000	0.012915
2121.000000	0.012872
2120.000000	0.012739
2119.000000	0.012442
2118.000000	0.012179
2117.000000	0.012011
2116.000000	0.011729
2115.000000	0.011296
2114.000000	0.011003
2113.000000	0.010996
2112.000000	0.011047
2111.000000	0.010988
2110.000000	0.010989
2109.000000	0.011170
2108.000000	0.011338
2107.000000	0.011337
2106.000000	0.011312
2105.000000	0.011399
2104.000000	0.011478
2103.000000	0.011448
2102.000000	0.011388
2101.000000	0.011294
2100.000000	0.011022
2099.000000	0.010650
2098.000000	0.010553
2097.000000	0.010888
2096.000000	0.011371
2095.000000	0.011751
2094.000000	0.012055
2093.000000	0.012250
2092.000000	0.012118
2091.000000	0.011681
2090.000000	0.011298
2089.000000	0.011176
2088.000000	0.011119
2087.000000	0.010955
2086.000000	0.010788
2085.000000	0.010653
2084.000000	0.010358
2083.000000	0.009881
2082.000000	0.009514
2081.000000	0.009402
2080.000000	0.009331
2079.000000	0.009170
2078.000000	0.009117
2077.000000	0.009268
2076.000000	0.009388
2075.000000	0.009359
2074.000000	0.009355
2073.000000	0.009439
2072.000000	0.009409
2071.000000	0.009244
2070.000000	0.009244
2069.000000	0.009474
2068.000000	0.009591
2067.000000	0.009447
2066.000000	0.009346
2065.000000	0.009463
2064.000000	0.009529
2063.000000	0.009378
2062.000000	0.009247
2061.000000	0.009278
2060.000000	0.009270
2059.000000	0.009141
2058.000000	0.009079
2057.000000	0.009067
2056.000000	0.008814
2055.000000	0.008338
2054.000000	0.007915
2053.000000	0.007381
2052.000000	0.006270
2051.000000	0.004854
2050.000000	0.004261
2049.000000	0.005058
2048.000000	0.006371
2047.000000	0.007163
2046.000000	0.007465
2045.000000	0.007640
2044.000000	0.007549
2043.000000	0.007173
2042.000000	0.007101
2041.000000	0.007579
2040.000000	0.007916
2039.000000	0.007617
2038.000000	0.007173
2037.000000	0.007103
2036.000000	0.007158
2035.000000	0.007165
2034.000000	0.007623
2033.000000	0.008634
2032.000000	0.009339
2031.000000	0.009301
2030.000000	0.009211
2029.000000	0.009595
2028.000000	0.009924
2027.000000	0.009779
2026.000000	0.009663
2025.000000	0.009970
2024.000000	0.010258
2023.000000	0.010210
2022.000000	0.010277
2021.000000	0.010663
2020.000000	0.010791
2019.000000	0.010407
2018.000000	0.010127
2017.000000	0.010268
2016.000000	0.010247
2015.000000	0.009810
2014.000000	0.009582
2013.000000	0.009835
2012.000000	0.009917
2011.000000	0.009508
2010.000000	0.009302
2009.000000	0.009833
2008.000000	0.010655
2007.000000	0.011333
2006.000000	0.012050
2005.000000	0.012753
2004.000000	0.012925
2003.000000	0.012576
2002.000000	0.012425
2001.000000	0.012569
2000.000000	0.012305
1999.000000	0.011457
1998.000000	0.010710
1997.000000	0.010478
1996.000000	0.010344
1995.000000	0.010013
1994.000000	0.009825
1993.000000	0.009942
1992.000000	0.009899
1991.000000	0.009524
1990.000000	0.009346
1989.000000	0.009554
1988.000000	0.009578
1987.000000	0.009163
1986.000000	0.008834
1985.000000	0.008811
1984.000000	0.008495
1983.000000	0.007495
1982.000000	0.006341
1981.000000	0.005534
1980.000000	0.005037
1979.000000	0.005054
1978.000000	0.006199
1977.000000	0.008253
1976.000000	0.009889
1975.000000	0.010468
1974.000000	0.010675
1973.000000	0.011070
1972.000000	0.011293
1971.000000	0.011137
1970.000000	0.011102
1969.000000	0.011392
1968.000000	0.011474
1967.000000	0.011130
1966.000000	0.010926
1965.000000	0.011161
1964.000000	0.011372
1963.000000	0.011340
1962.000000	0.011561
1961.000000	0.012319
1960.000000	0.013180
1959.000000	0.013767
1958.000000	0.014185
1957.000000	0.014388
1956.000000	0.013995
1955.000000	0.013068
1954.000000	0.012208
1953.000000	0.011783
1952.000000	0.011539
1951.000000	0.011325
1950.000000	0.011463
1949.000000	0.011911
1948.000000	0.012100
1947.000000	0.011854
1946.000000	0.011659
1945.000000	0.011778
1944.000000	0.011853
1943.000000	0.011668
1942.000000	0.011532
1941.000000	0.011581
1940.000000	0.011586
1939.000000	0.011493
1938.000000	0.011561
1937.000000	0.011856
1936.000000	0.012081
1935.000000	0.012121
1934.000000	0.012171
1933.000000	0.012323
1932.000000	0.012285
1931.000000	0.012008
1930.000000	0.011943
1929.000000	0.012084
1928.000000	0.012067
1927.000000	0.011747
1926.000000	0.011559
1925.000000	0.011720
1924.000000	0.011730
1923.000000	0.011378
1922.000000	0.011088
1921.000000	0.011087
1920.000000	0.011029
1919.000000	0.010669
1918.000000	0.010425
1917.000000	0.010523
1916.000000	0.010610
1915.000000	0.010564
1914.000000	0.010585
1913.000000	0.010706
1912.000000	0.010664
1911.000000	0.010486
1910.000000	0.010596
1909.000000	0.010926
1908.000000	0.011080
1907.000000	0.010916
1906.000000	0.010816
1905.000000	0.010922
1904.000000	0.010770
1903.000000	0.010404
1902.000000	0.010401
1901.000000	0.010729
1900.000000	0.010832
1899.000000	0.010521
1898.000000	0.010266
1897.000000	0.010324
1896.000000	0.010274
1895.000000	0.009964
1894.000000	0.009828
1893.000000	0.010018
1892.000000	0.010129
1891.000000	0.009991
1890.000000	0.010011
1889.000000	0.010301
1888.000000	0.010407
1887.000000	0.010304
1886.000000	0.010388
1885.000000	0.010652
1884.000000	0.010625
1883.000000	0.010314
1882.000000	0.010240
1881.000000	0.010414
1880.000000	0.010416
1879.000000	0.010181
1878.000000	0.010059
1877.000000	0.010210
1876.000000	0.010244
1875.000000	0.009957
1874.000000	0.009775
1873.000000	0.009952
1872.000000	0.010087
1871.000000	0.009863
1870.000000	0.009669
1869.000000	0.009920
1868.000000	0.010172
1867.000000	0.010135
1866.000000	0.010241
1865.000000	0.010522
1864.000000	0.010484
1863.000000	0.010079
1862.000000	0.009877
1861.000000	0.010050
1860.000000	0.010111
1859.000000	0.009876
1858.000000	0.009781
1857.000000	0.009952
1856.000000	0.009972
1855.000000	0.009721
1854.000000	0.009725
1853.000000	0.009923
1852.000000	0.009955
1851.000000	0.009819
1850.000000	0.009685
1849.000000	0.009632
1848.000000	0.009572
1847.000000	0.009600
1846.000000	0.009771
1845.000000	0.009841
1844.000000	0.009619
1843.000000	0.009318
1842.000000	0.009493
1841.000000	0.010023
1840.000000	0.010269
1839.000000	0.009983
1838.000000	0.009740
1837.000000	0.009852
1836.000000	0.009850
1835.000000	0.009564
1834.000000	0.009388
1833.000000	0.009431
1832.000000	0.009516
1831.000000	0.009434
1830.000000	0.009331
1829.000000	0.009375
1828.000000	0.009452
1827.000000	0.009506
1826.000000	0.009495
1825.000000	0.009565
1824.000000	0.009623
1823.000000	0.009523
1822.000000	0.009495
1821.000000	0.009693
1820.000000	0.009997
1819.000000	0.010152
1818.000000	0.010399
1817.000000	0.010910
1816.000000	0.011080
1815.000000	0.010670
1814.000000	0.010135
1813.000000	0.010035
1812.000000	0.010162
1811.000000	0.009940
1810.000000	0.009711
1809.000000	0.009846
1808.000000	0.009864
1807.000000	0.009463
1806.000000	0.009098
1805.000000	0.009126
1804.000000	0.009043
1803.000000	0.008673
1802.000000	0.008406
1801.000000	0.008671
1800.000000	0.009051
1799.000000	0.009003
1798.000000	0.008872
1797.000000	0.008977
1796.000000	0.009004
1795.000000	0.008789
1794.000000	0.008440
1793.000000	0.008350
1792.000000	0.008450
1791.000000	0.008323
1790.000000	0.008329
1789.000000	0.008693
1788.000000	0.008890
1787.000000	0.008591
1786.000000	0.008254
1785.000000	0.008242
1784.000000	0.008106
1783.000000	0.007997
1782.000000	0.008032
1781.000000	0.008204
1780.000000	0.008388
1779.000000	0.008329
1778.000000	0.008238
1777.000000	0.008145
1776.000000	0.008147
1775.000000	0.008275
1774.000000	0.008014
1773.000000	0.007344
1772.000000	0.007133
1771.000000	0.007194
1770.000000	0.007362
1769.000000	0.007715
1768.000000	0.007790
1767.000000	0.007422
1766.000000	0.006970
1765.000000	0.006998
1764.000000	0.007239
1763.000000	0.007140
1762.000000	0.006615
1761.000000	0.006267
1760.000000	0.006319
1759.000000	0.006588
1758.000000	0.006731
1757.000000	0.006489
1756.000000	0.006286
1755.000000	0.006291
1754.000000	0.006301
1753.000000	0.006007
1752.000000	0.005750
1751.000000	0.005838
1750.000000	0.006260
1749.000000	0.006846
1748.000000	0.007344
1747.000000	0.007670
1746.000000	0.007501
1745.000000	0.007165
1744.000000	0.007135
1743.000000	0.007197
1742.000000	0.007064
1741.000000	0.006932
1740.000000	0.006728
1739.000000	0.006297
1738.000000	0.005998
1737.000000	0.006355
1736.000000	0.006585
1735.000000	0.005834
1734.000000	0.005440
1733.000000	0.005498
1732.000000	0.005939
1731.000000	0.006800
1730.000000	0.007475
1729.000000	0.007521
1728.000000	0.007196
1727.000000	0.006997
1726.000000	0.006803
1725.000000	0.006802
1724.000000	0.006875
1723.000000	0.006619
1722.000000	0.006412
1721.000000	0.006719
1720.000000	0.007010
1719.000000	0.006343
1718.000000	0.005781
1717.000000	0.006560
1716.000000	0.007360
1715.000000	0.007590
1714.000000	0.008072
1713.000000	0.008930
1712.000000	0.009391
1711.000000	0.009303
1710.000000	0.009325
1709.000000	0.009720
1708.000000	0.010305
1707.000000	0.010744
1706.000000	0.011315
1705.000000	0.012156
1704.000000	0.012730
1703.000000	0.013278
1702.000000	0.013504
1701.000000	0.013282
1700.000000	0.013651
1699.000000	0.013943
1698.000000	0.015620
1697.000000	0.018297
1696.000000	0.019581
1695.000000	0.019115
1694.000000	0.018919
1693.000000	0.020214
1692.000000	0.021789
1691.000000	0.022588
1690.000000	0.023156
1689.000000	0.023940
1688.000000	0.025165
1687.000000	0.026321
1686.000000	0.026495
1685.000000	0.026193
1684.000000	0.027270
1683.000000	0.028658
1682.000000	0.030085
1681.000000	0.031582
1680.000000	0.032729
1679.000000	0.033656
1678.000000	0.034562
1677.000000	0.035308
1676.000000	0.035924
1675.000000	0.037004
1674.000000	0.037992
1673.000000	0.039087
1672.000000	0.040612
1671.000000	0.042285
1670.000000	0.043989
1669.000000	0.045342
1668.000000	0.046255
1667.000000	0.047232
1666.000000	0.048329
1665.000000	0.049390
1664.000000	0.050192
1663.000000	0.051311
1662.000000	0.052722
1661.000000	0.053681
1660.000000	0.054599
1659.000000	0.055661
1658.000000	0.056425
1657.000000	0.056988
1656.000000	0.058150
1655.000000	0.058982
1654.000000	0.058730
1653.000000	0.059698
1652.000000	0.059002
1651.000000	0.058361
1650.000000	0.059709
1649.000000	0.061630
1648.000000	0.062876
1647.000000	0.063701
1646.000000	0.064015
1645.000000	0.063759
1644.000000	0.063602
1643.000000	0.063900
1642.000000	0.064334
1641.000000	0.064311
1640.000000	0.064159
1639.000000	0.064218
1638.000000	0.064579
1637.000000	0.064780
1636.000000	0.065152
1635.000000	0.065286
1634.000000	0.064707
1633.000000	0.064467
1632.000000	0.064473
1631.000000	0.064285
1630.000000	0.063891
1629.000000	0.063388
1628.000000	0.062667
1627.000000	0.061924
1626.000000	0.061203
1625.000000	0.060308
1624.000000	0.059178
1623.000000	0.058145
1622.000000	0.057109
1621.000000	0.055894
1620.000000	0.055006
1619.000000	0.054331
1618.000000	0.053142
1617.000000	0.051136
1616.000000	0.048987
1615.000000	0.047575
1614.000000	0.047072
1613.000000	0.046590
1612.000000	0.045459
1611.000000	0.044312
1610.000000	0.043618
1609.000000	0.042899
1608.000000	0.041876
1607.000000	0.041086
1606.000000	0.040476
1605.000000	0.039528
1604.000000	0.038556
1603.000000	0.037977
1602.000000	0.037547
1601.000000	0.036874
1600.000000	0.036133
1599.000000	0.035700
1598.000000	0.035412
1597.000000	0.034987
1596.000000	0.034550
1595.000000	0.034403
1594.000000	0.034432
1593.000000	0.034261
1592.000000	0.033927
1591.000000	0.033807
1590.000000	0.033926
1589.000000	0.033935
1588.000000	0.033835
1587.000000	0.033939
1586.000000	0.034331
1585.000000	0.034412
1584.000000	0.034337
1583.000000	0.034750
1582.000000	0.035321
1581.000000	0.035402
1580.000000	0.035469
1579.000000	0.036196
1578.000000	0.036931
1577.000000	0.036939
1576.000000	0.036757
1575.000000	0.036960
1574.000000	0.037523
1573.000000	0.038324
1572.000000	0.039064
1571.000000	0.039569
1570.000000	0.040282
1569.000000	0.040790
1568.000000	0.041203
1567.000000	0.042125
1566.000000	0.043269
1565.000000	0.043814
1564.000000	0.044231
1563.000000	0.045096
1562.000000	0.046129
1561.000000	0.045203
1560.000000	0.043218
1559.000000	0.045691
1558.000000	0.048300
1557.000000	0.048345
1556.000000	0.048973
1555.000000	0.050271
1554.000000	0.050848
1553.000000	0.050739
1552.000000	0.051222
1551.000000	0.052183
1550.000000	0.052991
1549.000000	0.053249
1548.000000	0.053218
1547.000000	0.053346
1546.000000	0.053475
1545.000000	0.053431
1544.000000	0.053572
1543.000000	0.053723
1542.000000	0.053711
1541.000000	0.054045
1540.000000	0.054836
1539.000000	0.054595
1538.000000	0.053432
1537.000000	0.053073
1536.000000	0.053378
1535.000000	0.053529
1534.000000	0.053284
1533.000000	0.053079
1532.000000	0.052742
1531.000000	0.052194
1530.000000	0.051781
1529.000000	0.051564
1528.000000	0.051244
1527.000000	0.050751
1526.000000	0.050151
1525.000000	0.049632
1524.000000	0.049417
1523.000000	0.049162
1522.000000	0.048674
1521.000000	0.047989
1520.000000	0.047051
1519.000000	0.046627
1518.000000	0.046789
1517.000000	0.047030
1516.000000	0.046745
1515.000000	0.045963
1514.000000	0.045147
1513.000000	0.044516
1512.000000	0.043761
1511.000000	0.042700
1510.000000	0.041775
1509.000000	0.041284
1508.000000	0.041088
1507.000000	0.041085
1506.000000	0.040202
1505.000000	0.038198
1504.000000	0.036976
1503.000000	0.036570
1502.000000	0.036045
1501.000000	0.035138
1500.000000	0.034163
1499.000000	0.033172
1498.000000	0.032207
1497.000000	0.031921
1496.000000	0.031852
1495.000000	0.031370
1494.000000	0.031042
1493.000000	0.031277
1492.000000	0.031428
1491.000000	0.031014
1490.000000	0.030677
1489.000000	0.030918
1488.000000	0.030935
1487.000000	0.030234
1486.000000	0.029648
1485.000000	0.029229
1484.000000	0.028831
1483.000000	0.028527
1482.000000	0.028392
1481.000000	0.028452
1480.000000	0.028404
1479.000000	0.028194
1478.000000	0.028061
1477.000000	0.028311
1476.000000	0.028602
1475.000000	0.028821
1474.000000	0.029309
1473.000000	0.030362
1472.000000	0.031477
1471.000000	0.031896
1470.000000	0.032135
1469.000000	0.032717
1468.000000	0.033230
1467.000000	0.033404
1466.000000	0.033593
1465.000000	0.034070
1464.000000	0.034715
1463.000000	0.035003
1462.000000	0.035111
1461.000000	0.035354
1460.000000	0.035748
1459.000000	0.035920
1458.000000	0.036024
1457.000000	0.036780
1456.000000	0.037393
1455.000000	0.037819
1454.000000	0.038602
1453.000000	0.039440
1452.000000	0.039995
1451.000000	0.040168
1450.000000	0.040155
1449.000000	0.040381
1448.000000	0.040643
1447.000000	0.040720
1446.000000	0.040391
1445.000000	0.039923
1444.000000	0.039863
1443.000000	0.039801
1442.000000	0.039310
1441.000000	0.038686
1440.000000	0.038536
1439.000000	0.038408
1438.000000	0.037676
1437.000000	0.036949
1436.000000	0.036877
1435.000000	0.036879
1434.000000	0.036743
1433.000000	0.036672
1432.000000	0.036675
1431.000000	0.036555
1430.000000	0.036164
1429.000000	0.035831
1428.000000	0.035565
1427.000000	0.035396
1426.000000	0.035163
1425.000000	0.034873
1424.000000	0.035076
1423.000000	0.035436
1422.000000	0.035316
1421.000000	0.034672
1420.000000	0.034178
1419.000000	0.034219
1418.000000	0.034254
1417.000000	0.034447
1416.000000	0.035078
1415.000000	0.035508
1414.000000	0.035234
1413.000000	0.034753
1412.000000	0.034802
1411.000000	0.035088
1410.000000	0.034964
1409.000000	0.034720
1408.000000	0.034708
1407.000000	0.034904
1406.000000	0.035093
1405.000000	0.035271
1404.000000	0.035646
1403.000000	0.035899
1402.000000	0.035789
1401.000000	0.035502
1400.000000	0.035422
1399.000000	0.035525
1398.000000	0.035456
1397.000000	0.035351
1396.000000	0.035392
1395.000000	0.035441
1394.000000	0.035030
1393.000000	0.034312
1392.000000	0.033960
1391.000000	0.033907
1390.000000	0.033620
1389.000000	0.033034
1388.000000	0.032512
1387.000000	0.032231
1386.000000	0.032016
1385.000000	0.031814
1384.000000	0.031769
1383.000000	0.031662
1382.000000	0.031307
1381.000000	0.030846
1380.000000	0.030437
1379.000000	0.030066
1378.000000	0.029628
1377.000000	0.029164
1376.000000	0.028835
1375.000000	0.028779
1374.000000	0.028740
1373.000000	0.028419
1372.000000	0.027882
1371.000000	0.027449
1370.000000	0.027145
1369.000000	0.026755
1368.000000	0.026296
1367.000000	0.025821
1366.000000	0.025319
1365.000000	0.024862
1364.000000	0.024597
1363.000000	0.024571
1362.000000	0.024585
1361.000000	0.024461
1360.000000	0.024285
1359.000000	0.024181
1358.000000	0.024107
1357.000000	0.024014
1356.000000	0.023965
1355.000000	0.024013
1354.000000	0.024091
1353.000000	0.024220
1352.000000	0.024357
1351.000000	0.024554
1350.000000	0.024817
1349.000000	0.025055
1348.000000	0.025322
1347.000000	0.025651
1346.000000	0.025980
1345.000000	0.026222
1344.000000	0.026395
1343.000000	0.026565
1342.000000	0.026778
1341.000000	0.027092
1340.000000	0.027561
1339.000000	0.028082
1338.000000	0.028413
1337.000000	0.028500
1336.000000	0.028479
1335.000000	0.028416
1334.000000	0.028281
1333.000000	0.028088
1332.000000	0.027913
1331.000000	0.027772
1330.000000	0.027578
1329.000000	0.027314
1328.000000	0.027064
1327.000000	0.026907
1326.000000	0.026781
1325.000000	0.026609
1324.000000	0.026459
1323.000000	0.026371
1322.000000	0.026269
1321.000000	0.026136
1320.000000	0.026088
1319.000000	0.026164
1318.000000	0.026222
1317.000000	0.026170
1316.000000	0.026074
1315.000000	0.025994
1314.000000	0.025890
1313.000000	0.025753
1312.000000	0.025638
1311.000000	0.025546
1310.000000	0.025389
1309.000000	0.025174
1308.000000	0.024995
1307.000000	0.024891
1306.000000	0.024787
1305.000000	0.024638
1304.000000	0.024516
1303.000000	0.024435
1302.000000	0.024315
1301.000000	0.024132
1300.000000	0.023970
1299.000000	0.023852
1298.000000	0.023722
1297.000000	0.023588
1296.000000	0.023542
1295.000000	0.023597
1294.000000	0.023645
1293.000000	0.023647
1292.000000	0.023682
1291.000000	0.023794
1290.000000	0.023945
1289.000000	0.024128
1288.000000	0.024373
1287.000000	0.024622
1286.000000	0.024767
1285.000000	0.024826
1284.000000	0.024922
1283.000000	0.025070
1282.000000	0.025180
1281.000000	0.025229
1280.000000	0.025293
1279.000000	0.025375
1278.000000	0.025382
1277.000000	0.025292
1276.000000	0.025190
1275.000000	0.025116
1274.000000	0.025025
1273.000000	0.024929
1272.000000	0.024911
1271.000000	0.024966
1270.000000	0.024986
1269.000000	0.024933
1268.000000	0.024898
1267.000000	0.024937
1266.000000	0.025016
1265.000000	0.025137
1264.000000	0.025362
1263.000000	0.025677
1262.000000	0.025999
1261.000000	0.026318
1260.000000	0.026689
1259.000000	0.027072
1258.000000	0.027340
1257.000000	0.027487
1256.000000	0.027637
1255.000000	0.027839
1254.000000	0.028024
1253.000000	0.028184
1252.000000	0.028398
1251.000000	0.028683
1250.000000	0.028956
1249.000000	0.029192
1248.000000	0.029464
1247.000000	0.029792
1246.000000	0.030092
1245.000000	0.030331
1244.000000	0.030559
1243.000000	0.030777
1242.000000	0.030921
1241.000000	0.030988
1240.000000	0.031033
1239.000000	0.031038
1238.000000	0.030928
1237.000000	0.030728
1236.000000	0.030545
1235.000000	0.030396
1234.000000	0.030184
1233.000000	0.029865
1232.000000	0.029496
1231.000000	0.029109
1230.000000	0.028679
1229.000000	0.028225
1228.000000	0.027805
1227.000000	0.027406
1226.000000	0.026963
1225.000000	0.026490
1224.000000	0.026051
1223.000000	0.025604
1222.000000	0.025030
1221.000000	0.024305
1220.000000	0.023538
1219.000000	0.022845
1218.000000	0.022290
1217.000000	0.021945
1216.000000	0.021838
1215.000000	0.021865
1214.000000	0.021878
1213.000000	0.021857
1212.000000	0.021885
1211.000000	0.021955
1210.000000	0.021985
1209.000000	0.021981
1208.000000	0.022032
1207.000000	0.022140
1206.000000	0.022221
1205.000000	0.022256
1204.000000	0.022305
1203.000000	0.022363
1202.000000	0.022359
1201.000000	0.022290
1200.000000	0.022219
1199.000000	0.022140
1198.000000	0.021977
1197.000000	0.021728
1196.000000	0.021465
1195.000000	0.021202
1194.000000	0.020895
1193.000000	0.020567
1192.000000	0.020301
1191.000000	0.020089
1190.000000	0.019842
1189.000000	0.019549
1188.000000	0.019288
1187.000000	0.019080
1186.000000	0.018845
1185.000000	0.018538
1184.000000	0.018214
1183.000000	0.017958
1182.000000	0.017849
1181.000000	0.017953
1180.000000	0.018237
1179.000000	0.018511
1178.000000	0.018596
1177.000000	0.018519
1176.000000	0.018435
1175.000000	0.018414
1174.000000	0.018414
1173.000000	0.018432
1172.000000	0.018516
1171.000000	0.018648
1170.000000	0.018757
1169.000000	0.018855
1168.000000	0.019025
1167.000000	0.019280
1166.000000	0.019561
1165.000000	0.019848
1164.000000	0.020162
1163.000000	0.020455
1162.000000	0.020654
1161.000000	0.020792
1160.000000	0.020960
1159.000000	0.021148
1158.000000	0.021255
1157.000000	0.021249
1156.000000	0.021188
1155.000000	0.021098
1154.000000	0.020961
1153.000000	0.020813
1152.000000	0.020721
1151.000000	0.020664
1150.000000	0.020566
1149.000000	0.020420
1148.000000	0.020278
1147.000000	0.020126
1146.000000	0.019904
1145.000000	0.019630
1144.000000	0.019383
1143.000000	0.019170
1142.000000	0.018931
1141.000000	0.018672
1140.000000	0.018453
1139.000000	0.018270
1138.000000	0.018067
1137.000000	0.017858
1136.000000	0.017710
1135.000000	0.017620
1134.000000	0.017520
1133.000000	0.017407
1132.000000	0.017336
1131.000000	0.017316
1130.000000	0.017309
1129.000000	0.017329
1128.000000	0.017419
1127.000000	0.017548
1126.000000	0.017640
1125.000000	0.017687
1124.000000	0.017730
1123.000000	0.017766
1122.000000	0.017773
1121.000000	0.017801
1120.000000	0.017914
1119.000000	0.018062
1118.000000	0.018143
1117.000000	0.018159
1116.000000	0.018201
1115.000000	0.018292
1114.000000	0.018385
1113.000000	0.018468
1112.000000	0.018568
1111.000000	0.018670
1110.000000	0.018747
1109.000000	0.018851
1108.000000	0.019044
1107.000000	0.019269
1106.000000	0.019422
1105.000000	0.019515
1104.000000	0.019629
1103.000000	0.019769
1102.000000	0.019879
1101.000000	0.019969
1100.000000	0.020093
1099.000000	0.020221
1098.000000	0.020294
1097.000000	0.020349
1096.000000	0.020469
1095.000000	0.020652
1094.000000	0.020841
1093.000000	0.021053
1092.000000	0.021338
1091.000000	0.021675
1090.000000	0.022022
1089.000000	0.022435
1088.000000	0.022975
1087.000000	0.023571
1086.000000	0.024085
1085.000000	0.024502
1084.000000	0.024894
1083.000000	0.025271
1082.000000	0.025582
1081.000000	0.025824
1080.000000	0.026010
1079.000000	0.026077
1078.000000	0.025973
1077.000000	0.025766
1076.000000	0.025543
1075.000000	0.025258
1074.000000	0.024824
1073.000000	0.024310
1072.000000	0.023873
1071.000000	0.023564
1070.000000	0.023326
1069.000000	0.023145
1068.000000	0.023058
1067.000000	0.023039
1066.000000	0.023034
1065.000000	0.023078
1064.000000	0.023232
1063.000000	0.023450
1062.000000	0.023620
1061.000000	0.023716
1060.000000	0.023787
1059.000000	0.023824
1058.000000	0.023778
1057.000000	0.023678
1056.000000	0.023603
1055.000000	0.023574
1054.000000	0.023589
1053.000000	0.023706
1052.000000	0.023979
1051.000000	0.024356
1050.000000	0.024744
1049.000000	0.025135
1048.000000	0.025522
1047.000000	0.025777
1046.000000	0.025799
1045.000000	0.025685
1044.000000	0.025621
1043.000000	0.025659
1042.000000	0.025722
1041.000000	0.025785
1040.000000	0.025894
1039.000000	0.026049
1038.000000	0.026221
1037.000000	0.026441
1036.000000	0.026751
1035.000000	0.027100
1034.000000	0.027404
1033.000000	0.027678
1032.000000	0.027978
1031.000000	0.028259
1030.000000	0.028429
1029.000000	0.028500
1028.000000	0.028549
1027.000000	0.028587
1026.000000	0.028581
1025.000000	0.028563
1024.000000	0.028588
1023.000000	0.028621
1022.000000	0.028592
1021.000000	0.028531
1020.000000	0.028509
1019.000000	0.028509
1018.000000	0.028464
1017.000000	0.028368
1016.000000	0.028246
1015.000000	0.028052
1014.000000	0.027730
1013.000000	0.027334
1012.000000	0.026962
1011.000000	0.026613
1010.000000	0.026231
1009.000000	0.025831
1008.000000	0.025472
1007.000000	0.025147
1006.000000	0.024800
1005.000000	0.024434
1004.000000	0.024090
1003.000000	0.023764
1002.000000	0.023431
1001.000000	0.023119
1000.000000	0.022853
999.000000	0.022588
998.000000	0.022281
997.000000	0.021980
996.000000	0.021739
995.000000	0.021506
994.000000	0.021204
993.000000	0.020853
992.000000	0.020520
991.000000	0.020190
990.000000	0.019816
989.000000	0.019432
988.000000	0.019105
987.000000	0.018809
986.000000	0.018475
985.000000	0.018112
984.000000	0.017777
983.000000	0.017463
982.000000	0.017135
981.000000	0.016829
980.000000	0.016593
979.000000	0.016386
978.000000	0.016134
977.000000	0.015856
976.000000	0.015619
975.000000	0.015416
974.000000	0.015193
973.000000	0.014956
972.000000	0.014747
971.000000	0.014535
970.000000	0.014265
969.000000	0.013956
968.000000	0.013656
967.000000	0.013337
966.000000	0.012961
965.000000	0.012588
964.000000	0.012309
963.000000	0.012107
962.000000	0.011901
961.000000	0.011689
960.000000	0.011531
959.000000	0.011414
958.000000	0.011264
957.000000	0.011052
956.000000	0.010800
955.000000	0.010513
954.000000	0.010208
953.000000	0.009970
952.000000	0.009865
951.000000	0.009834
950.000000	0.009776
949.000000	0.009694
948.000000	0.009656
947.000000	0.009653
946.000000	0.009627
945.000000	0.009586
944.000000	0.009581
943.000000	0.009601
942.000000	0.009600
941.000000	0.009602
940.000000	0.009652
939.000000	0.009717
938.000000	0.009727
937.000000	0.009689
936.000000	0.009654
935.000000	0.009609
934.000000	0.009524
933.000000	0.009446
932.000000	0.009434
931.000000	0.009441
930.000000	0.009383
929.000000	0.009278
928.000000	0.009207
927.000000	0.009174
926.000000	0.009116
925.000000	0.009030
924.000000	0.008970
923.000000	0.008941
922.000000	0.008894
921.000000	0.008817
920.000000	0.008722
919.000000	0.008578
918.000000	0.008358
917.000000	0.008126
916.000000	0.007964
915.000000	0.007860
914.000000	0.007746
913.000000	0.007617
912.000000	0.007518
911.000000	0.007442
910.000000	0.007346
909.000000	0.007235
908.000000	0.007145
907.000000	0.007076
906.000000	0.007024
905.000000	0.007023
904.000000	0.007077
903.000000	0.007107
902.000000	0.007050
901.000000	0.006959
900.000000	0.006907
899.000000	0.006860
898.000000	0.006748
897.000000	0.006588
896.000000	0.006449
895.000000	0.006345
894.000000	0.006254
893.000000	0.006199
892.000000	0.006192
891.000000	0.006175
890.000000	0.006096
889.000000	0.006011
888.000000	0.005998
887.000000	0.006051
886.000000	0.006125
885.000000	0.006234
884.000000	0.006408
883.000000	0.006623
882.000000	0.006874
881.000000	0.007229
880.000000	0.007717
879.000000	0.008238
878.000000	0.008688
877.000000	0.009060
876.000000	0.009343
875.000000	0.009416
874.000000	0.009215
873.000000	0.008870
872.000000	0.008563
871.000000	0.008324
870.000000	0.008088
869.000000	0.007869
868.000000	0.007726
867.000000	0.007633
866.000000	0.007527
865.000000	0.007420
864.000000	0.007350
863.000000	0.007291
862.000000	0.007221
861.000000	0.007205
860.000000	0.007293
859.000000	0.007399
858.000000	0.007408
857.000000	0.007337
856.000000	0.007266
855.000000	0.007201
854.000000	0.007120
853.000000	0.007074
852.000000	0.007115
851.000000	0.007184
850.000000	0.007204
849.000000	0.007212
848.000000	0.007268
847.000000	0.007317
846.000000	0.007265
845.000000	0.007141
844.000000	0.007037
843.000000	0.006962
842.000000	0.006866
841.000000	0.006772
840.000000	0.006743
839.000000	0.006762
838.000000	0.006750
837.000000	0.006687
836.000000	0.006595
835.000000	0.006470
834.000000	0.006302
833.000000	0.006137
832.000000	0.006025
831.000000	0.005958
830.000000	0.005924
829.000000	0.005945
828.000000	0.006010
827.000000	0.006046
826.000000	0.006056
825.000000	0.006156
824.000000	0.006398
823.000000	0.006656
822.000000	0.006800
821.000000	0.006875
820.000000	0.006970
819.000000	0.007050
818.000000	0.007040
817.000000	0.006954
816.000000	0.006843
815.000000	0.006697
814.000000	0.006526
813.000000	0.006430
812.000000	0.006478
811.000000	0.006598
810.000000	0.006679
809.000000	0.006703
808.000000	0.006680
807.000000	0.006578
806.000000	0.006420
805.000000	0.006340
804.000000	0.006403
803.000000	0.006506
802.000000	0.006543
801.000000	0.006565
800.000000	0.006645
799.000000	0.006719
798.000000	0.006710
797.000000	0.006677
796.000000	0.006709
795.000000	0.006769
794.000000	0.006784
793.000000	0.006802
792.000000	0.006904
791.000000	0.007053
790.000000	0.007165
789.000000	0.007239
788.000000	0.007309
787.000000	0.007327
786.000000	0.007249
785.000000	0.007151
784.000000	0.007143
783.000000	0.007228
782.000000	0.007335
781.000000	0.007433
780.000000	0.007509
779.000000	0.007510
778.000000	0.007422
777.000000	0.007331
776.000000	0.007319
775.000000	0.007361
774.000000	0.007390
773.000000	0.007407
772.000000	0.007437
771.000000	0.007463
770.000000	0.007494
769.000000	0.007592
768.000000	0.007766
767.000000	0.007920
766.000000	0.007995
765.000000	0.008049
764.000000	0.008135
763.000000	0.008193
762.000000	0.008158
761.000000	0.008081
760.000000	0.008037
759.000000	0.008019
758.000000	0.008006
757.000000	0.008035
756.000000	0.008115
755.000000	0.008163
754.000000	0.008126
753.000000	0.008072
752.000000	0.008077
751.000000	0.008110
750.000000	0.008114
749.000000	0.008117
748.000000	0.008164
747.000000	0.008233
746.000000	0.008305
745.000000	0.008408
744.000000	0.008538
743.000000	0.008604
742.000000	0.008554
741.000000	0.008451
740.000000	0.008374
739.000000	0.008338
738.000000	0.008357
737.000000	0.008473
736.000000	0.008661
735.000000	0.008819
734.000000	0.008913
733.000000	0.009020
732.000000	0.009180
731.000000	0.009316
730.000000	0.009376
729.000000	0.009426
728.000000	0.009536
727.000000	0.009683
726.000000	0.009841
725.000000	0.010067
724.000000	0.010405
723.000000	0.010782
722.000000	0.011094
721.000000	0.011282
720.000000	0.011316
719.000000	0.011215
718.000000	0.011123
717.000000	0.011227
716.000000	0.011538
715.000000	0.011882
714.000000	0.012124
713.000000	0.012281
712.000000	0.012378
711.000000	0.012372
710.000000	0.012284
709.000000	0.012238
708.000000	0.012294
707.000000	0.012382
706.000000	0.012449
705.000000	0.012559
704.000000	0.012743
703.000000	0.012910
702.000000	0.013004
701.000000	0.013078
700.000000	0.013155
699.000000	0.013173
698.000000	0.013123
697.000000	0.013088
696.000000	0.013096
695.000000	0.013064
694.000000	0.012988
693.000000	0.012942
692.000000	0.012904
691.000000	0.012788
690.000000	0.012648
689.000000	0.012693
688.000000	0.012982
687.000000	0.013328
686.000000	0.013587
685.000000	0.013762
684.000000	0.013837
683.000000	0.013769
682.000000	0.013636
681.000000	0.013599
680.000000	0.013679
679.000000	0.013763
678.000000	0.013827
677.000000	0.013894
676.000000	0.013950
675.000000	0.014018
674.000000	0.014175
673.000000	0.014413
672.000000	0.014455
671.000000	0.014107
670.000000	0.013724
669.000000	0.013996
668.000000	0.013987
667.000000	0.013602
666.000000	0.014226
665.000000	0.014788
664.000000	0.014804
663.000000	0.014819
662.000000	0.014842
661.000000	0.014776
660.000000	0.014739
659.000000	0.014819
658.000000	0.014894
657.000000	0.014889
656.000000	0.014887
655.000000	0.014899
654.000000	0.014776
653.000000	0.014566
652.000000	0.014484
651.000000	0.014554
650.000000	0.014626
649.000000	0.014688
648.000000	0.014830
647.000000	0.014965
646.000000	0.014940
645.000000	0.014846
644.000000	0.014854
643.000000	0.014905
642.000000	0.014841
641.000000	0.014702
640.000000	0.014654
639.000000	0.014683
638.000000	0.014661
637.000000	0.014612
636.000000	0.014641
635.000000	0.014692
634.000000	0.014672
633.000000	0.014666
632.000000	0.014746
631.000000	0.014768
630.000000	0.014635
629.000000	0.014555
628.000000	0.014741
627.000000	0.015023
626.000000	0.015111
625.000000	0.015060
624.000000	0.015097
623.000000	0.015197
622.000000	0.015192
621.000000	0.015145
620.000000	0.015233
619.000000	0.015374
618.000000	0.015371
617.000000	0.015303
616.000000	0.015379
615.000000	0.015518
614.000000	0.015478
613.000000	0.015310
612.000000	0.015269
611.000000	0.015362
610.000000	0.015361
609.000000	0.015213
608.000000	0.015099
607.000000	0.015115
606.000000	0.015201
605.000000	0.015353
604.000000	0.015572
603.000000	0.015683
602.000000	0.015530
601.000000	0.015246
600.000000	0.015096
599.000000	0.015124
598.000000	0.015181
597.000000	0.015243
596.000000	0.015406
595.000000	0.015635
594.000000	0.015792
593.000000	0.015839
592.000000	0.015817
591.000000	0.015695
590.000000	0.015493
589.000000	0.015398
588.000000	0.015534
587.000000	0.015717
586.000000	0.015720
585.000000	0.015631
584.000000	0.015675
583.000000	0.015827
582.000000	0.015882
581.000000	0.015833
580.000000	0.015837
579.000000	0.015921
578.000000	0.016018
577.000000	0.016216
576.000000	0.016608
575.000000	0.016995
574.000000	0.017090
573.000000	0.016949
572.000000	0.016848
571.000000	0.016880
570.000000	0.016957
569.000000	0.017070
568.000000	0.017223
567.000000	0.017224
566.000000	0.016950
565.000000	0.016654
564.000000	0.016680
563.000000	0.016942
562.000000	0.017058
561.000000	0.016911
560.000000	0.016694
559.000000	0.016518
558.000000	0.016361
557.000000	0.016293
556.000000	0.016369
555.000000	0.016408
554.000000	0.016249
553.000000	0.016092
552.000000	0.016225
551.000000	0.016525
550.000000	0.016596
549.000000	0.016313
548.000000	0.015887
547.000000	0.015509
546.000000	0.015303
545.000000	0.015416
544.000000	0.015830
543.000000	0.016164
542.000000	0.016047
541.000000	0.015592
540.000000	0.015193
539.000000	0.014980
538.000000	0.014847
537.000000	0.014834
536.000000	0.015101
535.000000	0.015575
534.000000	0.016037
533.000000	0.016449
532.000000	0.016797
531.000000	0.016877
530.000000	0.016526
529.000000	0.015953
528.000000	0.015495
527.000000	0.015258
526.000000	0.015163
525.000000	0.015203
524.000000	0.015375
523.000000	0.015459
522.000000	0.015307
521.000000	0.015108
520.000000	0.015042
519.000000	0.014925
518.000000	0.014535
517.000000	0.014076
516.000000	0.013888
515.000000	0.013932
514.000000	0.013987
513.000000	0.014012
512.000000	0.013989
511.000000	0.013696
510.000000	0.013061
509.000000	0.012393
508.000000	0.011931
507.000000	0.011535
506.000000	0.011022
505.000000	0.010632
504.000000	0.010647
503.000000	0.010927
502.000000	0.011121
501.000000	0.011162
500.000000	0.011181
499.000000	0.011109
498.000000	0.010835
497.000000	0.010539
496.000000	0.010454
495.000000	0.010514
494.000000	0.010554
493.000000	0.010581
492.000000	0.010637
491.000000	0.010576
490.000000	0.010285
489.000000	0.009963
488.000000	0.009788
487.000000	0.009638
486.000000	0.009338
485.000000	0.009019
484.000000	0.008914
483.000000	0.009007
482.000000	0.009157
481.000000	0.009308
480.000000	0.009409
479.000000	0.009307
478.000000	0.009005
477.000000	0.008820
476.000000	0.008907
475.000000	0.008938
474.000000	0.008688
473.000000	0.008540
472.000000	0.008896
471.000000	0.009436
470.000000	0.009591
469.000000	0.009458
468.000000	0.009440
467.000000	0.009401
466.000000	0.008955
465.000000	0.008308
464.000000	0.007999
463.000000	0.008083
462.000000	0.008139
461.000000	0.007928
460.000000	0.007537
459.000000	0.006976
458.000000	0.006286
457.000000	0.005878
456.000000	0.005986
455.000000	0.006207
454.000000	0.006204
453.000000	0.006169
452.000000	0.006428
451.000000	0.006582
450.000000	0.006254
