PE IR       SUBTECH     SPECTRUM    ASCII       PEDS        4.00        
   -1
3C-N10-F002_1.ASC
22/02/16
15:18:25.00
22/02/16
15:56:00.00
uco
Sample 002 By uco Date Wednesday, February 16 2022
450.000000
#HDR
-1
-1
#GR
cm-1
A
1.0
0.0
4000.000000
-1.000000
3551
8
0.021952
0.001636
#DATA
4000.000000	0.001788
3999.000000	0.001798
3998.000000	0.001808
3997.000000	0.001818
3996.000000	0.001829
3995.000000	0.001838
3994.000000	0.001843
3993.000000	0.001842
3992.000000	0.001840
3991.000000	0.001838
3990.000000	0.001837
3989.000000	0.001836
3988.000000	0.001835
3987.000000	0.001835
3986.000000	0.001837
3985.000000	0.001838
3984.000000	0.001836
3983.000000	0.001826
3982.000000	0.001809
3981.000000	0.001791
3980.000000	0.001777
3979.000000	0.001774
3978.000000	0.001781
3977.000000	0.001793
3976.000000	0.001806
3975.000000	0.001816
3974.000000	0.001823
3973.000000	0.001827
3972.000000	0.001828
3971.000000	0.001830
3970.000000	0.001836
3969.000000	0.001848
3968.000000	0.001861
3967.000000	0.001867
3966.000000	0.001863
3965.000000	0.001852
3964.000000	0.001845
3963.000000	0.001848
3962.000000	0.001857
3961.000000	0.001866
3960.000000	0.001868
3959.000000	0.001863
3958.000000	0.001858
3957.000000	0.001859
3956.000000	0.001872
3955.000000	0.001895
3954.000000	0.001924
3953.000000	0.001950
3952.000000	0.001963
3951.000000	0.001958
3950.000000	0.001935
3949.000000	0.001906
3948.000000	0.001882
3947.000000	0.001872
3946.000000	0.001875
3945.000000	0.001884
3944.000000	0.001897
3943.000000	0.001909
3942.000000	0.001919
3941.000000	0.001928
3940.000000	0.001935
3939.000000	0.001942
3938.000000	0.001946
3937.000000	0.001950
3936.000000	0.001957
3935.000000	0.001967
3934.000000	0.001971
3933.000000	0.001959
3932.000000	0.001928
3931.000000	0.001886
3930.000000	0.001849
3929.000000	0.001827
3928.000000	0.001822
3927.000000	0.001833
3926.000000	0.001857
3925.000000	0.001890
3924.000000	0.001923
3923.000000	0.001948
3922.000000	0.001963
3921.000000	0.001968
3920.000000	0.001967
3919.000000	0.001967
3918.000000	0.001969
3917.000000	0.001965
3916.000000	0.001945
3915.000000	0.001915
3914.000000	0.001886
3913.000000	0.001869
3912.000000	0.001864
3911.000000	0.001863
3910.000000	0.001863
3909.000000	0.001862
3908.000000	0.001862
3907.000000	0.001860
3906.000000	0.001858
3905.000000	0.001860
3904.000000	0.001871
3903.000000	0.001889
3902.000000	0.001904
3901.000000	0.001913
3900.000000	0.001921
3899.000000	0.001936
3898.000000	0.001962
3897.000000	0.001992
3896.000000	0.002015
3895.000000	0.002024
3894.000000	0.002020
3893.000000	0.002007
3892.000000	0.001993
3891.000000	0.001983
3890.000000	0.001980
3889.000000	0.001982
3888.000000	0.001979
3887.000000	0.001959
3886.000000	0.001924
3885.000000	0.001896
3884.000000	0.001894
3883.000000	0.001923
3882.000000	0.001965
3881.000000	0.001995
3880.000000	0.002004
3879.000000	0.002000
3878.000000	0.001995
3877.000000	0.001990
3876.000000	0.001976
3875.000000	0.001951
3874.000000	0.001926
3873.000000	0.001913
3872.000000	0.001920
3871.000000	0.001947
3870.000000	0.001980
3869.000000	0.002011
3868.000000	0.002034
3867.000000	0.002052
3866.000000	0.002057
3865.000000	0.002042
3864.000000	0.002015
3863.000000	0.001996
3862.000000	0.001997
3861.000000	0.002016
3860.000000	0.002043
3859.000000	0.002066
3858.000000	0.002079
3857.000000	0.002081
3856.000000	0.002076
3855.000000	0.002075
3854.000000	0.002086
3853.000000	0.002114
3852.000000	0.002140
3851.000000	0.002143
3850.000000	0.002117
3849.000000	0.002070
3848.000000	0.002022
3847.000000	0.001992
3846.000000	0.001982
3845.000000	0.001977
3844.000000	0.001963
3843.000000	0.001938
3842.000000	0.001908
3841.000000	0.001888
3840.000000	0.001887
3839.000000	0.001908
3838.000000	0.001946
3837.000000	0.001989
3836.000000	0.002028
3835.000000	0.002054
3834.000000	0.002068
3833.000000	0.002077
3832.000000	0.002083
3831.000000	0.002081
3830.000000	0.002061
3829.000000	0.002020
3828.000000	0.001967
3827.000000	0.001921
3826.000000	0.001901
3825.000000	0.001913
3824.000000	0.001953
3823.000000	0.002008
3822.000000	0.002058
3821.000000	0.002091
3820.000000	0.002107
3819.000000	0.002115
3818.000000	0.002117
3817.000000	0.002105
3816.000000	0.002076
3815.000000	0.002036
3814.000000	0.001991
3813.000000	0.001944
3812.000000	0.001894
3811.000000	0.001853
3810.000000	0.001837
3809.000000	0.001847
3808.000000	0.001865
3807.000000	0.001875
3806.000000	0.001883
3805.000000	0.001906
3804.000000	0.001951
3803.000000	0.002001
3802.000000	0.002033
3801.000000	0.002035
3800.000000	0.002021
3799.000000	0.002006
3798.000000	0.001991
3797.000000	0.001966
3796.000000	0.001935
3795.000000	0.001910
3794.000000	0.001893
3793.000000	0.001875
3792.000000	0.001853
3791.000000	0.001834
3790.000000	0.001832
3789.000000	0.001845
3788.000000	0.001862
3787.000000	0.001869
3786.000000	0.001865
3785.000000	0.001858
3784.000000	0.001857
3783.000000	0.001864
3782.000000	0.001877
3781.000000	0.001885
3780.000000	0.001882
3779.000000	0.001876
3778.000000	0.001877
3777.000000	0.001888
3776.000000	0.001898
3775.000000	0.001894
3774.000000	0.001876
3773.000000	0.001856
3772.000000	0.001848
3771.000000	0.001859
3770.000000	0.001885
3769.000000	0.001920
3768.000000	0.001950
3767.000000	0.001963
3766.000000	0.001951
3765.000000	0.001920
3764.000000	0.001889
3763.000000	0.001871
3762.000000	0.001865
3761.000000	0.001862
3760.000000	0.001861
3759.000000	0.001872
3758.000000	0.001898
3757.000000	0.001931
3756.000000	0.001960
3755.000000	0.001980
3754.000000	0.001997
3753.000000	0.002008
3752.000000	0.002005
3751.000000	0.001991
3750.000000	0.001981
3749.000000	0.001984
3748.000000	0.001994
3747.000000	0.002003
3746.000000	0.002012
3745.000000	0.002024
3744.000000	0.002038
3743.000000	0.002052
3742.000000	0.002059
3741.000000	0.002054
3740.000000	0.002039
3739.000000	0.002034
3738.000000	0.002053
3737.000000	0.002081
3736.000000	0.002089
3735.000000	0.002068
3734.000000	0.002035
3733.000000	0.002012
3732.000000	0.002002
3731.000000	0.001992
3730.000000	0.001969
3729.000000	0.001932
3728.000000	0.001885
3727.000000	0.001840
3726.000000	0.001816
3725.000000	0.001819
3724.000000	0.001843
3723.000000	0.001869
3722.000000	0.001879
3721.000000	0.001873
3720.000000	0.001861
3719.000000	0.001854
3718.000000	0.001855
3717.000000	0.001862
3716.000000	0.001873
3715.000000	0.001884
3714.000000	0.001896
3713.000000	0.001909
3712.000000	0.001926
3711.000000	0.001949
3710.000000	0.001970
3709.000000	0.001981
3708.000000	0.001978
3707.000000	0.001962
3706.000000	0.001942
3705.000000	0.001924
3704.000000	0.001906
3703.000000	0.001880
3702.000000	0.001843
3701.000000	0.001803
3700.000000	0.001778
3699.000000	0.001773
3698.000000	0.001783
3697.000000	0.001796
3696.000000	0.001799
3695.000000	0.001793
3694.000000	0.001782
3693.000000	0.001775
3692.000000	0.001784
3691.000000	0.001819
3690.000000	0.001881
3689.000000	0.001946
3688.000000	0.001984
3687.000000	0.001983
3686.000000	0.001954
3685.000000	0.001920
3684.000000	0.001896
3683.000000	0.001889
3682.000000	0.001891
3681.000000	0.001891
3680.000000	0.001890
3679.000000	0.001895
3678.000000	0.001915
3677.000000	0.001939
3676.000000	0.001949
3675.000000	0.001945
3674.000000	0.001951
3673.000000	0.001975
3672.000000	0.001999
3671.000000	0.001999
3670.000000	0.001971
3669.000000	0.001942
3668.000000	0.001933
3667.000000	0.001938
3666.000000	0.001942
3665.000000	0.001940
3664.000000	0.001941
3663.000000	0.001947
3662.000000	0.001953
3661.000000	0.001946
3660.000000	0.001923
3659.000000	0.001892
3658.000000	0.001869
3657.000000	0.001871
3656.000000	0.001903
3655.000000	0.001957
3654.000000	0.002014
3653.000000	0.002060
3652.000000	0.002088
3651.000000	0.002101
3650.000000	0.002112
3649.000000	0.002140
3648.000000	0.002194
3647.000000	0.002263
3646.000000	0.002325
3645.000000	0.002358
3644.000000	0.002353
3643.000000	0.002313
3642.000000	0.002258
3641.000000	0.002208
3640.000000	0.002179
3639.000000	0.002168
3638.000000	0.002156
3637.000000	0.002134
3636.000000	0.002110
3635.000000	0.002105
3634.000000	0.002130
3633.000000	0.002178
3632.000000	0.002233
3631.000000	0.002280
3630.000000	0.002313
3629.000000	0.002339
3628.000000	0.002365
3627.000000	0.002392
3626.000000	0.002412
3625.000000	0.002420
3624.000000	0.002418
3623.000000	0.002420
3622.000000	0.002429
3621.000000	0.002434
3620.000000	0.002425
3619.000000	0.002409
3618.000000	0.002408
3617.000000	0.002436
3616.000000	0.002487
3615.000000	0.002541
3614.000000	0.002579
3613.000000	0.002598
3612.000000	0.002607
3611.000000	0.002613
3610.000000	0.002619
3609.000000	0.002623
3608.000000	0.002628
3607.000000	0.002642
3606.000000	0.002661
3605.000000	0.002678
3604.000000	0.002687
3603.000000	0.002693
3602.000000	0.002703
3601.000000	0.002721
3600.000000	0.002744
3599.000000	0.002772
3598.000000	0.002803
3597.000000	0.002836
3596.000000	0.002865
3595.000000	0.002887
3594.000000	0.002901
3593.000000	0.002908
3592.000000	0.002906
3591.000000	0.002896
3590.000000	0.002890
3589.000000	0.002903
3588.000000	0.002948
3587.000000	0.003015
3586.000000	0.003083
3585.000000	0.003133
3584.000000	0.003157
3583.000000	0.003158
3582.000000	0.003154
3581.000000	0.003170
3580.000000	0.003214
3579.000000	0.003275
3578.000000	0.003334
3577.000000	0.003374
3576.000000	0.003390
3575.000000	0.003389
3574.000000	0.003386
3573.000000	0.003393
3572.000000	0.003413
3571.000000	0.003442
3570.000000	0.003473
3569.000000	0.003505
3568.000000	0.003534
3567.000000	0.003558
3566.000000	0.003576
3565.000000	0.003588
3564.000000	0.003597
3563.000000	0.003597
3562.000000	0.003588
3561.000000	0.003581
3560.000000	0.003595
3559.000000	0.003639
3558.000000	0.003702
3557.000000	0.003761
3556.000000	0.003799
3555.000000	0.003817
3554.000000	0.003831
3553.000000	0.003861
3552.000000	0.003907
3551.000000	0.003955
3550.000000	0.003987
3549.000000	0.003998
3548.000000	0.003995
3547.000000	0.003993
3546.000000	0.004001
3545.000000	0.004020
3544.000000	0.004046
3543.000000	0.004073
3542.000000	0.004101
3541.000000	0.004134
3540.000000	0.004174
3539.000000	0.004220
3538.000000	0.004264
3537.000000	0.004301
3536.000000	0.004330
3535.000000	0.004354
3534.000000	0.004380
3533.000000	0.004412
3532.000000	0.004445
3531.000000	0.004475
3530.000000	0.004498
3529.000000	0.004514
3528.000000	0.004531
3527.000000	0.004551
3526.000000	0.004577
3525.000000	0.004606
3524.000000	0.004633
3523.000000	0.004655
3522.000000	0.004673
3521.000000	0.004696
3520.000000	0.004726
3519.000000	0.004764
3518.000000	0.004803
3517.000000	0.004838
3516.000000	0.004862
3515.000000	0.004870
3514.000000	0.004869
3513.000000	0.004870
3512.000000	0.004884
3511.000000	0.004914
3510.000000	0.004950
3509.000000	0.004985
3508.000000	0.005017
3507.000000	0.005050
3506.000000	0.005084
3505.000000	0.005117
3504.000000	0.005144
3503.000000	0.005166
3502.000000	0.005186
3501.000000	0.005209
3500.000000	0.005238
3499.000000	0.005275
3498.000000	0.005318
3497.000000	0.005358
3496.000000	0.005385
3495.000000	0.005397
3494.000000	0.005399
3493.000000	0.005402
3492.000000	0.005411
3491.000000	0.005424
3490.000000	0.005435
3489.000000	0.005440
3488.000000	0.005445
3487.000000	0.005457
3486.000000	0.005474
3485.000000	0.005490
3484.000000	0.005499
3483.000000	0.005501
3482.000000	0.005503
3481.000000	0.005515
3480.000000	0.005542
3479.000000	0.005583
3478.000000	0.005626
3477.000000	0.005660
3476.000000	0.005681
3475.000000	0.005691
3474.000000	0.005696
3473.000000	0.005699
3472.000000	0.005701
3471.000000	0.005711
3470.000000	0.005735
3469.000000	0.005775
3468.000000	0.005821
3467.000000	0.005856
3466.000000	0.005874
3465.000000	0.005884
3464.000000	0.005897
3463.000000	0.005920
3462.000000	0.005947
3461.000000	0.005967
3460.000000	0.005974
3459.000000	0.005975
3458.000000	0.005978
3457.000000	0.005992
3456.000000	0.006016
3455.000000	0.006044
3454.000000	0.006069
3453.000000	0.006087
3452.000000	0.006096
3451.000000	0.006100
3450.000000	0.006106
3449.000000	0.006125
3448.000000	0.006159
3447.000000	0.006201
3446.000000	0.006243
3445.000000	0.006275
3444.000000	0.006295
3443.000000	0.006308
3442.000000	0.006319
3441.000000	0.006332
3440.000000	0.006350
3439.000000	0.006372
3438.000000	0.006397
3437.000000	0.006424
3436.000000	0.006453
3435.000000	0.006483
3434.000000	0.006507
3433.000000	0.006524
3432.000000	0.006535
3431.000000	0.006543
3430.000000	0.006551
3429.000000	0.006557
3428.000000	0.006564
3427.000000	0.006582
3426.000000	0.006611
3425.000000	0.006644
3424.000000	0.006667
3423.000000	0.006678
3422.000000	0.006684
3421.000000	0.006698
3420.000000	0.006721
3419.000000	0.006745
3418.000000	0.006762
3417.000000	0.006772
3416.000000	0.006779
3415.000000	0.006788
3414.000000	0.006805
3413.000000	0.006832
3412.000000	0.006866
3411.000000	0.006899
3410.000000	0.006921
3409.000000	0.006935
3408.000000	0.006954
3407.000000	0.006987
3406.000000	0.007026
3405.000000	0.007055
3404.000000	0.007064
3403.000000	0.007060
3402.000000	0.007053
3401.000000	0.007049
3400.000000	0.007047
3399.000000	0.007051
3398.000000	0.007063
3397.000000	0.007086
3396.000000	0.007117
3395.000000	0.007152
3394.000000	0.007188
3393.000000	0.007225
3392.000000	0.007265
3391.000000	0.007301
3390.000000	0.007327
3389.000000	0.007334
3388.000000	0.007326
3387.000000	0.007314
3386.000000	0.007314
3385.000000	0.007332
3384.000000	0.007362
3383.000000	0.007393
3382.000000	0.007415
3381.000000	0.007427
3380.000000	0.007440
3379.000000	0.007467
3378.000000	0.007514
3377.000000	0.007573
3376.000000	0.007626
3375.000000	0.007658
3374.000000	0.007667
3373.000000	0.007666
3372.000000	0.007672
3371.000000	0.007701
3370.000000	0.007752
3369.000000	0.007812
3368.000000	0.007864
3367.000000	0.007898
3366.000000	0.007914
3365.000000	0.007919
3364.000000	0.007922
3363.000000	0.007932
3362.000000	0.007946
3361.000000	0.007962
3360.000000	0.007976
3359.000000	0.007994
3358.000000	0.008022
3357.000000	0.008061
3356.000000	0.008109
3355.000000	0.008165
3354.000000	0.008226
3353.000000	0.008286
3352.000000	0.008339
3351.000000	0.008378
3350.000000	0.008403
3349.000000	0.008422
3348.000000	0.008443
3347.000000	0.008475
3346.000000	0.008512
3345.000000	0.008544
3344.000000	0.008567
3343.000000	0.008594
3342.000000	0.008639
3341.000000	0.008704
3340.000000	0.008769
3339.000000	0.008815
3338.000000	0.008837
3337.000000	0.008847
3336.000000	0.008863
3335.000000	0.008892
3334.000000	0.008933
3333.000000	0.008977
3332.000000	0.009020
3331.000000	0.009059
3330.000000	0.009091
3329.000000	0.009112
3328.000000	0.009120
3327.000000	0.009127
3326.000000	0.009148
3325.000000	0.009187
3324.000000	0.009237
3323.000000	0.009288
3322.000000	0.009334
3321.000000	0.009372
3320.000000	0.009396
3319.000000	0.009406
3318.000000	0.009405
3317.000000	0.009404
3316.000000	0.009407
3315.000000	0.009420
3314.000000	0.009442
3313.000000	0.009470
3312.000000	0.009492
3311.000000	0.009500
3310.000000	0.009498
3309.000000	0.009497
3308.000000	0.009506
3307.000000	0.009522
3306.000000	0.009538
3305.000000	0.009550
3304.000000	0.009565
3303.000000	0.009597
3302.000000	0.009649
3301.000000	0.009710
3300.000000	0.009755
3299.000000	0.009771
3298.000000	0.009768
3297.000000	0.009769
3296.000000	0.009787
3295.000000	0.009810
3294.000000	0.009816
3293.000000	0.009794
3292.000000	0.009753
3291.000000	0.009722
3290.000000	0.009727
3289.000000	0.009768
3288.000000	0.009824
3287.000000	0.009869
3286.000000	0.009890
3285.000000	0.009887
3284.000000	0.009868
3283.000000	0.009839
3282.000000	0.009812
3281.000000	0.009795
3280.000000	0.009792
3279.000000	0.009798
3278.000000	0.009800
3277.000000	0.009789
3276.000000	0.009763
3275.000000	0.009727
3274.000000	0.009693
3273.000000	0.009672
3272.000000	0.009670
3271.000000	0.009680
3270.000000	0.009690
3269.000000	0.009692
3268.000000	0.009680
3267.000000	0.009658
3266.000000	0.009630
3265.000000	0.009603
3264.000000	0.009582
3263.000000	0.009576
3262.000000	0.009589
3261.000000	0.009611
3260.000000	0.009622
3259.000000	0.009606
3258.000000	0.009566
3257.000000	0.009521
3256.000000	0.009493
3255.000000	0.009485
3254.000000	0.009482
3253.000000	0.009462
3252.000000	0.009417
3251.000000	0.009363
3250.000000	0.009323
3249.000000	0.009307
3248.000000	0.009303
3247.000000	0.009297
3246.000000	0.009281
3245.000000	0.009259
3244.000000	0.009237
3243.000000	0.009222
3242.000000	0.009213
3241.000000	0.009209
3240.000000	0.009207
3239.000000	0.009205
3238.000000	0.009202
3237.000000	0.009197
3236.000000	0.009186
3235.000000	0.009166
3234.000000	0.009138
3233.000000	0.009103
3232.000000	0.009068
3231.000000	0.009040
3230.000000	0.009022
3229.000000	0.009008
3228.000000	0.008989
3227.000000	0.008958
3226.000000	0.008927
3225.000000	0.008909
3224.000000	0.008909
3223.000000	0.008919
3222.000000	0.008926
3221.000000	0.008923
3220.000000	0.008909
3219.000000	0.008885
3218.000000	0.008851
3217.000000	0.008814
3216.000000	0.008778
3215.000000	0.008753
3214.000000	0.008743
3213.000000	0.008746
3212.000000	0.008749
3211.000000	0.008740
3210.000000	0.008715
3209.000000	0.008681
3208.000000	0.008651
3207.000000	0.008631
3206.000000	0.008621
3205.000000	0.008619
3204.000000	0.008617
3203.000000	0.008612
3202.000000	0.008603
3201.000000	0.008591
3200.000000	0.008578
3199.000000	0.008562
3198.000000	0.008540
3197.000000	0.008515
3196.000000	0.008491
3195.000000	0.008474
3194.000000	0.008460
3193.000000	0.008444
3192.000000	0.008420
3191.000000	0.008387
3190.000000	0.008351
3189.000000	0.008321
3188.000000	0.008300
3187.000000	0.008281
3186.000000	0.008255
3185.000000	0.008218
3184.000000	0.008177
3183.000000	0.008146
3182.000000	0.008130
3181.000000	0.008125
3180.000000	0.008116
3179.000000	0.008097
3178.000000	0.008067
3177.000000	0.008031
3176.000000	0.007991
3175.000000	0.007950
3174.000000	0.007913
3173.000000	0.007883
3172.000000	0.007859
3171.000000	0.007839
3170.000000	0.007829
3169.000000	0.007833
3168.000000	0.007847
3167.000000	0.007856
3166.000000	0.007845
3165.000000	0.007813
3164.000000	0.007771
3163.000000	0.007736
3162.000000	0.007713
3161.000000	0.007694
3160.000000	0.007665
3159.000000	0.007620
3158.000000	0.007571
3157.000000	0.007534
3156.000000	0.007515
3155.000000	0.007510
3154.000000	0.007505
3153.000000	0.007489
3152.000000	0.007459
3151.000000	0.007422
3150.000000	0.007390
3149.000000	0.007371
3148.000000	0.007361
3147.000000	0.007353
3146.000000	0.007347
3145.000000	0.007343
3144.000000	0.007342
3143.000000	0.007339
3142.000000	0.007329
3141.000000	0.007311
3140.000000	0.007286
3139.000000	0.007255
3138.000000	0.007222
3137.000000	0.007192
3136.000000	0.007171
3135.000000	0.007166
3134.000000	0.007173
3133.000000	0.007183
3132.000000	0.007181
3131.000000	0.007159
3130.000000	0.007121
3129.000000	0.007085
3128.000000	0.007068
3127.000000	0.007075
3126.000000	0.007091
3125.000000	0.007093
3124.000000	0.007064
3123.000000	0.007007
3122.000000	0.006942
3121.000000	0.006891
3120.000000	0.006864
3119.000000	0.006861
3118.000000	0.006880
3117.000000	0.006917
3116.000000	0.006958
3115.000000	0.006985
3114.000000	0.006993
3113.000000	0.006992
3112.000000	0.006990
3111.000000	0.006990
3110.000000	0.006987
3109.000000	0.006980
3108.000000	0.006966
3107.000000	0.006949
3106.000000	0.006937
3105.000000	0.006936
3104.000000	0.006943
3103.000000	0.006951
3102.000000	0.006955
3101.000000	0.006961
3100.000000	0.006976
3099.000000	0.007002
3098.000000	0.007032
3097.000000	0.007059
3096.000000	0.007074
3095.000000	0.007075
3094.000000	0.007068
3093.000000	0.007065
3092.000000	0.007067
3091.000000	0.007071
3090.000000	0.007073
3089.000000	0.007076
3088.000000	0.007088
3087.000000	0.007108
3086.000000	0.007133
3085.000000	0.007156
3084.000000	0.007174
3083.000000	0.007183
3082.000000	0.007177
3081.000000	0.007157
3080.000000	0.007129
3079.000000	0.007108
3078.000000	0.007102
3077.000000	0.007113
3076.000000	0.007131
3075.000000	0.007148
3074.000000	0.007160
3073.000000	0.007174
3072.000000	0.007192
3071.000000	0.007209
3070.000000	0.007217
3069.000000	0.007217
3068.000000	0.007213
3067.000000	0.007207
3066.000000	0.007193
3065.000000	0.007168
3064.000000	0.007134
3063.000000	0.007100
3062.000000	0.007071
3061.000000	0.007048
3060.000000	0.007027
3059.000000	0.007004
3058.000000	0.006985
3057.000000	0.006979
3056.000000	0.006987
3055.000000	0.006993
3054.000000	0.006983
3053.000000	0.006954
3052.000000	0.006922
3051.000000	0.006901
3050.000000	0.006890
3049.000000	0.006880
3048.000000	0.006867
3047.000000	0.006851
3046.000000	0.006837
3045.000000	0.006828
3044.000000	0.006820
3043.000000	0.006810
3042.000000	0.006793
3041.000000	0.006767
3040.000000	0.006732
3039.000000	0.006693
3038.000000	0.006655
3037.000000	0.006622
3036.000000	0.006595
3035.000000	0.006573
3034.000000	0.006555
3033.000000	0.006539
3032.000000	0.006527
3031.000000	0.006516
3030.000000	0.006503
3029.000000	0.006486
3028.000000	0.006468
3027.000000	0.006454
3026.000000	0.006450
3025.000000	0.006453
3024.000000	0.006452
3023.000000	0.006435
3022.000000	0.006402
3021.000000	0.006358
3020.000000	0.006316
3019.000000	0.006282
3018.000000	0.006255
3017.000000	0.006231
3016.000000	0.006209
3015.000000	0.006191
3014.000000	0.006184
3013.000000	0.006192
3012.000000	0.006211
3011.000000	0.006230
3010.000000	0.006237
3009.000000	0.006228
3008.000000	0.006207
3007.000000	0.006184
3006.000000	0.006168
3005.000000	0.006165
3004.000000	0.006175
3003.000000	0.006186
3002.000000	0.006187
3001.000000	0.006174
3000.000000	0.006159
2999.000000	0.006156
2998.000000	0.006169
2997.000000	0.006189
2996.000000	0.006204
2995.000000	0.006211
2994.000000	0.006214
2993.000000	0.006221
2992.000000	0.006238
2991.000000	0.006265
2990.000000	0.006298
2989.000000	0.006333
2988.000000	0.006362
2987.000000	0.006379
2986.000000	0.006380
2985.000000	0.006374
2984.000000	0.006376
2983.000000	0.006400
2982.000000	0.006446
2981.000000	0.006500
2980.000000	0.006548
2979.000000	0.006583
2978.000000	0.006604
2977.000000	0.006620
2976.000000	0.006639
2975.000000	0.006669
2974.000000	0.006711
2973.000000	0.006758
2972.000000	0.006799
2971.000000	0.006834
2970.000000	0.006866
2969.000000	0.006904
2968.000000	0.006949
2967.000000	0.006998
2966.000000	0.007047
2965.000000	0.007095
2964.000000	0.007141
2963.000000	0.007188
2962.000000	0.007235
2961.000000	0.007282
2960.000000	0.007330
2959.000000	0.007381
2958.000000	0.007431
2957.000000	0.007473
2956.000000	0.007504
2955.000000	0.007523
2954.000000	0.007533
2953.000000	0.007537
2952.000000	0.007538
2951.000000	0.007540
2950.000000	0.007544
2949.000000	0.007548
2948.000000	0.007552
2947.000000	0.007564
2946.000000	0.007596
2945.000000	0.007650
2944.000000	0.007715
2943.000000	0.007780
2942.000000	0.007838
2941.000000	0.007891
2940.000000	0.007948
2939.000000	0.008017
2938.000000	0.008102
2937.000000	0.008202
2936.000000	0.008312
2935.000000	0.008432
2934.000000	0.008558
2933.000000	0.008687
2932.000000	0.008809
2931.000000	0.008916
2930.000000	0.009007
2929.000000	0.009091
2928.000000	0.009178
2927.000000	0.009271
2926.000000	0.009363
2925.000000	0.009436
2924.000000	0.009476
2923.000000	0.009479
2922.000000	0.009451
2921.000000	0.009403
2920.000000	0.009337
2919.000000	0.009253
2918.000000	0.009150
2917.000000	0.009032
2916.000000	0.008904
2915.000000	0.008770
2914.000000	0.008634
2913.000000	0.008496
2912.000000	0.008356
2911.000000	0.008218
2910.000000	0.008083
2909.000000	0.007955
2908.000000	0.007834
2907.000000	0.007727
2906.000000	0.007644
2905.000000	0.007587
2904.000000	0.007544
2903.000000	0.007495
2902.000000	0.007436
2901.000000	0.007377
2900.000000	0.007333
2899.000000	0.007308
2898.000000	0.007293
2897.000000	0.007272
2896.000000	0.007237
2895.000000	0.007184
2894.000000	0.007117
2893.000000	0.007050
2892.000000	0.007002
2891.000000	0.006984
2890.000000	0.006990
2889.000000	0.006999
2888.000000	0.006989
2887.000000	0.006955
2886.000000	0.006909
2885.000000	0.006868
2884.000000	0.006842
2883.000000	0.006833
2882.000000	0.006834
2881.000000	0.006833
2880.000000	0.006826
2879.000000	0.006816
2878.000000	0.006811
2877.000000	0.006819
2876.000000	0.006840
2875.000000	0.006871
2874.000000	0.006898
2873.000000	0.006907
2872.000000	0.006891
2871.000000	0.006860
2870.000000	0.006838
2869.000000	0.006834
2868.000000	0.006840
2867.000000	0.006841
2866.000000	0.006841
2865.000000	0.006848
2864.000000	0.006865
2863.000000	0.006891
2862.000000	0.006928
2861.000000	0.006992
2860.000000	0.007085
2859.000000	0.007188
2858.000000	0.007277
2857.000000	0.007349
2856.000000	0.007417
2855.000000	0.007489
2854.000000	0.007552
2853.000000	0.007581
2852.000000	0.007563
2851.000000	0.007500
2850.000000	0.007409
2849.000000	0.007301
2848.000000	0.007177
2847.000000	0.007030
2846.000000	0.006863
2845.000000	0.006690
2844.000000	0.006535
2843.000000	0.006411
2842.000000	0.006320
2841.000000	0.006248
2840.000000	0.006184
2839.000000	0.006122
2838.000000	0.006062
2837.000000	0.006007
2836.000000	0.005957
2835.000000	0.005914
2834.000000	0.005878
2833.000000	0.005851
2832.000000	0.005831
2831.000000	0.005815
2830.000000	0.005802
2829.000000	0.005787
2828.000000	0.005767
2827.000000	0.005740
2826.000000	0.005708
2825.000000	0.005679
2824.000000	0.005655
2823.000000	0.005637
2822.000000	0.005623
2821.000000	0.005611
2820.000000	0.005596
2819.000000	0.005572
2818.000000	0.005548
2817.000000	0.005535
2816.000000	0.005536
2815.000000	0.005543
2814.000000	0.005538
2813.000000	0.005520
2812.000000	0.005497
2811.000000	0.005478
2810.000000	0.005461
2809.000000	0.005443
2808.000000	0.005422
2807.000000	0.005401
2806.000000	0.005383
2805.000000	0.005372
2804.000000	0.005367
2803.000000	0.005363
2802.000000	0.005356
2801.000000	0.005345
2800.000000	0.005332
2799.000000	0.005322
2798.000000	0.005317
2797.000000	0.005317
2796.000000	0.005317
2795.000000	0.005312
2794.000000	0.005302
2793.000000	0.005292
2792.000000	0.005289
2791.000000	0.005293
2790.000000	0.005298
2789.000000	0.005299
2788.000000	0.005293
2787.000000	0.005283
2786.000000	0.005273
2785.000000	0.005261
2784.000000	0.005245
2783.000000	0.005221
2782.000000	0.005192
2781.000000	0.005165
2780.000000	0.005145
2779.000000	0.005136
2778.000000	0.005138
2777.000000	0.005152
2776.000000	0.005174
2775.000000	0.005194
2774.000000	0.005200
2773.000000	0.005190
2772.000000	0.005174
2771.000000	0.005162
2770.000000	0.005155
2769.000000	0.005142
2768.000000	0.005119
2767.000000	0.005083
2766.000000	0.005041
2765.000000	0.005003
2764.000000	0.004980
2763.000000	0.004974
2762.000000	0.004973
2761.000000	0.004963
2760.000000	0.004948
2759.000000	0.004942
2758.000000	0.004954
2757.000000	0.004974
2756.000000	0.004986
2755.000000	0.004989
2754.000000	0.004993
2753.000000	0.004998
2752.000000	0.004997
2751.000000	0.004983
2750.000000	0.004964
2749.000000	0.004954
2748.000000	0.004956
2747.000000	0.004964
2746.000000	0.004969
2745.000000	0.004967
2744.000000	0.004960
2743.000000	0.004950
2742.000000	0.004942
2741.000000	0.004940
2740.000000	0.004940
2739.000000	0.004936
2738.000000	0.004926
2737.000000	0.004909
2736.000000	0.004890
2735.000000	0.004875
2734.000000	0.004867
2733.000000	0.004868
2732.000000	0.004872
2731.000000	0.004870
2730.000000	0.004858
2729.000000	0.004835
2728.000000	0.004806
2727.000000	0.004781
2726.000000	0.004766
2725.000000	0.004762
2724.000000	0.004760
2723.000000	0.004754
2722.000000	0.004742
2721.000000	0.004730
2720.000000	0.004724
2719.000000	0.004727
2718.000000	0.004732
2717.000000	0.004730
2716.000000	0.004715
2715.000000	0.004696
2714.000000	0.004686
2713.000000	0.004697
2712.000000	0.004717
2711.000000	0.004727
2710.000000	0.004717
2709.000000	0.004702
2708.000000	0.004696
2707.000000	0.004701
2706.000000	0.004708
2705.000000	0.004712
2704.000000	0.004714
2703.000000	0.004715
2702.000000	0.004712
2701.000000	0.004703
2700.000000	0.004691
2699.000000	0.004679
2698.000000	0.004666
2697.000000	0.004654
2696.000000	0.004645
2695.000000	0.004641
2694.000000	0.004640
2693.000000	0.004639
2692.000000	0.004637
2691.000000	0.004637
2690.000000	0.004639
2689.000000	0.004643
2688.000000	0.004647
2687.000000	0.004649
2686.000000	0.004647
2685.000000	0.004642
2684.000000	0.004639
2683.000000	0.004642
2682.000000	0.004647
2681.000000	0.004649
2680.000000	0.004643
2679.000000	0.004629
2678.000000	0.004611
2677.000000	0.004595
2676.000000	0.004586
2675.000000	0.004589
2674.000000	0.004601
2673.000000	0.004614
2672.000000	0.004618
2671.000000	0.004613
2670.000000	0.004604
2669.000000	0.004596
2668.000000	0.004589
2667.000000	0.004582
2666.000000	0.004577
2665.000000	0.004576
2664.000000	0.004575
2663.000000	0.004570
2662.000000	0.004557
2661.000000	0.004542
2660.000000	0.004532
2659.000000	0.004524
2658.000000	0.004513
2657.000000	0.004498
2656.000000	0.004487
2655.000000	0.004484
2654.000000	0.004483
2653.000000	0.004474
2652.000000	0.004452
2651.000000	0.004427
2650.000000	0.004411
2649.000000	0.004404
2648.000000	0.004396
2647.000000	0.004379
2646.000000	0.004356
2645.000000	0.004341
2644.000000	0.004339
2643.000000	0.004342
2642.000000	0.004336
2641.000000	0.004317
2640.000000	0.004286
2639.000000	0.004246
2638.000000	0.004203
2637.000000	0.004166
2636.000000	0.004149
2635.000000	0.004153
2634.000000	0.004167
2633.000000	0.004174
2632.000000	0.004167
2631.000000	0.004152
2630.000000	0.004137
2629.000000	0.004124
2628.000000	0.004108
2627.000000	0.004088
2626.000000	0.004065
2625.000000	0.004040
2624.000000	0.004016
2623.000000	0.003998
2622.000000	0.003987
2621.000000	0.003978
2620.000000	0.003967
2619.000000	0.003957
2618.000000	0.003951
2617.000000	0.003944
2616.000000	0.003929
2615.000000	0.003909
2614.000000	0.003891
2613.000000	0.003881
2612.000000	0.003875
2611.000000	0.003866
2610.000000	0.003856
2609.000000	0.003854
2608.000000	0.003859
2607.000000	0.003864
2606.000000	0.003862
2605.000000	0.003855
2604.000000	0.003847
2603.000000	0.003838
2602.000000	0.003823
2601.000000	0.003798
2600.000000	0.003765
2599.000000	0.003736
2598.000000	0.003728
2597.000000	0.003746
2596.000000	0.003775
2595.000000	0.003799
2594.000000	0.003807
2593.000000	0.003801
2592.000000	0.003783
2591.000000	0.003758
2590.000000	0.003735
2589.000000	0.003725
2588.000000	0.003724
2587.000000	0.003724
2586.000000	0.003720
2585.000000	0.003716
2584.000000	0.003712
2583.000000	0.003699
2582.000000	0.003668
2581.000000	0.003619
2580.000000	0.003566
2579.000000	0.003522
2578.000000	0.003502
2577.000000	0.003514
2576.000000	0.003555
2575.000000	0.003603
2574.000000	0.003630
2573.000000	0.003617
2572.000000	0.003572
2571.000000	0.003528
2570.000000	0.003519
2569.000000	0.003549
2568.000000	0.003590
2567.000000	0.003601
2566.000000	0.003573
2565.000000	0.003532
2564.000000	0.003509
2563.000000	0.003513
2562.000000	0.003530
2561.000000	0.003545
2560.000000	0.003558
2559.000000	0.003568
2558.000000	0.003570
2557.000000	0.003554
2556.000000	0.003515
2555.000000	0.003465
2554.000000	0.003419
2553.000000	0.003388
2552.000000	0.003372
2551.000000	0.003371
2550.000000	0.003389
2549.000000	0.003426
2548.000000	0.003465
2547.000000	0.003482
2546.000000	0.003473
2545.000000	0.003458
2544.000000	0.003466
2543.000000	0.003505
2542.000000	0.003558
2541.000000	0.003593
2540.000000	0.003586
2539.000000	0.003537
2538.000000	0.003473
2537.000000	0.003431
2536.000000	0.003428
2535.000000	0.003448
2534.000000	0.003464
2533.000000	0.003463
2532.000000	0.003455
2531.000000	0.003451
2530.000000	0.003454
2529.000000	0.003458
2528.000000	0.003465
2527.000000	0.003483
2526.000000	0.003513
2525.000000	0.003543
2524.000000	0.003554
2523.000000	0.003532
2522.000000	0.003490
2521.000000	0.003451
2520.000000	0.003430
2519.000000	0.003426
2518.000000	0.003427
2517.000000	0.003427
2516.000000	0.003420
2515.000000	0.003403
2514.000000	0.003373
2513.000000	0.003337
2512.000000	0.003307
2511.000000	0.003289
2510.000000	0.003281
2509.000000	0.003279
2508.000000	0.003280
2507.000000	0.003285
2506.000000	0.003296
2505.000000	0.003309
2504.000000	0.003318
2503.000000	0.003319
2502.000000	0.003327
2501.000000	0.003358
2500.000000	0.003409
2499.000000	0.003453
2498.000000	0.003472
2497.000000	0.003471
2496.000000	0.003460
2495.000000	0.003444
2494.000000	0.003419
2493.000000	0.003395
2492.000000	0.003383
2491.000000	0.003379
2490.000000	0.003363
2489.000000	0.003326
2488.000000	0.003284
2487.000000	0.003263
2486.000000	0.003271
2485.000000	0.003296
2484.000000	0.003315
2483.000000	0.003312
2482.000000	0.003283
2481.000000	0.003242
2480.000000	0.003213
2479.000000	0.003217
2478.000000	0.003255
2477.000000	0.003311
2476.000000	0.003360
2475.000000	0.003380
2474.000000	0.003364
2473.000000	0.003322
2472.000000	0.003283
2471.000000	0.003266
2470.000000	0.003270
2469.000000	0.003274
2468.000000	0.003261
2467.000000	0.003238
2466.000000	0.003223
2465.000000	0.003228
2464.000000	0.003248
2463.000000	0.003274
2462.000000	0.003302
2461.000000	0.003330
2460.000000	0.003351
2459.000000	0.003363
2458.000000	0.003372
2457.000000	0.003380
2456.000000	0.003382
2455.000000	0.003366
2454.000000	0.003337
2453.000000	0.003313
2452.000000	0.003304
2451.000000	0.003305
2450.000000	0.003308
2449.000000	0.003309
2448.000000	0.003311
2447.000000	0.003318
2446.000000	0.003329
2445.000000	0.003344
2444.000000	0.003358
2443.000000	0.003368
2442.000000	0.003382
2441.000000	0.003405
2440.000000	0.003431
2439.000000	0.003443
2438.000000	0.003432
2437.000000	0.003400
2436.000000	0.003359
2435.000000	0.003314
2434.000000	0.003280
2433.000000	0.003269
2432.000000	0.003278
2431.000000	0.003282
2430.000000	0.003256
2429.000000	0.003209
2428.000000	0.003171
2427.000000	0.003162
2426.000000	0.003171
2425.000000	0.003175
2424.000000	0.003169
2423.000000	0.003169
2422.000000	0.003189
2421.000000	0.003228
2420.000000	0.003261
2419.000000	0.003269
2418.000000	0.003249
2417.000000	0.003214
2416.000000	0.003187
2415.000000	0.003185
2414.000000	0.003213
2413.000000	0.003257
2412.000000	0.003290
2411.000000	0.003290
2410.000000	0.003263
2409.000000	0.003231
2408.000000	0.003215
2407.000000	0.003211
2406.000000	0.003208
2405.000000	0.003202
2404.000000	0.003197
2403.000000	0.003196
2402.000000	0.003199
2401.000000	0.003207
2400.000000	0.003215
2399.000000	0.003215
2398.000000	0.003210
2397.000000	0.003211
2396.000000	0.003225
2395.000000	0.003241
2394.000000	0.003244
2393.000000	0.003234
2392.000000	0.003220
2391.000000	0.003213
2390.000000	0.003216
2389.000000	0.003227
2388.000000	0.003241
2387.000000	0.003253
2386.000000	0.003258
2385.000000	0.003264
2384.000000	0.003282
2383.000000	0.003311
2382.000000	0.003337
2381.000000	0.003347
2380.000000	0.003341
2379.000000	0.003328
2378.000000	0.003312
2377.000000	0.003296
2376.000000	0.003281
2375.000000	0.003275
2374.000000	0.003291
2373.000000	0.003327
2372.000000	0.003365
2371.000000	0.003381
2370.000000	0.003371
2369.000000	0.003357
2368.000000	0.003365
2367.000000	0.003390
2366.000000	0.003398
2365.000000	0.003360
2364.000000	0.003288
2363.000000	0.003223
2362.000000	0.003211
2361.000000	0.003276
2360.000000	0.003393
2359.000000	0.003504
2358.000000	0.003550
2357.000000	0.003516
2356.000000	0.003449
2355.000000	0.003415
2354.000000	0.003434
2353.000000	0.003474
2352.000000	0.003493
2351.000000	0.003479
2350.000000	0.003446
2349.000000	0.003427
2348.000000	0.003449
2347.000000	0.003510
2346.000000	0.003579
2345.000000	0.003613
2344.000000	0.003594
2343.000000	0.003543
2342.000000	0.003508
2341.000000	0.003509
2340.000000	0.003523
2339.000000	0.003525
2338.000000	0.003523
2337.000000	0.003542
2336.000000	0.003576
2335.000000	0.003590
2334.000000	0.003553
2333.000000	0.003481
2332.000000	0.003413
2331.000000	0.003384
2330.000000	0.003386
2329.000000	0.003408
2328.000000	0.003447
2327.000000	0.003512
2326.000000	0.003607
2325.000000	0.003707
2324.000000	0.003768
2323.000000	0.003756
2322.000000	0.003672
2321.000000	0.003562
2320.000000	0.003475
2319.000000	0.003443
2318.000000	0.003459
2317.000000	0.003487
2316.000000	0.003480
2315.000000	0.003418
2314.000000	0.003326
2313.000000	0.003254
2312.000000	0.003231
2311.000000	0.003244
2310.000000	0.003266
2309.000000	0.003285
2308.000000	0.003304
2307.000000	0.003318
2306.000000	0.003322
2305.000000	0.003322
2304.000000	0.003332
2303.000000	0.003350
2302.000000	0.003359
2301.000000	0.003345
2300.000000	0.003310
2299.000000	0.003266
2298.000000	0.003222
2297.000000	0.003185
2296.000000	0.003160
2295.000000	0.003149
2294.000000	0.003151
2293.000000	0.003160
2292.000000	0.003170
2291.000000	0.003181
2290.000000	0.003191
2289.000000	0.003201
2288.000000	0.003212
2287.000000	0.003227
2286.000000	0.003251
2285.000000	0.003280
2284.000000	0.003298
2283.000000	0.003287
2282.000000	0.003252
2281.000000	0.003215
2280.000000	0.003189
2279.000000	0.003173
2278.000000	0.003166
2277.000000	0.003170
2276.000000	0.003175
2275.000000	0.003158
2274.000000	0.003118
2273.000000	0.003088
2272.000000	0.003097
2271.000000	0.003135
2270.000000	0.003167
2269.000000	0.003171
2268.000000	0.003151
2267.000000	0.003123
2266.000000	0.003107
2265.000000	0.003120
2264.000000	0.003161
2263.000000	0.003194
2262.000000	0.003191
2261.000000	0.003165
2260.000000	0.003158
2259.000000	0.003175
2258.000000	0.003174
2257.000000	0.003107
2256.000000	0.002973
2255.000000	0.002835
2254.000000	0.002763
2253.000000	0.002786
2252.000000	0.002868
2251.000000	0.002944
2250.000000	0.002980
2249.000000	0.002987
2248.000000	0.002990
2247.000000	0.002994
2246.000000	0.002996
2245.000000	0.003000
2244.000000	0.003003
2243.000000	0.002987
2242.000000	0.002945
2241.000000	0.002899
2240.000000	0.002870
2239.000000	0.002845
2238.000000	0.002808
2237.000000	0.002777
2236.000000	0.002795
2235.000000	0.002873
2234.000000	0.002978
2233.000000	0.003068
2232.000000	0.003123
2231.000000	0.003129
2230.000000	0.003072
2229.000000	0.002961
2228.000000	0.002833
2227.000000	0.002735
2226.000000	0.002702
2225.000000	0.002736
2224.000000	0.002806
2223.000000	0.002860
2222.000000	0.002871
2221.000000	0.002853
2220.000000	0.002832
2219.000000	0.002813
2218.000000	0.002792
2217.000000	0.002779
2216.000000	0.002789
2215.000000	0.002804
2214.000000	0.002789
2213.000000	0.002750
2212.000000	0.002728
2211.000000	0.002748
2210.000000	0.002789
2209.000000	0.002816
2208.000000	0.002827
2207.000000	0.002846
2206.000000	0.002888
2205.000000	0.002942
2204.000000	0.002990
2203.000000	0.003025
2202.000000	0.003052
2201.000000	0.003077
2200.000000	0.003088
2199.000000	0.003052
2198.000000	0.002966
2197.000000	0.002876
2196.000000	0.002846
2195.000000	0.002887
2194.000000	0.002942
2193.000000	0.002948
2192.000000	0.002891
2191.000000	0.002808
2190.000000	0.002740
2189.000000	0.002696
2188.000000	0.002664
2187.000000	0.002648
2186.000000	0.002681
2185.000000	0.002772
2184.000000	0.002867
2183.000000	0.002889
2182.000000	0.002823
2181.000000	0.002734
2180.000000	0.002671
2179.000000	0.002610
2178.000000	0.002516
2177.000000	0.002408
2176.000000	0.002331
2175.000000	0.002278
2174.000000	0.002213
2173.000000	0.002142
2172.000000	0.002122
2171.000000	0.002193
2170.000000	0.002341
2169.000000	0.002523
2168.000000	0.002688
2167.000000	0.002795
2166.000000	0.002833
2165.000000	0.002827
2164.000000	0.002795
2163.000000	0.002715
2162.000000	0.002562
2161.000000	0.002364
2160.000000	0.002182
2159.000000	0.002041
2158.000000	0.001943
2157.000000	0.001923
2156.000000	0.002019
2155.000000	0.002207
2154.000000	0.002418
2153.000000	0.002599
2152.000000	0.002720
2151.000000	0.002750
2150.000000	0.002670
2149.000000	0.002526
2148.000000	0.002407
2147.000000	0.002367
2146.000000	0.002389
2145.000000	0.002431
2144.000000	0.002469
2143.000000	0.002499
2142.000000	0.002533
2141.000000	0.002588
2140.000000	0.002671
2139.000000	0.002740
2138.000000	0.002732
2137.000000	0.002630
2136.000000	0.002481
2135.000000	0.002353
2134.000000	0.002288
2133.000000	0.002298
2132.000000	0.002379
2131.000000	0.002506
2130.000000	0.002635
2129.000000	0.002729
2128.000000	0.002769
2127.000000	0.002752
2126.000000	0.002683
2125.000000	0.002588
2124.000000	0.002514
2123.000000	0.002495
2122.000000	0.002528
2121.000000	0.002597
2120.000000	0.002695
2119.000000	0.002816
2118.000000	0.002929
2117.000000	0.002985
2116.000000	0.002965
2115.000000	0.002904
2114.000000	0.002860
2113.000000	0.002868
2112.000000	0.002924
2111.000000	0.003013
2110.000000	0.003128
2109.000000	0.003254
2108.000000	0.003344
2107.000000	0.003332
2106.000000	0.003199
2105.000000	0.003010
2104.000000	0.002869
2103.000000	0.002832
2102.000000	0.002869
2101.000000	0.002911
2100.000000	0.002913
2099.000000	0.002874
2098.000000	0.002822
2097.000000	0.002782
2096.000000	0.002765
2095.000000	0.002764
2094.000000	0.002762
2093.000000	0.002756
2092.000000	0.002766
2091.000000	0.002800
2090.000000	0.002840
2089.000000	0.002857
2088.000000	0.002854
2087.000000	0.002863
2086.000000	0.002901
2085.000000	0.002946
2084.000000	0.002964
2083.000000	0.002948
2082.000000	0.002917
2081.000000	0.002889
2080.000000	0.002866
2079.000000	0.002856
2078.000000	0.002866
2077.000000	0.002880
2076.000000	0.002862
2075.000000	0.002788
2074.000000	0.002675
2073.000000	0.002561
2072.000000	0.002479
2071.000000	0.002449
2070.000000	0.002466
2069.000000	0.002490
2068.000000	0.002475
2067.000000	0.002424
2066.000000	0.002406
2065.000000	0.002484
2064.000000	0.002639
2063.000000	0.002792
2062.000000	0.002879
2061.000000	0.002883
2060.000000	0.002807
2059.000000	0.002669
2058.000000	0.002516
2057.000000	0.002406
2056.000000	0.002367
2055.000000	0.002387
2054.000000	0.002444
2053.000000	0.002532
2052.000000	0.002629
2051.000000	0.002688
2050.000000	0.002674
2049.000000	0.002601
2048.000000	0.002528
2047.000000	0.002515
2046.000000	0.002592
2045.000000	0.002726
2044.000000	0.002832
2043.000000	0.002835
2042.000000	0.002742
2041.000000	0.002634
2040.000000	0.002579
2039.000000	0.002575
2038.000000	0.002573
2037.000000	0.002523
2036.000000	0.002391
2035.000000	0.002214
2034.000000	0.002119
2033.000000	0.002220
2032.000000	0.002456
2031.000000	0.002617
2030.000000	0.002569
2029.000000	0.002391
2028.000000	0.002248
2027.000000	0.002212
2026.000000	0.002258
2025.000000	0.002366
2024.000000	0.002527
2023.000000	0.002681
2022.000000	0.002742
2021.000000	0.002686
2020.000000	0.002576
2019.000000	0.002473
2018.000000	0.002379
2017.000000	0.002249
2016.000000	0.002063
2015.000000	0.001853
2014.000000	0.001692
2013.000000	0.001636
2012.000000	0.001670
2011.000000	0.001724
2010.000000	0.001762
2009.000000	0.001811
2008.000000	0.001889
2007.000000	0.001959
2006.000000	0.001983
2005.000000	0.001989
2004.000000	0.002031
2003.000000	0.002119
2002.000000	0.002216
2001.000000	0.002281
2000.000000	0.002277
1999.000000	0.002174
1998.000000	0.001996
1997.000000	0.001833
1996.000000	0.001775
1995.000000	0.001836
1994.000000	0.001966
1993.000000	0.002121
1992.000000	0.002272
1991.000000	0.002362
1990.000000	0.002325
1989.000000	0.002172
1988.000000	0.002017
1987.000000	0.001980
1986.000000	0.002081
1985.000000	0.002248
1984.000000	0.002418
1983.000000	0.002583
1982.000000	0.002737
1981.000000	0.002810
1980.000000	0.002698
1979.000000	0.002380
1978.000000	0.002004
1977.000000	0.001779
1976.000000	0.001771
1975.000000	0.001854
1974.000000	0.001886
1973.000000	0.001867
1972.000000	0.001886
1971.000000	0.001981
1970.000000	0.002081
1969.000000	0.002094
1968.000000	0.001999
1967.000000	0.001858
1966.000000	0.001751
1965.000000	0.001708
1964.000000	0.001709
1963.000000	0.001742
1962.000000	0.001823
1961.000000	0.001953
1960.000000	0.002079
1959.000000	0.002138
1958.000000	0.002122
1957.000000	0.002079
1956.000000	0.002049
1955.000000	0.002026
1954.000000	0.001990
1953.000000	0.001953
1952.000000	0.001952
1951.000000	0.001998
1950.000000	0.002065
1949.000000	0.002114
1948.000000	0.002138
1947.000000	0.002154
1946.000000	0.002161
1945.000000	0.002129
1944.000000	0.002037
1943.000000	0.001930
1942.000000	0.001894
1941.000000	0.001962
1940.000000	0.002064
1939.000000	0.002112
1938.000000	0.002085
1937.000000	0.002018
1936.000000	0.001953
1935.000000	0.001912
1934.000000	0.001912
1933.000000	0.001963
1932.000000	0.002044
1931.000000	0.002109
1930.000000	0.002129
1929.000000	0.002106
1928.000000	0.002065
1927.000000	0.002033
1926.000000	0.002033
1925.000000	0.002071
1924.000000	0.002119
1923.000000	0.002130
1922.000000	0.002088
1921.000000	0.002028
1920.000000	0.001998
1919.000000	0.002023
1918.000000	0.002087
1917.000000	0.002155
1916.000000	0.002198
1915.000000	0.002210
1914.000000	0.002201
1913.000000	0.002177
1912.000000	0.002130
1911.000000	0.002051
1910.000000	0.001959
1909.000000	0.001893
1908.000000	0.001884
1907.000000	0.001918
1906.000000	0.001961
1905.000000	0.001979
1904.000000	0.001968
1903.000000	0.001948
1902.000000	0.001943
1901.000000	0.001964
1900.000000	0.002001
1899.000000	0.002032
1898.000000	0.002041
1897.000000	0.002028
1896.000000	0.002008
1895.000000	0.001993
1894.000000	0.001978
1893.000000	0.001944
1892.000000	0.001887
1891.000000	0.001839
1890.000000	0.001848
1889.000000	0.001925
1888.000000	0.002020
1887.000000	0.002084
1886.000000	0.002109
1885.000000	0.002123
1884.000000	0.002131
1883.000000	0.002118
1882.000000	0.002075
1881.000000	0.002021
1880.000000	0.001980
1879.000000	0.001968
1878.000000	0.001990
1877.000000	0.002027
1876.000000	0.002051
1875.000000	0.002042
1874.000000	0.002009
1873.000000	0.001965
1872.000000	0.001910
1871.000000	0.001844
1870.000000	0.001788
1869.000000	0.001778
1868.000000	0.001830
1867.000000	0.001914
1866.000000	0.001980
1865.000000	0.002006
1864.000000	0.001997
1863.000000	0.001979
1862.000000	0.001980
1861.000000	0.002012
1860.000000	0.002059
1859.000000	0.002093
1858.000000	0.002104
1857.000000	0.002098
1856.000000	0.002080
1855.000000	0.002052
1854.000000	0.002027
1853.000000	0.002015
1852.000000	0.002009
1851.000000	0.001986
1850.000000	0.001946
1849.000000	0.001900
1848.000000	0.001849
1847.000000	0.001802
1846.000000	0.001796
1845.000000	0.001853
1844.000000	0.001929
1843.000000	0.001949
1842.000000	0.001904
1841.000000	0.001859
1840.000000	0.001869
1839.000000	0.001919
1838.000000	0.001953
1837.000000	0.001941
1836.000000	0.001903
1835.000000	0.001867
1834.000000	0.001842
1833.000000	0.001826
1832.000000	0.001811
1831.000000	0.001790
1830.000000	0.001778
1829.000000	0.001797
1828.000000	0.001832
1827.000000	0.001845
1826.000000	0.001830
1825.000000	0.001816
1824.000000	0.001818
1823.000000	0.001828
1822.000000	0.001834
1821.000000	0.001840
1820.000000	0.001847
1819.000000	0.001850
1818.000000	0.001855
1817.000000	0.001872
1816.000000	0.001901
1815.000000	0.001924
1814.000000	0.001921
1813.000000	0.001891
1812.000000	0.001843
1811.000000	0.001795
1810.000000	0.001766
1809.000000	0.001767
1808.000000	0.001794
1807.000000	0.001835
1806.000000	0.001882
1805.000000	0.001926
1804.000000	0.001945
1803.000000	0.001912
1802.000000	0.001832
1801.000000	0.001751
1800.000000	0.001716
1799.000000	0.001734
1798.000000	0.001781
1797.000000	0.001834
1796.000000	0.001881
1795.000000	0.001917
1794.000000	0.001938
1793.000000	0.001941
1792.000000	0.001920
1791.000000	0.001888
1790.000000	0.001862
1789.000000	0.001845
1788.000000	0.001834
1787.000000	0.001824
1786.000000	0.001815
1785.000000	0.001820
1784.000000	0.001835
1783.000000	0.001839
1782.000000	0.001832
1781.000000	0.001839
1780.000000	0.001856
1779.000000	0.001860
1778.000000	0.001838
1777.000000	0.001804
1776.000000	0.001771
1775.000000	0.001743
1774.000000	0.001738
1773.000000	0.001768
1772.000000	0.001810
1771.000000	0.001822
1770.000000	0.001802
1769.000000	0.001794
1768.000000	0.001831
1767.000000	0.001885
1766.000000	0.001907
1765.000000	0.001892
1764.000000	0.001870
1763.000000	0.001857
1762.000000	0.001853
1761.000000	0.001873
1760.000000	0.001915
1759.000000	0.001962
1758.000000	0.002019
1757.000000	0.002109
1756.000000	0.002223
1755.000000	0.002314
1754.000000	0.002367
1753.000000	0.002418
1752.000000	0.002483
1751.000000	0.002532
1750.000000	0.002540
1749.000000	0.002537
1748.000000	0.002569
1747.000000	0.002628
1746.000000	0.002683
1745.000000	0.002715
1744.000000	0.002720
1743.000000	0.002707
1742.000000	0.002689
1741.000000	0.002676
1740.000000	0.002662
1739.000000	0.002614
1738.000000	0.002509
1737.000000	0.002391
1736.000000	0.002346
1735.000000	0.002382
1734.000000	0.002415
1733.000000	0.002373
1732.000000	0.002246
1731.000000	0.002091
1730.000000	0.002002
1729.000000	0.002010
1728.000000	0.002065
1727.000000	0.002101
1726.000000	0.002100
1725.000000	0.002077
1724.000000	0.002042
1723.000000	0.001998
1722.000000	0.001940
1721.000000	0.001880
1720.000000	0.001852
1719.000000	0.001874
1718.000000	0.001925
1717.000000	0.001974
1716.000000	0.002007
1715.000000	0.002022
1714.000000	0.002042
1713.000000	0.002109
1712.000000	0.002197
1711.000000	0.002314
1710.000000	0.002533
1709.000000	0.002618
1708.000000	0.002740
1707.000000	0.002876
1706.000000	0.003043
1705.000000	0.003241
1704.000000	0.003455
1703.000000	0.003657
1702.000000	0.003849
1701.000000	0.004067
1700.000000	0.004316
1699.000000	0.004550
1698.000000	0.004763
1697.000000	0.004999
1696.000000	0.005279
1695.000000	0.005563
1694.000000	0.005819
1693.000000	0.006064
1692.000000	0.006308
1691.000000	0.006543
1690.000000	0.006765
1689.000000	0.007006
1688.000000	0.007270
1687.000000	0.007572
1686.000000	0.007822
1685.000000	0.007952
1684.000000	0.008335
1683.000000	0.008597
1682.000000	0.008800
1681.000000	0.008991
1680.000000	0.009271
1679.000000	0.009610
1678.000000	0.009963
1677.000000	0.010347
1676.000000	0.010788
1675.000000	0.011229
1674.000000	0.011585
1673.000000	0.011862
1672.000000	0.012144
1671.000000	0.012498
1670.000000	0.012913
1669.000000	0.013369
1668.000000	0.013839
1667.000000	0.014268
1666.000000	0.014651
1665.000000	0.015039
1664.000000	0.015452
1663.000000	0.015842
1662.000000	0.016173
1661.000000	0.016480
1660.000000	0.016791
1659.000000	0.017098
1658.000000	0.017390
1657.000000	0.017674
1656.000000	0.017991
1655.000000	0.018391
1654.000000	0.018806
1653.000000	0.019138
1652.000000	0.019441
1651.000000	0.019588
1650.000000	0.019558
1649.000000	0.019593
1648.000000	0.019738
1647.000000	0.019917
1646.000000	0.020131
1645.000000	0.020401
1644.000000	0.020639
1643.000000	0.020795
1642.000000	0.020905
1641.000000	0.021017
1640.000000	0.021140
1639.000000	0.021265
1638.000000	0.021397
1637.000000	0.021535
1636.000000	0.021653
1635.000000	0.021757
1634.000000	0.021855
1633.000000	0.021897
1632.000000	0.021914
1631.000000	0.021944
1630.000000	0.021952
1629.000000	0.021890
1628.000000	0.021754
1627.000000	0.021585
1626.000000	0.021412
1625.000000	0.021221
1624.000000	0.020961
1623.000000	0.020613
1622.000000	0.020253
1621.000000	0.019955
1620.000000	0.019717
1619.000000	0.019497
1618.000000	0.019200
1617.000000	0.018742
1616.000000	0.018198
1615.000000	0.017704
1614.000000	0.017280
1613.000000	0.016898
1612.000000	0.016530
1611.000000	0.016147
1610.000000	0.015753
1609.000000	0.015368
1608.000000	0.015002
1607.000000	0.014655
1606.000000	0.014336
1605.000000	0.014045
1604.000000	0.013757
1603.000000	0.013460
1602.000000	0.013176
1601.000000	0.012926
1600.000000	0.012710
1599.000000	0.012521
1598.000000	0.012354
1597.000000	0.012198
1596.000000	0.012043
1595.000000	0.011900
1594.000000	0.011788
1593.000000	0.011708
1592.000000	0.011644
1591.000000	0.011590
1590.000000	0.011561
1589.000000	0.011564
1588.000000	0.011593
1587.000000	0.011639
1586.000000	0.011698
1585.000000	0.011756
1584.000000	0.011801
1583.000000	0.011839
1582.000000	0.011904
1581.000000	0.012003
1580.000000	0.012113
1579.000000	0.012228
1578.000000	0.012375
1577.000000	0.012554
1576.000000	0.012739
1575.000000	0.012912
1574.000000	0.013047
1573.000000	0.013153
1572.000000	0.013290
1571.000000	0.013472
1570.000000	0.013670
1569.000000	0.013876
1568.000000	0.014100
1567.000000	0.014331
1566.000000	0.014582
1565.000000	0.014856
1564.000000	0.015124
1563.000000	0.015380
1562.000000	0.015683
1561.000000	0.016075
1560.000000	0.016439
1559.000000	0.016572
1558.000000	0.016677
1557.000000	0.016919
1556.000000	0.017099
1555.000000	0.017260
1554.000000	0.017468
1553.000000	0.017692
1552.000000	0.017873
1551.000000	0.018010
1550.000000	0.018136
1549.000000	0.018282
1548.000000	0.018451
1547.000000	0.018605
1546.000000	0.018703
1545.000000	0.018730
1544.000000	0.018737
1543.000000	0.018806
1542.000000	0.018938
1541.000000	0.019011
1540.000000	0.018986
1539.000000	0.019024
1538.000000	0.019131
1537.000000	0.019154
1536.000000	0.019122
1535.000000	0.019080
1534.000000	0.018985
1533.000000	0.018839
1532.000000	0.018729
1531.000000	0.018680
1530.000000	0.018646
1529.000000	0.018584
1528.000000	0.018477
1527.000000	0.018336
1526.000000	0.018201
1525.000000	0.018107
1524.000000	0.018040
1523.000000	0.017942
1522.000000	0.017743
1521.000000	0.017479
1520.000000	0.017275
1519.000000	0.017126
1518.000000	0.016963
1517.000000	0.016769
1516.000000	0.016593
1515.000000	0.016482
1514.000000	0.016399
1513.000000	0.016283
1512.000000	0.016100
1511.000000	0.015861
1510.000000	0.015597
1509.000000	0.015317
1508.000000	0.014948
1507.000000	0.014466
1506.000000	0.014162
1505.000000	0.014141
1504.000000	0.014077
1503.000000	0.013890
1502.000000	0.013673
1501.000000	0.013452
1500.000000	0.013218
1499.000000	0.012967
1498.000000	0.012705
1497.000000	0.012431
1496.000000	0.012164
1495.000000	0.011910
1494.000000	0.011647
1493.000000	0.011377
1492.000000	0.011093
1491.000000	0.010753
1490.000000	0.010357
1489.000000	0.010020
1488.000000	0.009844
1487.000000	0.009791
1486.000000	0.009775
1485.000000	0.009762
1484.000000	0.009748
1483.000000	0.009716
1482.000000	0.009666
1481.000000	0.009623
1480.000000	0.009622
1479.000000	0.009661
1478.000000	0.009719
1477.000000	0.009780
1476.000000	0.009854
1475.000000	0.009950
1474.000000	0.010074
1473.000000	0.010225
1472.000000	0.010416
1471.000000	0.010645
1470.000000	0.010875
1469.000000	0.011091
1468.000000	0.011306
1467.000000	0.011512
1466.000000	0.011699
1465.000000	0.011874
1464.000000	0.012043
1463.000000	0.012194
1462.000000	0.012320
1461.000000	0.012437
1460.000000	0.012564
1459.000000	0.012699
1458.000000	0.012843
1457.000000	0.013047
1456.000000	0.013333
1455.000000	0.013571
1454.000000	0.013696
1453.000000	0.013793
1452.000000	0.013901
1451.000000	0.013995
1450.000000	0.014051
1449.000000	0.014070
1448.000000	0.014064
1447.000000	0.014054
1446.000000	0.014059
1445.000000	0.014076
1444.000000	0.014074
1443.000000	0.014045
1442.000000	0.013997
1441.000000	0.013937
1440.000000	0.013862
1439.000000	0.013773
1438.000000	0.013651
1437.000000	0.013463
1436.000000	0.013243
1435.000000	0.013057
1434.000000	0.012917
1433.000000	0.012810
1432.000000	0.012720
1431.000000	0.012620
1430.000000	0.012505
1429.000000	0.012404
1428.000000	0.012342
1427.000000	0.012301
1426.000000	0.012246
1425.000000	0.012159
1424.000000	0.012055
1423.000000	0.011993
1422.000000	0.012008
1421.000000	0.012070
1420.000000	0.012091
1419.000000	0.012009
1418.000000	0.011894
1417.000000	0.011843
1416.000000	0.011867
1415.000000	0.011932
1414.000000	0.011998
1413.000000	0.012041
1412.000000	0.012071
1411.000000	0.012116
1410.000000	0.012188
1409.000000	0.012270
1408.000000	0.012340
1407.000000	0.012385
1406.000000	0.012411
1405.000000	0.012439
1404.000000	0.012490
1403.000000	0.012562
1402.000000	0.012635
1401.000000	0.012684
1400.000000	0.012678
1399.000000	0.012603
1398.000000	0.012496
1397.000000	0.012401
1396.000000	0.012329
1395.000000	0.012271
1394.000000	0.012240
1393.000000	0.012250
1392.000000	0.012275
1391.000000	0.012287
1390.000000	0.012267
1389.000000	0.012199
1388.000000	0.012077
1387.000000	0.011932
1386.000000	0.011821
1385.000000	0.011761
1384.000000	0.011722
1383.000000	0.011667
1382.000000	0.011579
1381.000000	0.011463
1380.000000	0.011338
1379.000000	0.011215
1378.000000	0.011099
1377.000000	0.010984
1376.000000	0.010855
1375.000000	0.010700
1374.000000	0.010539
1373.000000	0.010416
1372.000000	0.010337
1371.000000	0.010266
1370.000000	0.010172
1369.000000	0.010056
1368.000000	0.009935
1367.000000	0.009817
1366.000000	0.009686
1365.000000	0.009518
1364.000000	0.009308
1363.000000	0.009096
1362.000000	0.008950
1361.000000	0.008900
1360.000000	0.008910
1359.000000	0.008924
1358.000000	0.008921
1357.000000	0.008910
1356.000000	0.008903
1355.000000	0.008904
1354.000000	0.008917
1353.000000	0.008948
1352.000000	0.008999
1351.000000	0.009065
1350.000000	0.009137
1349.000000	0.009219
1348.000000	0.009317
1347.000000	0.009432
1346.000000	0.009556
1345.000000	0.009680
1344.000000	0.009799
1343.000000	0.009901
1342.000000	0.009961
1341.000000	0.009968
1340.000000	0.009947
1339.000000	0.009951
1338.000000	0.010009
1337.000000	0.010100
1336.000000	0.010181
1335.000000	0.010229
1334.000000	0.010242
1333.000000	0.010225
1332.000000	0.010181
1331.000000	0.010111
1330.000000	0.010022
1329.000000	0.009927
1328.000000	0.009846
1327.000000	0.009790
1326.000000	0.009753
1325.000000	0.009717
1324.000000	0.009669
1323.000000	0.009612
1322.000000	0.009558
1321.000000	0.009510
1320.000000	0.009465
1319.000000	0.009419
1318.000000	0.009379
1317.000000	0.009355
1316.000000	0.009345
1315.000000	0.009334
1314.000000	0.009302
1313.000000	0.009242
1312.000000	0.009166
1311.000000	0.009093
1310.000000	0.009033
1309.000000	0.008983
1308.000000	0.008939
1307.000000	0.008897
1306.000000	0.008854
1305.000000	0.008806
1304.000000	0.008750
1303.000000	0.008689
1302.000000	0.008626
1301.000000	0.008565
1300.000000	0.008514
1299.000000	0.008474
1298.000000	0.008442
1297.000000	0.008410
1296.000000	0.008383
1295.000000	0.008375
1294.000000	0.008398
1293.000000	0.008449
1292.000000	0.008512
1291.000000	0.008577
1290.000000	0.008642
1289.000000	0.008715
1288.000000	0.008797
1287.000000	0.008886
1286.000000	0.008977
1285.000000	0.009067
1284.000000	0.009151
1283.000000	0.009218
1282.000000	0.009256
1281.000000	0.009264
1280.000000	0.009257
1279.000000	0.009247
1278.000000	0.009239
1277.000000	0.009235
1276.000000	0.009233
1275.000000	0.009228
1274.000000	0.009211
1273.000000	0.009180
1272.000000	0.009150
1271.000000	0.009148
1270.000000	0.009184
1269.000000	0.009240
1268.000000	0.009292
1267.000000	0.009324
1266.000000	0.009343
1265.000000	0.009366
1264.000000	0.009403
1263.000000	0.009458
1262.000000	0.009526
1261.000000	0.009610
1260.000000	0.009709
1259.000000	0.009822
1258.000000	0.009938
1257.000000	0.010039
1256.000000	0.010120
1255.000000	0.010190
1254.000000	0.010265
1253.000000	0.010360
1252.000000	0.010479
1251.000000	0.010618
1250.000000	0.010770
1249.000000	0.010927
1248.000000	0.011083
1247.000000	0.011238
1246.000000	0.011393
1245.000000	0.011545
1244.000000	0.011683
1243.000000	0.011803
1242.000000	0.011916
1241.000000	0.012038
1240.000000	0.012169
1239.000000	0.012287
1238.000000	0.012369
1237.000000	0.012409
1236.000000	0.012415
1235.000000	0.012399
1234.000000	0.012365
1233.000000	0.012314
1232.000000	0.012247
1231.000000	0.012164
1230.000000	0.012068
1229.000000	0.011960
1228.000000	0.011833
1227.000000	0.011677
1226.000000	0.011489
1225.000000	0.011273
1224.000000	0.011042
1223.000000	0.010812
1222.000000	0.010595
1221.000000	0.010389
1220.000000	0.010189
1219.000000	0.009994
1218.000000	0.009815
1217.000000	0.009665
1216.000000	0.009552
1215.000000	0.009468
1214.000000	0.009400
1213.000000	0.009336
1212.000000	0.009284
1211.000000	0.009264
1210.000000	0.009292
1209.000000	0.009362
1208.000000	0.009438
1207.000000	0.009491
1206.000000	0.009517
1205.000000	0.009532
1204.000000	0.009551
1203.000000	0.009568
1202.000000	0.009569
1201.000000	0.009544
1200.000000	0.009491
1199.000000	0.009410
1198.000000	0.009300
1197.000000	0.009163
1196.000000	0.009008
1195.000000	0.008856
1194.000000	0.008727
1193.000000	0.008624
1192.000000	0.008529
1191.000000	0.008418
1190.000000	0.008281
1189.000000	0.008133
1188.000000	0.007993
1187.000000	0.007872
1186.000000	0.007769
1185.000000	0.007677
1184.000000	0.007596
1183.000000	0.007525
1182.000000	0.007463
1181.000000	0.007406
1180.000000	0.007355
1179.000000	0.007317
1178.000000	0.007300
1177.000000	0.007300
1176.000000	0.007306
1175.000000	0.007314
1174.000000	0.007323
1173.000000	0.007339
1172.000000	0.007362
1171.000000	0.007387
1170.000000	0.007412
1169.000000	0.007439
1168.000000	0.007470
1167.000000	0.007507
1166.000000	0.007550
1165.000000	0.007598
1164.000000	0.007650
1163.000000	0.007697
1162.000000	0.007728
1161.000000	0.007739
1160.000000	0.007739
1159.000000	0.007735
1158.000000	0.007723
1157.000000	0.007690
1156.000000	0.007623
1155.000000	0.007523
1154.000000	0.007405
1153.000000	0.007294
1152.000000	0.007203
1151.000000	0.007130
1150.000000	0.007062
1149.000000	0.006982
1148.000000	0.006882
1147.000000	0.006768
1146.000000	0.006656
1145.000000	0.006558
1144.000000	0.006471
1143.000000	0.006385
1142.000000	0.006298
1141.000000	0.006217
1140.000000	0.006146
1139.000000	0.006081
1138.000000	0.006015
1137.000000	0.005950
1136.000000	0.005891
1135.000000	0.005831
1134.000000	0.005761
1133.000000	0.005689
1132.000000	0.005636
1131.000000	0.005610
1130.000000	0.005594
1129.000000	0.005572
1128.000000	0.005550
1127.000000	0.005545
1126.000000	0.005551
1125.000000	0.005547
1124.000000	0.005527
1123.000000	0.005509
1122.000000	0.005509
1121.000000	0.005523
1120.000000	0.005538
1119.000000	0.005552
1118.000000	0.005570
1117.000000	0.005592
1116.000000	0.005612
1115.000000	0.005630
1114.000000	0.005648
1113.000000	0.005670
1112.000000	0.005696
1111.000000	0.005723
1110.000000	0.005751
1109.000000	0.005777
1108.000000	0.005791
1107.000000	0.005793
1106.000000	0.005793
1105.000000	0.005811
1104.000000	0.005859
1103.000000	0.005931
1102.000000	0.006002
1101.000000	0.006060
1100.000000	0.006114
1099.000000	0.006176
1098.000000	0.006235
1097.000000	0.006262
1096.000000	0.006249
1095.000000	0.006226
1094.000000	0.006241
1093.000000	0.006316
1092.000000	0.006439
1091.000000	0.006577
1090.000000	0.006703
1089.000000	0.006810
1088.000000	0.006907
1087.000000	0.007016
1086.000000	0.007155
1085.000000	0.007324
1084.000000	0.007495
1083.000000	0.007633
1082.000000	0.007715
1081.000000	0.007748
1080.000000	0.007752
1079.000000	0.007740
1078.000000	0.007705
1077.000000	0.007631
1076.000000	0.007517
1075.000000	0.007378
1074.000000	0.007234
1073.000000	0.007101
1072.000000	0.006989
1071.000000	0.006903
1070.000000	0.006838
1069.000000	0.006783
1068.000000	0.006736
1067.000000	0.006704
1066.000000	0.006693
1065.000000	0.006697
1064.000000	0.006708
1063.000000	0.006725
1062.000000	0.006750
1061.000000	0.006771
1060.000000	0.006773
1059.000000	0.006751
1058.000000	0.006723
1057.000000	0.006714
1056.000000	0.006730
1055.000000	0.006753
1054.000000	0.006752
1053.000000	0.006711
1052.000000	0.006644
1051.000000	0.006586
1050.000000	0.006558
1049.000000	0.006547
1048.000000	0.006533
1047.000000	0.006508
1046.000000	0.006479
1045.000000	0.006449
1044.000000	0.006418
1043.000000	0.006396
1042.000000	0.006402
1041.000000	0.006445
1040.000000	0.006511
1039.000000	0.006587
1038.000000	0.006675
1037.000000	0.006781
1036.000000	0.006893
1035.000000	0.006986
1034.000000	0.007049
1033.000000	0.007094
1032.000000	0.007139
1031.000000	0.007183
1030.000000	0.007212
1029.000000	0.007210
1028.000000	0.007171
1027.000000	0.007099
1026.000000	0.007002
1025.000000	0.006896
1024.000000	0.006802
1023.000000	0.006735
1022.000000	0.006694
1021.000000	0.006660
1020.000000	0.006615
1019.000000	0.006560
1018.000000	0.006506
1017.000000	0.006455
1016.000000	0.006392
1015.000000	0.006303
1014.000000	0.006191
1013.000000	0.006079
1012.000000	0.005987
1011.000000	0.005914
1010.000000	0.005842
1009.000000	0.005762
1008.000000	0.005671
1007.000000	0.005569
1006.000000	0.005453
1005.000000	0.005329
1004.000000	0.005207
1003.000000	0.005095
1002.000000	0.004993
1001.000000	0.004907
1000.000000	0.004843
999.000000	0.004805
998.000000	0.004774
997.000000	0.004720
996.000000	0.004630
995.000000	0.004522
994.000000	0.004418
993.000000	0.004329
992.000000	0.004250
991.000000	0.004176
990.000000	0.004104
989.000000	0.004031
988.000000	0.003952
987.000000	0.003876
986.000000	0.003811
985.000000	0.003760
984.000000	0.003718
983.000000	0.003681
982.000000	0.003655
981.000000	0.003644
980.000000	0.003643
979.000000	0.003638
978.000000	0.003624
977.000000	0.003612
976.000000	0.003617
975.000000	0.003639
974.000000	0.003660
973.000000	0.003654
972.000000	0.003614
971.000000	0.003556
970.000000	0.003505
969.000000	0.003470
968.000000	0.003433
967.000000	0.003376
966.000000	0.003299
965.000000	0.003226
964.000000	0.003177
963.000000	0.003146
962.000000	0.003105
961.000000	0.003046
960.000000	0.002983
959.000000	0.002935
958.000000	0.002894
957.000000	0.002839
956.000000	0.002766
955.000000	0.002700
954.000000	0.002662
953.000000	0.002651
952.000000	0.002646
951.000000	0.002632
950.000000	0.002611
949.000000	0.002598
948.000000	0.002605
947.000000	0.002624
946.000000	0.002636
945.000000	0.002637
944.000000	0.002637
943.000000	0.002643
942.000000	0.002641
941.000000	0.002614
940.000000	0.002570
939.000000	0.002535
938.000000	0.002515
937.000000	0.002486
936.000000	0.002430
935.000000	0.002371
934.000000	0.002351
933.000000	0.002378
932.000000	0.002421
931.000000	0.002445
930.000000	0.002442
929.000000	0.002428
928.000000	0.002414
927.000000	0.002399
926.000000	0.002376
925.000000	0.002345
924.000000	0.002319
923.000000	0.002311
922.000000	0.002322
921.000000	0.002338
920.000000	0.002345
919.000000	0.002339
918.000000	0.002315
917.000000	0.002270
916.000000	0.002210
915.000000	0.002153
914.000000	0.002106
913.000000	0.002063
912.000000	0.002011
911.000000	0.001953
910.000000	0.001905
909.000000	0.001876
908.000000	0.001867
907.000000	0.001878
906.000000	0.001906
905.000000	0.001929
904.000000	0.001928
903.000000	0.001907
902.000000	0.001883
901.000000	0.001867
900.000000	0.001857
899.000000	0.001849
898.000000	0.001841
897.000000	0.001825
896.000000	0.001791
895.000000	0.001750
894.000000	0.001730
893.000000	0.001749
892.000000	0.001790
891.000000	0.001822
890.000000	0.001826
889.000000	0.001801
888.000000	0.001764
887.000000	0.001738
886.000000	0.001749
885.000000	0.001804
884.000000	0.001886
883.000000	0.001977
882.000000	0.002069
881.000000	0.002169
880.000000	0.002278
879.000000	0.002392
878.000000	0.002506
877.000000	0.002607
876.000000	0.002669
875.000000	0.002678
874.000000	0.002648
873.000000	0.002603
872.000000	0.002549
871.000000	0.002482
870.000000	0.002402
869.000000	0.002319
868.000000	0.002237
867.000000	0.002154
866.000000	0.002070
865.000000	0.001989
864.000000	0.001913
863.000000	0.001849
862.000000	0.001817
861.000000	0.001838
860.000000	0.001901
859.000000	0.001963
858.000000	0.001988
857.000000	0.001981
856.000000	0.001973
855.000000	0.001988
854.000000	0.002033
853.000000	0.002095
852.000000	0.002152
851.000000	0.002178
850.000000	0.002158
849.000000	0.002101
848.000000	0.002029
847.000000	0.001968
846.000000	0.001934
845.000000	0.001934
844.000000	0.001954
843.000000	0.001974
842.000000	0.001974
841.000000	0.001948
840.000000	0.001907
839.000000	0.001875
838.000000	0.001874
837.000000	0.001904
836.000000	0.001933
835.000000	0.001922
834.000000	0.001873
833.000000	0.001820
832.000000	0.001790
831.000000	0.001775
830.000000	0.001757
829.000000	0.001741
828.000000	0.001738
827.000000	0.001748
826.000000	0.001758
825.000000	0.001772
824.000000	0.001797
823.000000	0.001825
822.000000	0.001838
821.000000	0.001832
820.000000	0.001816
819.000000	0.001791
818.000000	0.001760
817.000000	0.001741
816.000000	0.001761
815.000000	0.001817
814.000000	0.001874
813.000000	0.001897
812.000000	0.001886
811.000000	0.001873
810.000000	0.001888
809.000000	0.001935
808.000000	0.001984
807.000000	0.001996
806.000000	0.001959
805.000000	0.001897
804.000000	0.001846
803.000000	0.001812
802.000000	0.001776
801.000000	0.001733
800.000000	0.001708
799.000000	0.001717
798.000000	0.001751
797.000000	0.001787
796.000000	0.001814
795.000000	0.001834
794.000000	0.001847
793.000000	0.001851
792.000000	0.001861
791.000000	0.001906
790.000000	0.001995
789.000000	0.002096
788.000000	0.002158
787.000000	0.002156
786.000000	0.002106
785.000000	0.002053
784.000000	0.002028
783.000000	0.002031
782.000000	0.002039
781.000000	0.002025
780.000000	0.001983
779.000000	0.001931
778.000000	0.001908
777.000000	0.001939
776.000000	0.002006
775.000000	0.002058
774.000000	0.002049
773.000000	0.001979
772.000000	0.001888
771.000000	0.001831
770.000000	0.001848
769.000000	0.001929
768.000000	0.002023
767.000000	0.002078
766.000000	0.002089
765.000000	0.002092
764.000000	0.002115
763.000000	0.002144
762.000000	0.002157
761.000000	0.002150
760.000000	0.002138
759.000000	0.002125
758.000000	0.002117
757.000000	0.002127
756.000000	0.002153
755.000000	0.002158
754.000000	0.002108
753.000000	0.002027
752.000000	0.001978
751.000000	0.001996
750.000000	0.002053
749.000000	0.002103
748.000000	0.002132
747.000000	0.002159
746.000000	0.002203
745.000000	0.002266
744.000000	0.002333
743.000000	0.002380
742.000000	0.002402
741.000000	0.002424
740.000000	0.002482
739.000000	0.002573
738.000000	0.002653
737.000000	0.002686
736.000000	0.002679
735.000000	0.002662
734.000000	0.002650
733.000000	0.002652
732.000000	0.002686
731.000000	0.002771
730.000000	0.002895
729.000000	0.003018
728.000000	0.003106
727.000000	0.003155
726.000000	0.003178
725.000000	0.003184
724.000000	0.003178
723.000000	0.003173
722.000000	0.003185
721.000000	0.003222
720.000000	0.003273
719.000000	0.003326
718.000000	0.003373
717.000000	0.003410
716.000000	0.003440
715.000000	0.003472
714.000000	0.003521
713.000000	0.003592
712.000000	0.003669
711.000000	0.003722
710.000000	0.003741
709.000000	0.003748
708.000000	0.003772
707.000000	0.003820
706.000000	0.003883
705.000000	0.003949
704.000000	0.004005
703.000000	0.004027
702.000000	0.004008
701.000000	0.003979
700.000000	0.003988
699.000000	0.004047
698.000000	0.004121
697.000000	0.004174
696.000000	0.004212
695.000000	0.004257
694.000000	0.004310
693.000000	0.004355
692.000000	0.004386
691.000000	0.004410
690.000000	0.004426
689.000000	0.004422
688.000000	0.004401
687.000000	0.004379
686.000000	0.004369
685.000000	0.004379
684.000000	0.004422
683.000000	0.004512
682.000000	0.004634
681.000000	0.004733
680.000000	0.004756
679.000000	0.004702
678.000000	0.004618
677.000000	0.004567
676.000000	0.004587
675.000000	0.004674
674.000000	0.004789
673.000000	0.004884
672.000000	0.004936
671.000000	0.004954
670.000000	0.004956
669.000000	0.004936
668.000000	0.004881
667.000000	0.004846
666.000000	0.004891
665.000000	0.004988
664.000000	0.005078
663.000000	0.005118
662.000000	0.005084
661.000000	0.004982
660.000000	0.004853
659.000000	0.004771
658.000000	0.004806
657.000000	0.004954
656.000000	0.005140
655.000000	0.005285
654.000000	0.005366
653.000000	0.005403
652.000000	0.005422
651.000000	0.005432
650.000000	0.005443
649.000000	0.005458
648.000000	0.005456
647.000000	0.005407
646.000000	0.005311
645.000000	0.005197
644.000000	0.005092
643.000000	0.005005
642.000000	0.004953
641.000000	0.004959
640.000000	0.005016
639.000000	0.005090
638.000000	0.005145
637.000000	0.005178
636.000000	0.005190
635.000000	0.005172
634.000000	0.005123
633.000000	0.005078
632.000000	0.005087
631.000000	0.005161
630.000000	0.005263
629.000000	0.005352
628.000000	0.005417
627.000000	0.005472
626.000000	0.005532
625.000000	0.005594
624.000000	0.005635
623.000000	0.005625
622.000000	0.005551
621.000000	0.005437
620.000000	0.005333
619.000000	0.005281
618.000000	0.005294
617.000000	0.005357
616.000000	0.005445
615.000000	0.005544
614.000000	0.005638
613.000000	0.005706
612.000000	0.005714
611.000000	0.005643
610.000000	0.005519
609.000000	0.005408
608.000000	0.005375
607.000000	0.005432
606.000000	0.005521
605.000000	0.005555
604.000000	0.005485
603.000000	0.005351
602.000000	0.005258
601.000000	0.005280
600.000000	0.005387
599.000000	0.005482
598.000000	0.005503
597.000000	0.005488
596.000000	0.005509
595.000000	0.005588
594.000000	0.005688
593.000000	0.005763
592.000000	0.005794
591.000000	0.005792
590.000000	0.005781
589.000000	0.005790
588.000000	0.005818
587.000000	0.005827
586.000000	0.005778
585.000000	0.005695
584.000000	0.005651
583.000000	0.005694
582.000000	0.005797
581.000000	0.005895
580.000000	0.005953
579.000000	0.005967
578.000000	0.005923
577.000000	0.005804
576.000000	0.005653
575.000000	0.005592
574.000000	0.005719
573.000000	0.005994
572.000000	0.006263
571.000000	0.006411
570.000000	0.006462
569.000000	0.006505
568.000000	0.006559
567.000000	0.006570
566.000000	0.006530
565.000000	0.006511
564.000000	0.006561
563.000000	0.006632
562.000000	0.006652
561.000000	0.006620
560.000000	0.006569
559.000000	0.006512
558.000000	0.006450
557.000000	0.006427
556.000000	0.006485
555.000000	0.006586
554.000000	0.006635
553.000000	0.006593
552.000000	0.006528
551.000000	0.006521
550.000000	0.006578
549.000000	0.006634
548.000000	0.006623
547.000000	0.006538
546.000000	0.006434
545.000000	0.006376
544.000000	0.006373
543.000000	0.006373
542.000000	0.006330
541.000000	0.006252
540.000000	0.006178
539.000000	0.006134
538.000000	0.006139
537.000000	0.006234
536.000000	0.006443
535.000000	0.006698
534.000000	0.006884
533.000000	0.006945
532.000000	0.006931
531.000000	0.006903
530.000000	0.006842
529.000000	0.006674
528.000000	0.006389
527.000000	0.006102
526.000000	0.005982
525.000000	0.006108
524.000000	0.006386
523.000000	0.006643
522.000000	0.006773
521.000000	0.006758
520.000000	0.006620
519.000000	0.006370
518.000000	0.006024
517.000000	0.005647
516.000000	0.005336
515.000000	0.005178
514.000000	0.005208
513.000000	0.005393
512.000000	0.005627
511.000000	0.005798
510.000000	0.005869
509.000000	0.005895
508.000000	0.005940
507.000000	0.006004
506.000000	0.006037
505.000000	0.005985
504.000000	0.005812
503.000000	0.005509
502.000000	0.005135
501.000000	0.004820
500.000000	0.004656
499.000000	0.004645
498.000000	0.004744
497.000000	0.004904
496.000000	0.005056
495.000000	0.005110
494.000000	0.005023
493.000000	0.004841
492.000000	0.004660
491.000000	0.004557
490.000000	0.004567
489.000000	0.004656
488.000000	0.004700
487.000000	0.004539
486.000000	0.004147
485.000000	0.003741
484.000000	0.003610
483.000000	0.003828
482.000000	0.004174
481.000000	0.004358
480.000000	0.004260
479.000000	0.003978
478.000000	0.003702
477.000000	0.003546
476.000000	0.003461
475.000000	0.003335
474.000000	0.003176
473.000000	0.003128
472.000000	0.003265
471.000000	0.003452
470.000000	0.003548
469.000000	0.003589
468.000000	0.003633
467.000000	0.003593
466.000000	0.003364
465.000000	0.003049
464.000000	0.002849
463.000000	0.002787
462.000000	0.002711
461.000000	0.002562
460.000000	0.002471
459.000000	0.002525
458.000000	0.002613
457.000000	0.002591
456.000000	0.002484
455.000000	0.002380
454.000000	0.002252
453.000000	0.002053
452.000000	0.001819
451.000000	0.001711
450.000000	0.001795
