PE IR       SUBTECH     SPECTRUM    ASCII       PEDS        4.00        
   -1
3C-N10-F019_1.ASC
22/02/16
15:34:56.00
22/02/16
15:56:00.00
uco
Sample 019 By uco Date Wednesday, February 16 2022
450.000000
#HDR
-1
-1
#GR
cm-1
A
1.0
0.0
4000.000000
-1.000000
3551
8
0.068860
0.005326
#DATA
4000.000000	0.005767
3999.000000	0.005758
3998.000000	0.005758
3997.000000	0.005773
3996.000000	0.005790
3995.000000	0.005800
3994.000000	0.005798
3993.000000	0.005787
3992.000000	0.005774
3991.000000	0.005767
3990.000000	0.005768
3989.000000	0.005775
3988.000000	0.005784
3987.000000	0.005793
3986.000000	0.005806
3985.000000	0.005824
3984.000000	0.005842
3983.000000	0.005852
3982.000000	0.005851
3981.000000	0.005844
3980.000000	0.005839
3979.000000	0.005838
3978.000000	0.005838
3977.000000	0.005834
3976.000000	0.005825
3975.000000	0.005816
3974.000000	0.005813
3973.000000	0.005817
3972.000000	0.005824
3971.000000	0.005828
3970.000000	0.005827
3969.000000	0.005826
3968.000000	0.005832
3967.000000	0.005850
3966.000000	0.005881
3965.000000	0.005917
3964.000000	0.005947
3963.000000	0.005966
3962.000000	0.005977
3961.000000	0.005982
3960.000000	0.005984
3959.000000	0.005982
3958.000000	0.005975
3957.000000	0.005968
3956.000000	0.005964
3955.000000	0.005963
3954.000000	0.005962
3953.000000	0.005956
3952.000000	0.005944
3951.000000	0.005926
3950.000000	0.005907
3949.000000	0.005895
3948.000000	0.005897
3947.000000	0.005913
3946.000000	0.005937
3945.000000	0.005958
3944.000000	0.005972
3943.000000	0.005980
3942.000000	0.005986
3941.000000	0.005990
3940.000000	0.005984
3939.000000	0.005970
3938.000000	0.005958
3937.000000	0.005959
3936.000000	0.005976
3935.000000	0.006000
3934.000000	0.006016
3933.000000	0.006014
3932.000000	0.005993
3931.000000	0.005962
3930.000000	0.005935
3929.000000	0.005930
3928.000000	0.005951
3927.000000	0.005987
3926.000000	0.006017
3925.000000	0.006034
3924.000000	0.006041
3923.000000	0.006040
3922.000000	0.006030
3921.000000	0.006012
3920.000000	0.005992
3919.000000	0.005972
3918.000000	0.005950
3917.000000	0.005928
3916.000000	0.005917
3915.000000	0.005922
3914.000000	0.005938
3913.000000	0.005955
3912.000000	0.005968
3911.000000	0.005976
3910.000000	0.005983
3909.000000	0.005996
3908.000000	0.006019
3907.000000	0.006045
3906.000000	0.006059
3905.000000	0.006059
3904.000000	0.006056
3903.000000	0.006067
3902.000000	0.006085
3901.000000	0.006091
3900.000000	0.006081
3899.000000	0.006069
3898.000000	0.006066
3897.000000	0.006074
3896.000000	0.006088
3895.000000	0.006104
3894.000000	0.006115
3893.000000	0.006105
3892.000000	0.006074
3891.000000	0.006051
3890.000000	0.006059
3889.000000	0.006082
3888.000000	0.006076
3887.000000	0.006023
3886.000000	0.005960
3885.000000	0.005947
3884.000000	0.005997
3883.000000	0.006064
3882.000000	0.006100
3881.000000	0.006101
3880.000000	0.006090
3879.000000	0.006091
3878.000000	0.006093
3877.000000	0.006077
3876.000000	0.006040
3875.000000	0.006008
3874.000000	0.006016
3873.000000	0.006063
3872.000000	0.006103
3871.000000	0.006106
3870.000000	0.006102
3869.000000	0.006137
3868.000000	0.006201
3867.000000	0.006237
3866.000000	0.006217
3865.000000	0.006174
3864.000000	0.006146
3863.000000	0.006135
3862.000000	0.006124
3861.000000	0.006112
3860.000000	0.006117
3859.000000	0.006154
3858.000000	0.006223
3857.000000	0.006307
3856.000000	0.006372
3855.000000	0.006381
3854.000000	0.006325
3853.000000	0.006254
3852.000000	0.006204
3851.000000	0.006160
3850.000000	0.006112
3849.000000	0.006080
3848.000000	0.006080
3847.000000	0.006100
3846.000000	0.006119
3845.000000	0.006125
3844.000000	0.006119
3843.000000	0.006115
3842.000000	0.006120
3841.000000	0.006124
3840.000000	0.006118
3839.000000	0.006113
3838.000000	0.006122
3837.000000	0.006142
3836.000000	0.006157
3835.000000	0.006160
3834.000000	0.006152
3833.000000	0.006142
3832.000000	0.006137
3831.000000	0.006135
3830.000000	0.006124
3829.000000	0.006093
3828.000000	0.006044
3827.000000	0.006000
3826.000000	0.005999
3825.000000	0.006051
3824.000000	0.006127
3823.000000	0.006182
3822.000000	0.006199
3821.000000	0.006205
3820.000000	0.006227
3819.000000	0.006244
3818.000000	0.006222
3817.000000	0.006166
3816.000000	0.006120
3815.000000	0.006109
3814.000000	0.006106
3813.000000	0.006075
3812.000000	0.006031
3811.000000	0.006017
3810.000000	0.006045
3809.000000	0.006079
3808.000000	0.006078
3807.000000	0.006052
3806.000000	0.006050
3805.000000	0.006086
3804.000000	0.006125
3803.000000	0.006137
3802.000000	0.006133
3801.000000	0.006145
3800.000000	0.006175
3799.000000	0.006179
3798.000000	0.006138
3797.000000	0.006078
3796.000000	0.006035
3795.000000	0.006014
3794.000000	0.005989
3793.000000	0.005947
3792.000000	0.005902
3791.000000	0.005877
3790.000000	0.005877
3789.000000	0.005891
3788.000000	0.005908
3787.000000	0.005918
3786.000000	0.005921
3785.000000	0.005923
3784.000000	0.005933
3783.000000	0.005954
3782.000000	0.005970
3781.000000	0.005970
3780.000000	0.005955
3779.000000	0.005944
3778.000000	0.005945
3777.000000	0.005948
3776.000000	0.005939
3775.000000	0.005922
3774.000000	0.005914
3773.000000	0.005920
3772.000000	0.005930
3771.000000	0.005935
3770.000000	0.005944
3769.000000	0.005970
3768.000000	0.006003
3767.000000	0.006017
3766.000000	0.006002
3765.000000	0.005973
3764.000000	0.005951
3763.000000	0.005938
3762.000000	0.005923
3761.000000	0.005905
3760.000000	0.005896
3759.000000	0.005901
3758.000000	0.005915
3757.000000	0.005936
3756.000000	0.005962
3755.000000	0.005986
3754.000000	0.006004
3753.000000	0.006029
3752.000000	0.006071
3751.000000	0.006115
3750.000000	0.006135
3749.000000	0.006143
3748.000000	0.006160
3747.000000	0.006170
3746.000000	0.006139
3745.000000	0.006079
3744.000000	0.006043
3743.000000	0.006047
3742.000000	0.006039
3741.000000	0.005996
3740.000000	0.005954
3739.000000	0.005953
3738.000000	0.005990
3737.000000	0.006031
3736.000000	0.006051
3735.000000	0.006050
3734.000000	0.006035
3733.000000	0.006007
3732.000000	0.005976
3731.000000	0.005956
3730.000000	0.005943
3729.000000	0.005917
3728.000000	0.005866
3727.000000	0.005802
3726.000000	0.005753
3725.000000	0.005734
3724.000000	0.005737
3723.000000	0.005748
3722.000000	0.005757
3721.000000	0.005762
3720.000000	0.005762
3719.000000	0.005761
3718.000000	0.005764
3717.000000	0.005786
3716.000000	0.005834
3715.000000	0.005901
3714.000000	0.005748
3713.000000	0.005762
3712.000000	0.005766
3711.000000	0.005754
3710.000000	0.005731
3709.000000	0.006002
3708.000000	0.005911
3707.000000	0.005834
3706.000000	0.005790
3705.000000	0.005778
3704.000000	0.005780
3703.000000	0.005779
3702.000000	0.005769
3701.000000	0.005754
3700.000000	0.005742
3699.000000	0.005733
3698.000000	0.005728
3697.000000	0.005738
3696.000000	0.005772
3695.000000	0.005819
3694.000000	0.005861
3693.000000	0.005893
3692.000000	0.005928
3691.000000	0.005973
3690.000000	0.006019
3689.000000	0.006046
3688.000000	0.006047
3687.000000	0.006025
3686.000000	0.005988
3685.000000	0.005949
3684.000000	0.005927
3683.000000	0.005936
3682.000000	0.005971
3681.000000	0.006021
3680.000000	0.006098
3679.000000	0.006219
3678.000000	0.006365
3677.000000	0.006475
3676.000000	0.006509
3675.000000	0.006497
3674.000000	0.006487
3673.000000	0.006470
3672.000000	0.006424
3671.000000	0.006365
3670.000000	0.006338
3669.000000	0.006361
3668.000000	0.006394
3667.000000	0.006401
3666.000000	0.006388
3665.000000	0.006380
3664.000000	0.006390
3663.000000	0.006407
3662.000000	0.006418
3661.000000	0.006425
3660.000000	0.006446
3659.000000	0.006483
3658.000000	0.006524
3657.000000	0.006559
3656.000000	0.006598
3655.000000	0.006660
3654.000000	0.006740
3653.000000	0.006813
3652.000000	0.006865
3651.000000	0.006904
3650.000000	0.006951
3649.000000	0.007020
3648.000000	0.007099
3647.000000	0.007166
3646.000000	0.007211
3645.000000	0.007229
3644.000000	0.007218
3643.000000	0.007189
3642.000000	0.007164
3641.000000	0.007164
3640.000000	0.007198
3639.000000	0.007256
3638.000000	0.007324
3637.000000	0.007395
3636.000000	0.007462
3635.000000	0.007524
3634.000000	0.007589
3633.000000	0.007660
3632.000000	0.007721
3631.000000	0.007756
3630.000000	0.007775
3629.000000	0.007823
3628.000000	0.007914
3627.000000	0.008002
3626.000000	0.008047
3625.000000	0.008057
3624.000000	0.008062
3623.000000	0.008080
3622.000000	0.008107
3621.000000	0.008134
3620.000000	0.008167
3619.000000	0.008216
3618.000000	0.008284
3617.000000	0.008362
3616.000000	0.008442
3615.000000	0.008523
3614.000000	0.008605
3613.000000	0.008685
3612.000000	0.008755
3611.000000	0.008804
3610.000000	0.008834
3609.000000	0.008864
3608.000000	0.008914
3607.000000	0.008990
3606.000000	0.009078
3605.000000	0.009162
3604.000000	0.009236
3603.000000	0.009303
3602.000000	0.009367
3601.000000	0.009433
3600.000000	0.009498
3599.000000	0.009562
3598.000000	0.009627
3597.000000	0.009700
3596.000000	0.009782
3595.000000	0.009868
3594.000000	0.009949
3593.000000	0.010018
3592.000000	0.010075
3591.000000	0.010122
3590.000000	0.010165
3589.000000	0.010224
3588.000000	0.010318
3587.000000	0.010452
3586.000000	0.010604
3585.000000	0.010739
3584.000000	0.010842
3583.000000	0.010915
3582.000000	0.010972
3581.000000	0.011033
3580.000000	0.011113
3579.000000	0.011216
3578.000000	0.011338
3577.000000	0.011461
3576.000000	0.011564
3575.000000	0.011636
3574.000000	0.011688
3573.000000	0.011740
3572.000000	0.011802
3571.000000	0.011870
3570.000000	0.011937
3569.000000	0.012007
3568.000000	0.012096
3567.000000	0.012211
3566.000000	0.012341
3565.000000	0.012461
3564.000000	0.012557
3563.000000	0.012628
3562.000000	0.012688
3561.000000	0.012758
3560.000000	0.012852
3559.000000	0.012970
3558.000000	0.013096
3557.000000	0.013210
3556.000000	0.013304
3555.000000	0.013381
3554.000000	0.013456
3553.000000	0.013543
3552.000000	0.013643
3551.000000	0.013741
3550.000000	0.013824
3549.000000	0.013892
3548.000000	0.013962
3547.000000	0.014052
3546.000000	0.014165
3545.000000	0.014291
3544.000000	0.014411
3543.000000	0.014515
3542.000000	0.014606
3541.000000	0.014693
3540.000000	0.014785
3539.000000	0.014883
3538.000000	0.014984
3537.000000	0.015086
3536.000000	0.015185
3535.000000	0.015282
3534.000000	0.015377
3533.000000	0.015467
3532.000000	0.015552
3531.000000	0.015631
3530.000000	0.015708
3529.000000	0.015788
3528.000000	0.015877
3527.000000	0.015971
3526.000000	0.016059
3525.000000	0.016134
3524.000000	0.016202
3523.000000	0.016278
3522.000000	0.016377
3521.000000	0.016501
3520.000000	0.016637
3519.000000	0.016765
3518.000000	0.016874
3517.000000	0.016961
3516.000000	0.017035
3515.000000	0.017105
3514.000000	0.017180
3513.000000	0.017265
3512.000000	0.017357
3511.000000	0.017446
3510.000000	0.017523
3509.000000	0.017585
3508.000000	0.017639
3507.000000	0.017694
3506.000000	0.017757
3505.000000	0.017831
3504.000000	0.017913
3503.000000	0.017999
3502.000000	0.018086
3501.000000	0.018175
3500.000000	0.018270
3499.000000	0.018367
3498.000000	0.018460
3497.000000	0.018538
3496.000000	0.018598
3495.000000	0.018646
3494.000000	0.018694
3493.000000	0.018749
3492.000000	0.018811
3491.000000	0.018873
3490.000000	0.018936
3489.000000	0.019002
3488.000000	0.019076
3487.000000	0.019158
3486.000000	0.019243
3485.000000	0.019325
3484.000000	0.019398
3483.000000	0.019465
3482.000000	0.019534
3481.000000	0.019611
3480.000000	0.019698
3479.000000	0.019785
3478.000000	0.019865
3477.000000	0.019936
3476.000000	0.020003
3475.000000	0.020065
3474.000000	0.020121
3473.000000	0.020171
3472.000000	0.020223
3471.000000	0.020289
3470.000000	0.020372
3469.000000	0.020462
3468.000000	0.020546
3467.000000	0.020614
3466.000000	0.020668
3465.000000	0.020713
3464.000000	0.020763
3463.000000	0.020824
3462.000000	0.020897
3461.000000	0.020971
3460.000000	0.021037
3459.000000	0.021090
3458.000000	0.021140
3457.000000	0.021194
3456.000000	0.021254
3455.000000	0.021323
3454.000000	0.021400
3453.000000	0.021485
3452.000000	0.021570
3451.000000	0.021645
3450.000000	0.021708
3449.000000	0.021768
3448.000000	0.021836
3447.000000	0.021915
3446.000000	0.021998
3445.000000	0.022072
3444.000000	0.022133
3443.000000	0.022183
3442.000000	0.022233
3441.000000	0.022291
3440.000000	0.022358
3439.000000	0.022429
3438.000000	0.022503
3437.000000	0.022582
3436.000000	0.022668
3435.000000	0.022755
3434.000000	0.022834
3433.000000	0.022902
3432.000000	0.022967
3431.000000	0.023041
3430.000000	0.023124
3429.000000	0.023201
3428.000000	0.023262
3427.000000	0.023311
3426.000000	0.023365
3425.000000	0.023431
3424.000000	0.023504
3423.000000	0.023573
3422.000000	0.023638
3421.000000	0.023701
3420.000000	0.023767
3419.000000	0.023838
3418.000000	0.023917
3417.000000	0.024000
3416.000000	0.024080
3415.000000	0.024150
3414.000000	0.024216
3413.000000	0.024286
3412.000000	0.024361
3411.000000	0.024435
3410.000000	0.024504
3409.000000	0.024574
3408.000000	0.024650
3407.000000	0.024729
3406.000000	0.024802
3405.000000	0.024863
3404.000000	0.024916
3403.000000	0.024968
3402.000000	0.025025
3401.000000	0.025085
3400.000000	0.025146
3399.000000	0.025210
3398.000000	0.025280
3397.000000	0.025358
3396.000000	0.025440
3395.000000	0.025519
3394.000000	0.025589
3393.000000	0.025651
3392.000000	0.025710
3391.000000	0.025769
3390.000000	0.025832
3389.000000	0.025898
3388.000000	0.025963
3387.000000	0.026024
3386.000000	0.026080
3385.000000	0.026138
3384.000000	0.026203
3383.000000	0.026281
3382.000000	0.026368
3381.000000	0.026460
3380.000000	0.026552
3379.000000	0.026648
3378.000000	0.026752
3377.000000	0.026865
3376.000000	0.026979
3375.000000	0.027080
3374.000000	0.027165
3373.000000	0.027240
3372.000000	0.027322
3371.000000	0.027420
3370.000000	0.027535
3369.000000	0.027653
3368.000000	0.027761
3367.000000	0.027853
3366.000000	0.027930
3365.000000	0.027996
3364.000000	0.028058
3363.000000	0.028122
3362.000000	0.028199
3361.000000	0.028297
3360.000000	0.028414
3359.000000	0.028540
3358.000000	0.028663
3357.000000	0.028785
3356.000000	0.028913
3355.000000	0.029053
3354.000000	0.029195
3353.000000	0.029326
3352.000000	0.029436
3351.000000	0.029530
3350.000000	0.029623
3349.000000	0.029725
3348.000000	0.029841
3347.000000	0.029964
3346.000000	0.030087
3345.000000	0.030207
3344.000000	0.030325
3343.000000	0.030448
3342.000000	0.030575
3341.000000	0.030700
3340.000000	0.030816
3339.000000	0.030921
3338.000000	0.031021
3337.000000	0.031120
3336.000000	0.031221
3335.000000	0.031321
3334.000000	0.031421
3333.000000	0.031521
3332.000000	0.031625
3331.000000	0.031735
3330.000000	0.031846
3329.000000	0.031947
3328.000000	0.032034
3327.000000	0.032114
3326.000000	0.032202
3325.000000	0.032306
3324.000000	0.032426
3323.000000	0.032555
3322.000000	0.032678
3321.000000	0.032778
3320.000000	0.032844
3319.000000	0.032881
3318.000000	0.032909
3317.000000	0.032944
3316.000000	0.032992
3315.000000	0.033056
3314.000000	0.033136
3313.000000	0.033223
3312.000000	0.033304
3311.000000	0.033365
3310.000000	0.033405
3309.000000	0.033434
3308.000000	0.033462
3307.000000	0.033497
3306.000000	0.033544
3305.000000	0.033606
3304.000000	0.033685
3303.000000	0.033777
3302.000000	0.033866
3301.000000	0.033929
3300.000000	0.033957
3299.000000	0.033961
3298.000000	0.033967
3297.000000	0.033992
3296.000000	0.034030
3295.000000	0.034066
3294.000000	0.034090
3293.000000	0.034103
3292.000000	0.034105
3291.000000	0.034103
3290.000000	0.034110
3289.000000	0.034132
3288.000000	0.034165
3287.000000	0.034197
3286.000000	0.034217
3285.000000	0.034224
3284.000000	0.034220
3283.000000	0.034206
3282.000000	0.034184
3281.000000	0.034157
3280.000000	0.034128
3279.000000	0.034101
3278.000000	0.034076
3277.000000	0.034041
3276.000000	0.033986
3275.000000	0.033905
3274.000000	0.033815
3273.000000	0.033737
3272.000000	0.033688
3271.000000	0.033665
3270.000000	0.033653
3269.000000	0.033634
3268.000000	0.033598
3267.000000	0.033546
3266.000000	0.033488
3265.000000	0.033429
3264.000000	0.033372
3263.000000	0.033317
3262.000000	0.033267
3261.000000	0.033218
3260.000000	0.033155
3259.000000	0.033070
3258.000000	0.032969
3257.000000	0.032869
3256.000000	0.032779
3255.000000	0.032699
3254.000000	0.032615
3253.000000	0.032521
3252.000000	0.032416
3251.000000	0.032313
3250.000000	0.032226
3249.000000	0.032160
3248.000000	0.032104
3247.000000	0.032044
3246.000000	0.031978
3245.000000	0.031908
3244.000000	0.031836
3243.000000	0.031764
3242.000000	0.031693
3241.000000	0.031627
3240.000000	0.031560
3239.000000	0.031486
3238.000000	0.031403
3237.000000	0.031318
3236.000000	0.031241
3235.000000	0.031180
3234.000000	0.031130
3233.000000	0.031083
3232.000000	0.031033
3231.000000	0.030973
3230.000000	0.030905
3229.000000	0.030832
3228.000000	0.030756
3227.000000	0.030681
3226.000000	0.030611
3225.000000	0.030547
3224.000000	0.030494
3223.000000	0.030454
3222.000000	0.030420
3221.000000	0.030378
3220.000000	0.030315
3219.000000	0.030228
3218.000000	0.030132
3217.000000	0.030042
3216.000000	0.029965
3215.000000	0.029904
3214.000000	0.029863
3213.000000	0.029838
3212.000000	0.029816
3211.000000	0.029776
3210.000000	0.029705
3209.000000	0.029604
3208.000000	0.029487
3207.000000	0.029377
3206.000000	0.029288
3205.000000	0.029222
3204.000000	0.029166
3203.000000	0.029108
3202.000000	0.029044
3201.000000	0.028978
3200.000000	0.028911
3199.000000	0.028833
3198.000000	0.028737
3197.000000	0.028623
3196.000000	0.028503
3195.000000	0.028399
3194.000000	0.028325
3193.000000	0.028277
3192.000000	0.028232
3191.000000	0.028168
3190.000000	0.028080
3189.000000	0.027981
3188.000000	0.027882
3187.000000	0.027782
3186.000000	0.027679
3185.000000	0.027577
3184.000000	0.027481
3183.000000	0.027391
3182.000000	0.027304
3181.000000	0.027215
3180.000000	0.027120
3179.000000	0.027022
3178.000000	0.026918
3177.000000	0.026806
3176.000000	0.026683
3175.000000	0.026552
3174.000000	0.026426
3173.000000	0.026315
3172.000000	0.026219
3171.000000	0.026135
3170.000000	0.026058
3169.000000	0.025987
3168.000000	0.025916
3167.000000	0.025838
3166.000000	0.025747
3165.000000	0.025648
3164.000000	0.025549
3163.000000	0.025457
3162.000000	0.025370
3161.000000	0.025280
3160.000000	0.025175
3159.000000	0.025060
3158.000000	0.024947
3157.000000	0.024851
3156.000000	0.024769
3155.000000	0.024686
3154.000000	0.024589
3153.000000	0.024479
3152.000000	0.024370
3151.000000	0.024280
3150.000000	0.024218
3149.000000	0.024177
3148.000000	0.024142
3147.000000	0.024103
3146.000000	0.024058
3145.000000	0.024005
3144.000000	0.023936
3143.000000	0.023846
3142.000000	0.023742
3141.000000	0.023639
3140.000000	0.023549
3139.000000	0.023471
3138.000000	0.023394
3137.000000	0.023312
3136.000000	0.023232
3135.000000	0.023168
3134.000000	0.023128
3133.000000	0.023104
3132.000000	0.023077
3131.000000	0.023033
3130.000000	0.022981
3129.000000	0.022934
3128.000000	0.022903
3127.000000	0.022886
3126.000000	0.022871
3125.000000	0.022842
3124.000000	0.022785
3123.000000	0.022703
3122.000000	0.022618
3121.000000	0.022553
3120.000000	0.022518
3119.000000	0.022509
3118.000000	0.022519
3117.000000	0.022542
3116.000000	0.022571
3115.000000	0.022592
3114.000000	0.022597
3113.000000	0.022588
3112.000000	0.022577
3111.000000	0.022571
3110.000000	0.022572
3109.000000	0.022572
3108.000000	0.022565
3107.000000	0.022555
3106.000000	0.022555
3105.000000	0.022571
3104.000000	0.022593
3103.000000	0.022608
3102.000000	0.022612
3101.000000	0.022616
3100.000000	0.022630
3099.000000	0.022659
3098.000000	0.022699
3097.000000	0.022739
3096.000000	0.022774
3095.000000	0.022803
3094.000000	0.022830
3093.000000	0.022856
3092.000000	0.022876
3091.000000	0.022884
3090.000000	0.022889
3089.000000	0.022907
3088.000000	0.022943
3087.000000	0.022985
3086.000000	0.023019
3085.000000	0.023040
3084.000000	0.023049
3083.000000	0.023046
3082.000000	0.023029
3081.000000	0.023004
3080.000000	0.022983
3079.000000	0.022977
3078.000000	0.022985
3077.000000	0.023000
3076.000000	0.023012
3075.000000	0.023020
3074.000000	0.023030
3073.000000	0.023048
3072.000000	0.023068
3071.000000	0.023075
3070.000000	0.023060
3069.000000	0.023029
3068.000000	0.022998
3067.000000	0.022977
3066.000000	0.022956
3065.000000	0.022923
3064.000000	0.022870
3063.000000	0.022803
3062.000000	0.022735
3061.000000	0.022671
3060.000000	0.022607
3059.000000	0.022535
3058.000000	0.022460
3057.000000	0.022393
3056.000000	0.022337
3055.000000	0.022280
3054.000000	0.022208
3053.000000	0.022121
3052.000000	0.022030
3051.000000	0.021946
3050.000000	0.021868
3049.000000	0.021787
3048.000000	0.021699
3047.000000	0.021609
3046.000000	0.021520
3045.000000	0.021435
3044.000000	0.021351
3043.000000	0.021272
3042.000000	0.021199
3041.000000	0.021129
3040.000000	0.021058
3039.000000	0.020978
3038.000000	0.020886
3037.000000	0.020786
3036.000000	0.020684
3035.000000	0.020591
3034.000000	0.020514
3033.000000	0.020455
3032.000000	0.020404
3031.000000	0.020353
3030.000000	0.020297
3029.000000	0.020242
3028.000000	0.020192
3027.000000	0.020147
3026.000000	0.020105
3025.000000	0.020059
3024.000000	0.020000
3023.000000	0.019922
3022.000000	0.019829
3021.000000	0.019736
3020.000000	0.019664
3019.000000	0.019623
3018.000000	0.019604
3017.000000	0.019593
3016.000000	0.019584
3015.000000	0.019580
3014.000000	0.019591
3013.000000	0.019619
3012.000000	0.019660
3011.000000	0.019705
3010.000000	0.019746
3009.000000	0.019776
3008.000000	0.019789
3007.000000	0.019788
3006.000000	0.019785
3005.000000	0.019792
3004.000000	0.019807
3003.000000	0.019817
3002.000000	0.019814
3001.000000	0.019802
3000.000000	0.019790
2999.000000	0.019777
2998.000000	0.019760
2997.000000	0.019740
2996.000000	0.019726
2995.000000	0.019730
2994.000000	0.019760
2993.000000	0.019815
2992.000000	0.019884
2991.000000	0.019955
2990.000000	0.020025
2989.000000	0.020103
2988.000000	0.020200
2987.000000	0.020318
2986.000000	0.020448
2985.000000	0.020582
2984.000000	0.020716
2983.000000	0.020852
2982.000000	0.020991
2981.000000	0.021131
2980.000000	0.021273
2979.000000	0.021422
2978.000000	0.021580
2977.000000	0.021748
2976.000000	0.021927
2975.000000	0.022119
2974.000000	0.022330
2973.000000	0.022561
2972.000000	0.022811
2971.000000	0.023074
2970.000000	0.023349
2969.000000	0.023639
2968.000000	0.023947
2967.000000	0.024274
2966.000000	0.024613
2965.000000	0.024961
2964.000000	0.025316
2963.000000	0.025678
2962.000000	0.026038
2961.000000	0.026381
2960.000000	0.026689
2959.000000	0.026957
2958.000000	0.027187
2957.000000	0.027386
2956.000000	0.027551
2955.000000	0.027674
2954.000000	0.027752
2953.000000	0.027796
2952.000000	0.027828
2951.000000	0.027866
2950.000000	0.027922
2949.000000	0.028002
2948.000000	0.028118
2947.000000	0.028287
2946.000000	0.028526
2945.000000	0.028837
2944.000000	0.029213
2943.000000	0.029652
2942.000000	0.030161
2941.000000	0.030745
2940.000000	0.031395
2939.000000	0.032085
2938.000000	0.032802
2937.000000	0.033548
2936.000000	0.034330
2935.000000	0.035151
2934.000000	0.035999
2933.000000	0.036849
2932.000000	0.037678
2931.000000	0.038469
2930.000000	0.039225
2929.000000	0.039955
2928.000000	0.040656
2927.000000	0.041302
2926.000000	0.041849
2925.000000	0.042254
2924.000000	0.042483
2923.000000	0.042516
2922.000000	0.042351
2921.000000	0.042005
2920.000000	0.041504
2919.000000	0.040874
2918.000000	0.040127
2917.000000	0.039275
2916.000000	0.038335
2915.000000	0.037340
2914.000000	0.036333
2913.000000	0.035357
2912.000000	0.034442
2911.000000	0.033600
2910.000000	0.032834
2909.000000	0.032135
2908.000000	0.031499
2907.000000	0.030921
2906.000000	0.030398
2905.000000	0.029923
2904.000000	0.029484
2903.000000	0.029069
2902.000000	0.028673
2901.000000	0.028298
2900.000000	0.027950
2899.000000	0.027629
2898.000000	0.027326
2897.000000	0.027031
2896.000000	0.026734
2895.000000	0.026437
2894.000000	0.026148
2893.000000	0.025878
2892.000000	0.025635
2891.000000	0.025419
2890.000000	0.025225
2889.000000	0.025039
2888.000000	0.024847
2887.000000	0.024645
2886.000000	0.024449
2885.000000	0.024282
2884.000000	0.024155
2883.000000	0.024063
2882.000000	0.023991
2881.000000	0.023938
2880.000000	0.023915
2879.000000	0.023932
2878.000000	0.023994
2877.000000	0.024092
2876.000000	0.024212
2875.000000	0.024337
2874.000000	0.024448
2873.000000	0.024525
2872.000000	0.024555
2871.000000	0.024551
2870.000000	0.024541
2869.000000	0.024551
2868.000000	0.024592
2867.000000	0.024666
2866.000000	0.024789
2865.000000	0.024985
2864.000000	0.025275
2863.000000	0.025664
2862.000000	0.026154
2861.000000	0.026748
2860.000000	0.027435
2859.000000	0.028181
2858.000000	0.028938
2857.000000	0.029662
2856.000000	0.030312
2855.000000	0.030842
2854.000000	0.031196
2853.000000	0.031323
2852.000000	0.031188
2851.000000	0.030782
2850.000000	0.030125
2849.000000	0.029261
2848.000000	0.028256
2847.000000	0.027187
2846.000000	0.026121
2845.000000	0.025109
2844.000000	0.024179
2843.000000	0.023346
2842.000000	0.022610
2841.000000	0.021971
2840.000000	0.021422
2839.000000	0.020951
2838.000000	0.020552
2837.000000	0.020220
2836.000000	0.019948
2835.000000	0.019720
2834.000000	0.019512
2833.000000	0.019310
2832.000000	0.019113
2831.000000	0.018926
2830.000000	0.018752
2829.000000	0.018590
2828.000000	0.018442
2827.000000	0.018309
2826.000000	0.018190
2825.000000	0.018079
2824.000000	0.017970
2823.000000	0.017858
2822.000000	0.017749
2821.000000	0.017653
2820.000000	0.017569
2819.000000	0.017491
2818.000000	0.017413
2817.000000	0.017336
2816.000000	0.017267
2815.000000	0.017203
2814.000000	0.017138
2813.000000	0.017064
2812.000000	0.016983
2811.000000	0.016904
2810.000000	0.016833
2809.000000	0.016769
2808.000000	0.016706
2807.000000	0.016640
2806.000000	0.016572
2805.000000	0.016509
2804.000000	0.016451
2803.000000	0.016397
2802.000000	0.016345
2801.000000	0.016303
2800.000000	0.016271
2799.000000	0.016248
2798.000000	0.016223
2797.000000	0.016191
2796.000000	0.016150
2795.000000	0.016101
2794.000000	0.016045
2793.000000	0.015983
2792.000000	0.015918
2791.000000	0.015856
2790.000000	0.015807
2789.000000	0.015773
2788.000000	0.015749
2787.000000	0.015722
2786.000000	0.015683
2785.000000	0.015635
2784.000000	0.015585
2783.000000	0.015530
2782.000000	0.015466
2781.000000	0.015394
2780.000000	0.015324
2779.000000	0.015273
2778.000000	0.015247
2777.000000	0.015242
2776.000000	0.015245
2775.000000	0.015238
2774.000000	0.015213
2773.000000	0.015174
2772.000000	0.015131
2771.000000	0.015093
2770.000000	0.015060
2769.000000	0.015028
2768.000000	0.014989
2767.000000	0.014938
2766.000000	0.014875
2765.000000	0.014808
2764.000000	0.014748
2763.000000	0.014703
2762.000000	0.014668
2761.000000	0.014636
2760.000000	0.014604
2759.000000	0.014576
2758.000000	0.014557
2757.000000	0.014546
2756.000000	0.014538
2755.000000	0.014533
2754.000000	0.014531
2753.000000	0.014527
2752.000000	0.014509
2751.000000	0.014473
2750.000000	0.014427
2749.000000	0.014383
2748.000000	0.014345
2747.000000	0.014308
2746.000000	0.014272
2745.000000	0.014242
2744.000000	0.014219
2743.000000	0.014202
2742.000000	0.014189
2741.000000	0.014179
2740.000000	0.014173
2739.000000	0.014162
2738.000000	0.014137
2737.000000	0.014096
2736.000000	0.014051
2735.000000	0.014015
2734.000000	0.013996
2733.000000	0.013990
2732.000000	0.013986
2731.000000	0.013973
2730.000000	0.013945
2729.000000	0.013902
2728.000000	0.013853
2727.000000	0.013804
2726.000000	0.013760
2725.000000	0.013724
2724.000000	0.013697
2723.000000	0.013675
2722.000000	0.013654
2721.000000	0.013631
2720.000000	0.013605
2719.000000	0.013578
2718.000000	0.013554
2717.000000	0.013535
2716.000000	0.013518
2715.000000	0.013501
2714.000000	0.013485
2713.000000	0.013475
2712.000000	0.013467
2711.000000	0.013452
2710.000000	0.013425
2709.000000	0.013394
2708.000000	0.013370
2707.000000	0.013355
2706.000000	0.013341
2705.000000	0.013327
2704.000000	0.013313
2703.000000	0.013300
2702.000000	0.013284
2701.000000	0.013263
2700.000000	0.013240
2699.000000	0.013218
2698.000000	0.013198
2697.000000	0.013177
2696.000000	0.013154
2695.000000	0.013131
2694.000000	0.013112
2693.000000	0.013103
2692.000000	0.013106
2691.000000	0.013118
2690.000000	0.013131
2689.000000	0.013136
2688.000000	0.013128
2687.000000	0.013106
2686.000000	0.013076
2685.000000	0.013052
2684.000000	0.013045
2683.000000	0.013053
2682.000000	0.013066
2681.000000	0.013072
2680.000000	0.013066
2679.000000	0.013044
2678.000000	0.013008
2677.000000	0.012963
2676.000000	0.012925
2675.000000	0.012907
2674.000000	0.012910
2673.000000	0.012922
2672.000000	0.012926
2671.000000	0.012921
2670.000000	0.012911
2669.000000	0.012901
2668.000000	0.012893
2667.000000	0.012885
2666.000000	0.012876
2665.000000	0.012866
2664.000000	0.012849
2663.000000	0.012824
2662.000000	0.012790
2661.000000	0.012750
2660.000000	0.012708
2659.000000	0.012666
2658.000000	0.012625
2657.000000	0.012591
2656.000000	0.012565
2655.000000	0.012547
2654.000000	0.012531
2653.000000	0.012510
2652.000000	0.012479
2651.000000	0.012440
2650.000000	0.012401
2649.000000	0.012363
2648.000000	0.012320
2647.000000	0.012270
2646.000000	0.012218
2645.000000	0.012179
2644.000000	0.012155
2643.000000	0.012139
2642.000000	0.012115
2641.000000	0.012075
2640.000000	0.012021
2639.000000	0.011962
2638.000000	0.011911
2637.000000	0.011879
2636.000000	0.011865
2635.000000	0.011852
2634.000000	0.011823
2633.000000	0.011774
2632.000000	0.011718
2631.000000	0.011674
2630.000000	0.011649
2629.000000	0.011637
2628.000000	0.011626
2627.000000	0.011603
2626.000000	0.011567
2625.000000	0.011523
2624.000000	0.011479
2623.000000	0.011439
2622.000000	0.011413
2621.000000	0.011401
2620.000000	0.011397
2619.000000	0.011384
2618.000000	0.011350
2617.000000	0.011295
2616.000000	0.011236
2615.000000	0.011187
2614.000000	0.011155
2613.000000	0.011130
2612.000000	0.011098
2611.000000	0.011052
2610.000000	0.011003
2609.000000	0.010966
2608.000000	0.010940
2607.000000	0.010916
2606.000000	0.010883
2605.000000	0.010849
2604.000000	0.010827
2603.000000	0.010826
2602.000000	0.010842
2601.000000	0.010860
2600.000000	0.010866
2599.000000	0.010850
2598.000000	0.010817
2597.000000	0.010776
2596.000000	0.010738
2595.000000	0.010708
2594.000000	0.010689
2593.000000	0.010683
2592.000000	0.010680
2591.000000	0.010669
2590.000000	0.010643
2589.000000	0.010609
2588.000000	0.010571
2587.000000	0.010530
2586.000000	0.010489
2585.000000	0.010452
2584.000000	0.010419
2583.000000	0.010384
2582.000000	0.010346
2581.000000	0.010310
2580.000000	0.010283
2579.000000	0.010265
2578.000000	0.010259
2577.000000	0.010273
2576.000000	0.010308
2575.000000	0.010349
2574.000000	0.010371
2573.000000	0.010355
2572.000000	0.010305
2571.000000	0.010245
2570.000000	0.010204
2569.000000	0.010201
2568.000000	0.010226
2567.000000	0.010250
2566.000000	0.010246
2565.000000	0.010213
2564.000000	0.010169
2563.000000	0.010128
2562.000000	0.010096
2561.000000	0.010073
2560.000000	0.010060
2559.000000	0.010054
2558.000000	0.010040
2557.000000	0.010009
2556.000000	0.009967
2555.000000	0.009932
2554.000000	0.009922
2553.000000	0.009936
2552.000000	0.009963
2551.000000	0.009996
2550.000000	0.010030
2549.000000	0.010062
2548.000000	0.010078
2547.000000	0.010060
2546.000000	0.010008
2545.000000	0.009946
2544.000000	0.009905
2543.000000	0.009899
2542.000000	0.009922
2541.000000	0.009952
2540.000000	0.009970
2539.000000	0.009970
2538.000000	0.009951
2537.000000	0.009926
2536.000000	0.009908
2535.000000	0.009903
2534.000000	0.009905
2533.000000	0.009901
2532.000000	0.009883
2531.000000	0.009858
2530.000000	0.009836
2529.000000	0.009825
2528.000000	0.009828
2527.000000	0.009853
2526.000000	0.009906
2525.000000	0.009972
2524.000000	0.010015
2523.000000	0.010007
2522.000000	0.009954
2521.000000	0.009890
2520.000000	0.009842
2519.000000	0.009812
2518.000000	0.009786
2517.000000	0.009755
2516.000000	0.009717
2515.000000	0.009676
2514.000000	0.009638
2513.000000	0.009606
2512.000000	0.009582
2511.000000	0.009565
2510.000000	0.009553
2509.000000	0.009541
2508.000000	0.009529
2507.000000	0.009522
2506.000000	0.009531
2505.000000	0.009555
2504.000000	0.009577
2503.000000	0.009583
2502.000000	0.009582
2501.000000	0.009594
2500.000000	0.009621
2499.000000	0.009643
2498.000000	0.009648
2497.000000	0.009645
2496.000000	0.009648
2495.000000	0.009654
2494.000000	0.009646
2493.000000	0.009616
2492.000000	0.009573
2491.000000	0.009535
2490.000000	0.009510
2489.000000	0.009495
2488.000000	0.009477
2487.000000	0.009455
2486.000000	0.009432
2485.000000	0.009411
2484.000000	0.009384
2483.000000	0.009341
2482.000000	0.009288
2481.000000	0.009241
2480.000000	0.009220
2479.000000	0.009231
2478.000000	0.009266
2477.000000	0.009309
2476.000000	0.009342
2475.000000	0.009354
2474.000000	0.009336
2473.000000	0.009289
2472.000000	0.009234
2471.000000	0.009210
2470.000000	0.009238
2469.000000	0.009297
2468.000000	0.009339
2467.000000	0.009344
2466.000000	0.009334
2465.000000	0.009335
2464.000000	0.009341
2463.000000	0.009334
2462.000000	0.009309
2461.000000	0.009281
2460.000000	0.009261
2459.000000	0.009249
2458.000000	0.009249
2457.000000	0.009256
2456.000000	0.009259
2455.000000	0.009244
2454.000000	0.009221
2453.000000	0.009209
2452.000000	0.009208
2451.000000	0.009203
2450.000000	0.009189
2449.000000	0.009179
2448.000000	0.009181
2447.000000	0.009184
2446.000000	0.009180
2445.000000	0.009174
2444.000000	0.009178
2443.000000	0.009199
2442.000000	0.009233
2441.000000	0.009263
2440.000000	0.009260
2439.000000	0.009210
2438.000000	0.009135
2437.000000	0.009075
2436.000000	0.009047
2435.000000	0.009033
2434.000000	0.009016
2433.000000	0.008996
2432.000000	0.008989
2431.000000	0.008996
2430.000000	0.009004
2429.000000	0.009006
2428.000000	0.009003
2427.000000	0.008995
2426.000000	0.008980
2425.000000	0.008954
2424.000000	0.008919
2423.000000	0.008893
2422.000000	0.008903
2421.000000	0.008955
2420.000000	0.009021
2419.000000	0.009056
2418.000000	0.009042
2417.000000	0.009000
2416.000000	0.008966
2415.000000	0.008965
2414.000000	0.008995
2413.000000	0.009039
2412.000000	0.009072
2411.000000	0.009071
2410.000000	0.009044
2409.000000	0.009011
2408.000000	0.008986
2407.000000	0.008964
2406.000000	0.008940
2405.000000	0.008924
2404.000000	0.008928
2403.000000	0.008948
2402.000000	0.008969
2401.000000	0.008978
2400.000000	0.008971
2399.000000	0.008954
2398.000000	0.008938
2397.000000	0.008938
2396.000000	0.008951
2395.000000	0.008962
2394.000000	0.008954
2393.000000	0.008933
2392.000000	0.008919
2391.000000	0.008931
2390.000000	0.008968
2389.000000	0.009013
2388.000000	0.009043
2387.000000	0.009053
2386.000000	0.009053
2385.000000	0.009051
2384.000000	0.009046
2383.000000	0.009026
2382.000000	0.008991
2381.000000	0.008949
2380.000000	0.008911
2379.000000	0.008888
2378.000000	0.008886
2377.000000	0.008899
2376.000000	0.008912
2375.000000	0.008914
2374.000000	0.008903
2373.000000	0.008880
2372.000000	0.008838
2371.000000	0.008775
2370.000000	0.008710
2369.000000	0.008676
2368.000000	0.008692
2367.000000	0.008757
2366.000000	0.008851
2365.000000	0.008926
2364.000000	0.008933
2363.000000	0.008886
2362.000000	0.008856
2361.000000	0.008894
2360.000000	0.008989
2359.000000	0.009084
2358.000000	0.009119
2357.000000	0.009080
2356.000000	0.008987
2355.000000	0.008910
2354.000000	0.008877
2353.000000	0.008845
2352.000000	0.008764
2351.000000	0.008665
2350.000000	0.008636
2349.000000	0.008730
2348.000000	0.008921
2347.000000	0.009101
2346.000000	0.009160
2345.000000	0.009098
2344.000000	0.009002
2343.000000	0.008958
2342.000000	0.008957
2341.000000	0.008971
2340.000000	0.009001
2339.000000	0.009054
2338.000000	0.009112
2337.000000	0.009148
2336.000000	0.009163
2335.000000	0.009159
2334.000000	0.009128
2333.000000	0.009048
2332.000000	0.008949
2331.000000	0.008873
2330.000000	0.008884
2329.000000	0.008964
2328.000000	0.009098
2327.000000	0.009253
2326.000000	0.009415
2325.000000	0.009542
2324.000000	0.009578
2323.000000	0.009502
2322.000000	0.009362
2321.000000	0.009239
2320.000000	0.009186
2319.000000	0.009191
2318.000000	0.009229
2317.000000	0.009261
2316.000000	0.009264
2315.000000	0.009205
2314.000000	0.009108
2313.000000	0.009010
2312.000000	0.008950
2311.000000	0.008916
2310.000000	0.008902
2309.000000	0.008901
2308.000000	0.008913
2307.000000	0.008913
2306.000000	0.008890
2305.000000	0.008857
2304.000000	0.008837
2303.000000	0.008825
2302.000000	0.008813
2301.000000	0.008794
2300.000000	0.008784
2299.000000	0.008785
2298.000000	0.008796
2297.000000	0.008798
2296.000000	0.008782
2295.000000	0.008740
2294.000000	0.008691
2293.000000	0.008663
2292.000000	0.008670
2291.000000	0.008699
2290.000000	0.008727
2289.000000	0.008750
2288.000000	0.008768
2287.000000	0.008775
2286.000000	0.008765
2285.000000	0.008747
2284.000000	0.008735
2283.000000	0.008731
2282.000000	0.008718
2281.000000	0.008682
2280.000000	0.008622
2279.000000	0.008557
2278.000000	0.008519
2277.000000	0.008521
2276.000000	0.008545
2275.000000	0.008545
2274.000000	0.008508
2273.000000	0.008460
2272.000000	0.008436
2271.000000	0.008445
2270.000000	0.008479
2269.000000	0.008527
2268.000000	0.008565
2267.000000	0.008563
2266.000000	0.008514
2265.000000	0.008445
2264.000000	0.008387
2263.000000	0.008354
2262.000000	0.008353
2261.000000	0.008387
2260.000000	0.008433
2259.000000	0.008441
2258.000000	0.008378
2257.000000	0.008261
2256.000000	0.008138
2255.000000	0.008046
2254.000000	0.008005
2253.000000	0.008012
2252.000000	0.008034
2251.000000	0.008023
2250.000000	0.007968
2249.000000	0.007915
2248.000000	0.007924
2247.000000	0.008002
2246.000000	0.008105
2245.000000	0.008177
2244.000000	0.008191
2243.000000	0.008155
2242.000000	0.008103
2241.000000	0.008068
2240.000000	0.008048
2239.000000	0.008012
2238.000000	0.007936
2237.000000	0.007831
2236.000000	0.007723
2235.000000	0.007632
2234.000000	0.007589
2233.000000	0.007624
2232.000000	0.007730
2231.000000	0.007847
2230.000000	0.007906
2229.000000	0.007888
2228.000000	0.007823
2227.000000	0.007768
2226.000000	0.007774
2225.000000	0.007843
2224.000000	0.007920
2223.000000	0.007942
2222.000000	0.007906
2221.000000	0.007864
2220.000000	0.007849
2219.000000	0.007846
2218.000000	0.007843
2217.000000	0.007854
2216.000000	0.007869
2215.000000	0.007847
2214.000000	0.007781
2213.000000	0.007734
2212.000000	0.007767
2211.000000	0.007852
2210.000000	0.007895
2209.000000	0.007835
2208.000000	0.007698
2207.000000	0.007562
2206.000000	0.007479
2205.000000	0.007444
2204.000000	0.007411
2203.000000	0.007371
2202.000000	0.007380
2201.000000	0.007485
2200.000000	0.007640
2199.000000	0.007740
2198.000000	0.007745
2197.000000	0.007724
2196.000000	0.007757
2195.000000	0.007846
2194.000000	0.007923
2193.000000	0.007928
2192.000000	0.007845
2191.000000	0.007712
2190.000000	0.007586
2189.000000	0.007489
2188.000000	0.007389
2187.000000	0.007279
2186.000000	0.007247
2185.000000	0.007398
2184.000000	0.007691
2183.000000	0.007938
2182.000000	0.007989
2181.000000	0.007876
2180.000000	0.007735
2179.000000	0.007660
2178.000000	0.007655
2177.000000	0.007663
2176.000000	0.007593
2175.000000	0.007396
2174.000000	0.007137
2173.000000	0.006962
2172.000000	0.006957
2171.000000	0.007091
2170.000000	0.007284
2169.000000	0.007478
2168.000000	0.007624
2167.000000	0.007674
2166.000000	0.007634
2165.000000	0.007568
2164.000000	0.007508
2163.000000	0.007408
2162.000000	0.007215
2161.000000	0.006930
2160.000000	0.006567
2159.000000	0.006129
2158.000000	0.005687
2157.000000	0.005408
2156.000000	0.005417
2155.000000	0.005694
2154.000000	0.006126
2153.000000	0.006580
2152.000000	0.006945
2151.000000	0.007182
2150.000000	0.007334
2149.000000	0.007463
2148.000000	0.007570
2147.000000	0.007607
2146.000000	0.007551
2145.000000	0.007418
2144.000000	0.007229
2143.000000	0.007008
2142.000000	0.006822
2141.000000	0.006753
2140.000000	0.006812
2139.000000	0.006928
2138.000000	0.007019
2137.000000	0.007046
2136.000000	0.007000
2135.000000	0.006902
2134.000000	0.006823
2133.000000	0.006841
2132.000000	0.006962
2131.000000	0.007118
2130.000000	0.007242
2129.000000	0.007312
2128.000000	0.007331
2127.000000	0.007305
2126.000000	0.007265
2125.000000	0.007262
2124.000000	0.007319
2123.000000	0.007404
2122.000000	0.007480
2121.000000	0.007547
2120.000000	0.007625
2119.000000	0.007724
2118.000000	0.007829
2117.000000	0.007915
2116.000000	0.007961
2115.000000	0.007966
2114.000000	0.007946
2113.000000	0.007917
2112.000000	0.007873
2111.000000	0.007813
2110.000000	0.007771
2109.000000	0.007788
2108.000000	0.007851
2107.000000	0.007897
2106.000000	0.007889
2105.000000	0.007849
2104.000000	0.007822
2103.000000	0.007821
2102.000000	0.007831
2101.000000	0.007842
2100.000000	0.007842
2099.000000	0.007819
2098.000000	0.007771
2097.000000	0.007722
2096.000000	0.007686
2095.000000	0.007653
2094.000000	0.007611
2093.000000	0.007565
2092.000000	0.007539
2091.000000	0.007551
2090.000000	0.007603
2089.000000	0.007669
2088.000000	0.007707
2087.000000	0.007704
2086.000000	0.007689
2085.000000	0.007700
2084.000000	0.007740
2083.000000	0.007783
2082.000000	0.007816
2081.000000	0.007843
2080.000000	0.007853
2079.000000	0.007831
2078.000000	0.007780
2077.000000	0.007711
2076.000000	0.007616
2075.000000	0.007480
2074.000000	0.007323
2073.000000	0.007197
2072.000000	0.007138
2071.000000	0.007156
2070.000000	0.007240
2069.000000	0.007345
2068.000000	0.007396
2067.000000	0.007349
2066.000000	0.007262
2065.000000	0.007218
2064.000000	0.007225
2063.000000	0.007213
2062.000000	0.007145
2061.000000	0.007058
2060.000000	0.006997
2059.000000	0.006981
2058.000000	0.007022
2057.000000	0.007116
2056.000000	0.007212
2055.000000	0.007256
2054.000000	0.007261
2053.000000	0.007270
2052.000000	0.007265
2051.000000	0.007189
2050.000000	0.007052
2049.000000	0.006942
2048.000000	0.006891
2047.000000	0.006835
2046.000000	0.006736
2045.000000	0.006637
2044.000000	0.006562
2043.000000	0.006462
2042.000000	0.006321
2041.000000	0.006218
2040.000000	0.006225
2039.000000	0.006318
2038.000000	0.006426
2037.000000	0.006487
2036.000000	0.006440
2035.000000	0.006270
2034.000000	0.006080
2033.000000	0.005996
2032.000000	0.005984
2031.000000	0.005890
2030.000000	0.005689
2029.000000	0.005534
2028.000000	0.005528
2027.000000	0.005607
2026.000000	0.005705
2025.000000	0.005873
2024.000000	0.006136
2023.000000	0.006360
2022.000000	0.006371
2021.000000	0.006149
2020.000000	0.005836
2019.000000	0.005621
2018.000000	0.005636
2017.000000	0.005869
2016.000000	0.006128
2015.000000	0.006190
2014.000000	0.006023
2013.000000	0.005788
2012.000000	0.005638
2011.000000	0.005583
2010.000000	0.005583
2009.000000	0.005653
2008.000000	0.005809
2007.000000	0.005998
2006.000000	0.006146
2005.000000	0.006222
2004.000000	0.006234
2003.000000	0.006214
2002.000000	0.006212
2001.000000	0.006239
2000.000000	0.006236
1999.000000	0.006135
1998.000000	0.005975
1997.000000	0.005852
1996.000000	0.005795
1995.000000	0.005772
1994.000000	0.005795
1993.000000	0.005909
1992.000000	0.006054
1991.000000	0.006077
1990.000000	0.005925
1989.000000	0.005719
1988.000000	0.005609
1987.000000	0.005631
1986.000000	0.005733
1985.000000	0.005864
1984.000000	0.006000
1983.000000	0.006142
1982.000000	0.006316
1981.000000	0.006517
1980.000000	0.006648
1979.000000	0.006596
1978.000000	0.006384
1977.000000	0.006151
1976.000000	0.005963
1975.000000	0.005772
1974.000000	0.005583
1973.000000	0.005507
1972.000000	0.005609
1971.000000	0.005828
1970.000000	0.006057
1969.000000	0.006208
1968.000000	0.006199
1967.000000	0.006010
1966.000000	0.005754
1965.000000	0.005597
1964.000000	0.005588
1963.000000	0.005654
1962.000000	0.005729
1961.000000	0.005803
1960.000000	0.005856
1959.000000	0.005864
1958.000000	0.005862
1957.000000	0.005927
1956.000000	0.006064
1955.000000	0.006205
1954.000000	0.006303
1953.000000	0.006365
1952.000000	0.006399
1951.000000	0.006386
1950.000000	0.006321
1949.000000	0.006244
1948.000000	0.006178
1947.000000	0.006108
1946.000000	0.006014
1945.000000	0.005895
1944.000000	0.005754
1943.000000	0.005624
1942.000000	0.005602
1941.000000	0.005761
1940.000000	0.006044
1939.000000	0.006313
1938.000000	0.006469
1937.000000	0.006492
1936.000000	0.006411
1935.000000	0.006281
1934.000000	0.006177
1933.000000	0.006155
1932.000000	0.006204
1931.000000	0.006261
1930.000000	0.006283
1929.000000	0.006279
1928.000000	0.006259
1927.000000	0.006224
1926.000000	0.006199
1925.000000	0.006213
1924.000000	0.006254
1923.000000	0.006245
1922.000000	0.006153
1921.000000	0.006041
1920.000000	0.005994
1919.000000	0.006033
1918.000000	0.006100
1917.000000	0.006127
1916.000000	0.006103
1915.000000	0.006076
1914.000000	0.006091
1913.000000	0.006138
1912.000000	0.006163
1911.000000	0.006139
1910.000000	0.006106
1909.000000	0.006113
1908.000000	0.006143
1907.000000	0.006146
1906.000000	0.006111
1905.000000	0.006070
1904.000000	0.006060
1903.000000	0.006087
1902.000000	0.006156
1901.000000	0.006257
1900.000000	0.006334
1899.000000	0.006337
1898.000000	0.006280
1897.000000	0.006226
1896.000000	0.006208
1895.000000	0.006199
1894.000000	0.006168
1893.000000	0.006115
1892.000000	0.006063
1891.000000	0.006035
1890.000000	0.006048
1889.000000	0.006097
1888.000000	0.006147
1887.000000	0.006172
1886.000000	0.006190
1885.000000	0.006219
1884.000000	0.006235
1883.000000	0.006203
1882.000000	0.006143
1881.000000	0.006110
1880.000000	0.006125
1879.000000	0.006170
1878.000000	0.006235
1877.000000	0.006292
1876.000000	0.006302
1875.000000	0.006245
1874.000000	0.006149
1873.000000	0.006056
1872.000000	0.005976
1871.000000	0.005892
1870.000000	0.005804
1869.000000	0.005734
1868.000000	0.005706
1867.000000	0.005727
1866.000000	0.005810
1865.000000	0.005948
1864.000000	0.006087
1863.000000	0.006170
1862.000000	0.006205
1861.000000	0.006237
1860.000000	0.006264
1859.000000	0.006250
1858.000000	0.006194
1857.000000	0.006141
1856.000000	0.006107
1855.000000	0.006083
1854.000000	0.006074
1853.000000	0.006103
1852.000000	0.006133
1851.000000	0.006121
1850.000000	0.006079
1849.000000	0.006019
1848.000000	0.005919
1847.000000	0.005787
1846.000000	0.005724
1845.000000	0.005799
1844.000000	0.005918
1843.000000	0.005923
1842.000000	0.005834
1841.000000	0.005811
1840.000000	0.005905
1839.000000	0.006021
1838.000000	0.006065
1837.000000	0.006060
1836.000000	0.006073
1835.000000	0.006093
1834.000000	0.006072
1833.000000	0.006006
1832.000000	0.005919
1831.000000	0.005823
1830.000000	0.005734
1829.000000	0.005667
1828.000000	0.005636
1827.000000	0.005651
1826.000000	0.005722
1825.000000	0.005816
1824.000000	0.005873
1823.000000	0.005884
1822.000000	0.005900
1821.000000	0.005952
1820.000000	0.005998
1819.000000	0.006000
1818.000000	0.005976
1817.000000	0.005975
1816.000000	0.006003
1815.000000	0.006015
1814.000000	0.005998
1813.000000	0.005967
1812.000000	0.005922
1811.000000	0.005859
1810.000000	0.005800
1809.000000	0.005799
1808.000000	0.005864
1807.000000	0.005940
1806.000000	0.005987
1805.000000	0.006007
1804.000000	0.006007
1803.000000	0.005964
1802.000000	0.005895
1801.000000	0.005847
1800.000000	0.005847
1799.000000	0.005885
1798.000000	0.005927
1797.000000	0.005958
1796.000000	0.005959
1795.000000	0.005929
1794.000000	0.005911
1793.000000	0.005924
1792.000000	0.005922
1791.000000	0.005870
1790.000000	0.005808
1789.000000	0.005807
1788.000000	0.005867
1787.000000	0.005938
1786.000000	0.005994
1785.000000	0.006039
1784.000000	0.006051
1783.000000	0.005988
1782.000000	0.005907
1781.000000	0.005877
1780.000000	0.005883
1779.000000	0.005881
1778.000000	0.005864
1777.000000	0.005856
1776.000000	0.005820
1775.000000	0.005731
1774.000000	0.005661
1773.000000	0.005668
1772.000000	0.005680
1771.000000	0.005636
1770.000000	0.005632
1769.000000	0.005800
1768.000000	0.006111
1767.000000	0.006366
1766.000000	0.006457
1765.000000	0.006495
1764.000000	0.006639
1763.000000	0.006906
1762.000000	0.007221
1761.000000	0.007525
1760.000000	0.007832
1759.000000	0.008222
1758.000000	0.008790
1757.000000	0.009555
1756.000000	0.010331
1755.000000	0.010954
1754.000000	0.011517
1753.000000	0.012220
1752.000000	0.013077
1751.000000	0.013872
1750.000000	0.014445
1749.000000	0.014905
1748.000000	0.015371
1747.000000	0.015755
1746.000000	0.015978
1745.000000	0.016040
1744.000000	0.015943
1743.000000	0.015684
1742.000000	0.015307
1741.000000	0.014887
1740.000000	0.014408
1739.000000	0.013764
1738.000000	0.012992
1737.000000	0.012316
1736.000000	0.011878
1735.000000	0.011539
1734.000000	0.011027
1733.000000	0.010335
1732.000000	0.009711
1731.000000	0.009348
1730.000000	0.009236
1729.000000	0.009246
1728.000000	0.009230
1727.000000	0.009126
1726.000000	0.008985
1725.000000	0.008852
1724.000000	0.008729
1723.000000	0.008574
1722.000000	0.008356
1721.000000	0.008143
1720.000000	0.008005
1719.000000	0.007917
1718.000000	0.007783
1717.000000	0.007633
1716.000000	0.007607
1715.000000	0.007756
1714.000000	0.008049
1713.000000	0.008434
1712.000000	0.008841
1711.000000	0.009210
1710.000000	0.009536
1709.000000	0.009847
1708.000000	0.010156
1707.000000	0.010515
1706.000000	0.010982
1705.000000	0.011496
1704.000000	0.011925
1703.000000	0.012329
1702.000000	0.013026
1701.000000	0.014195
1700.000000	0.015303
1699.000000	0.015673
1698.000000	0.015764
1697.000000	0.016434
1696.000000	0.017818
1695.000000	0.019212
1694.000000	0.020055
1693.000000	0.020624
1692.000000	0.021326
1691.000000	0.022179
1690.000000	0.023017
1689.000000	0.023742
1688.000000	0.024327
1687.000000	0.024856
1686.000000	0.025538
1685.000000	0.026576
1684.000000	0.027792
1683.000000	0.028726
1682.000000	0.029444
1681.000000	0.030318
1680.000000	0.031414
1679.000000	0.032487
1678.000000	0.033457
1677.000000	0.034557
1676.000000	0.035955
1675.000000	0.037344
1674.000000	0.038315
1673.000000	0.038977
1672.000000	0.039750
1671.000000	0.040860
1670.000000	0.042254
1669.000000	0.043760
1668.000000	0.045140
1667.000000	0.046267
1666.000000	0.047249
1665.000000	0.048311
1664.000000	0.049594
1663.000000	0.050970
1662.000000	0.052214
1661.000000	0.053303
1660.000000	0.054330
1659.000000	0.055316
1658.000000	0.056159
1657.000000	0.056794
1656.000000	0.057317
1655.000000	0.058017
1654.000000	0.059177
1653.000000	0.060656
1652.000000	0.061650
1651.000000	0.061868
1650.000000	0.061907
1649.000000	0.062248
1648.000000	0.062915
1647.000000	0.063741
1646.000000	0.064535
1645.000000	0.065219
1644.000000	0.065798
1643.000000	0.066306
1642.000000	0.066774
1641.000000	0.067194
1640.000000	0.067483
1639.000000	0.067608
1638.000000	0.067662
1637.000000	0.067847
1636.000000	0.068244
1635.000000	0.068668
1634.000000	0.068860
1633.000000	0.068842
1632.000000	0.068813
1631.000000	0.068781
1630.000000	0.068640
1629.000000	0.068333
1628.000000	0.067865
1627.000000	0.067263
1626.000000	0.066567
1625.000000	0.065805
1624.000000	0.064952
1623.000000	0.063964
1622.000000	0.062881
1621.000000	0.061798
1620.000000	0.060756
1619.000000	0.059731
1618.000000	0.058600
1617.000000	0.057246
1616.000000	0.055772
1615.000000	0.054412
1614.000000	0.053256
1613.000000	0.052229
1612.000000	0.051187
1611.000000	0.050040
1610.000000	0.048828
1609.000000	0.047648
1608.000000	0.046544
1607.000000	0.045518
1606.000000	0.044573
1605.000000	0.043682
1604.000000	0.042801
1603.000000	0.041955
1602.000000	0.041189
1601.000000	0.040504
1600.000000	0.039879
1599.000000	0.039318
1598.000000	0.038826
1597.000000	0.038365
1596.000000	0.037914
1595.000000	0.037522
1594.000000	0.037244
1593.000000	0.037058
1592.000000	0.036908
1591.000000	0.036782
1590.000000	0.036707
1589.000000	0.036683
1588.000000	0.036703
1587.000000	0.036792
1586.000000	0.036965
1585.000000	0.037195
1584.000000	0.037420
1583.000000	0.037655
1582.000000	0.037944
1581.000000	0.038225
1580.000000	0.038406
1579.000000	0.038546
1578.000000	0.038817
1577.000000	0.039302
1576.000000	0.039894
1575.000000	0.040403
1574.000000	0.040782
1573.000000	0.041141
1572.000000	0.041594
1571.000000	0.042194
1570.000000	0.042897
1569.000000	0.043582
1568.000000	0.044155
1567.000000	0.044714
1566.000000	0.045405
1565.000000	0.046201
1564.000000	0.046883
1563.000000	0.047338
1562.000000	0.047710
1561.000000	0.048231
1560.000000	0.049045
1559.000000	0.049999
1558.000000	0.050853
1557.000000	0.051499
1556.000000	0.052093
1555.000000	0.052895
1554.000000	0.053811
1553.000000	0.054569
1552.000000	0.055111
1551.000000	0.055640
1550.000000	0.056233
1549.000000	0.056781
1548.000000	0.057194
1547.000000	0.057518
1546.000000	0.057820
1545.000000	0.058032
1544.000000	0.058079
1543.000000	0.058052
1542.000000	0.058085
1541.000000	0.058209
1540.000000	0.058435
1539.000000	0.058742
1538.000000	0.058924
1537.000000	0.058906
1536.000000	0.058875
1535.000000	0.058892
1534.000000	0.058872
1533.000000	0.058693
1532.000000	0.058397
1531.000000	0.058112
1530.000000	0.057864
1529.000000	0.057608
1528.000000	0.057284
1527.000000	0.056880
1526.000000	0.056431
1525.000000	0.055959
1524.000000	0.055480
1523.000000	0.055039
1522.000000	0.054627
1521.000000	0.054199
1520.000000	0.053733
1519.000000	0.053253
1518.000000	0.052826
1517.000000	0.052439
1516.000000	0.052058
1515.000000	0.051666
1514.000000	0.051261
1513.000000	0.050793
1512.000000	0.050162
1511.000000	0.049315
1510.000000	0.048329
1509.000000	0.047300
1508.000000	0.046189
1507.000000	0.044974
1506.000000	0.044059
1505.000000	0.043525
1504.000000	0.043011
1503.000000	0.042474
1502.000000	0.041904
1501.000000	0.041239
1500.000000	0.040444
1499.000000	0.039542
1498.000000	0.038588
1497.000000	0.037646
1496.000000	0.036798
1495.000000	0.036029
1494.000000	0.035303
1493.000000	0.034637
1492.000000	0.033982
1491.000000	0.033199
1490.000000	0.032265
1489.000000	0.031442
1488.000000	0.030957
1487.000000	0.030727
1486.000000	0.030581
1485.000000	0.030485
1484.000000	0.030427
1483.000000	0.030393
1482.000000	0.030384
1481.000000	0.030411
1480.000000	0.030487
1479.000000	0.030608
1478.000000	0.030791
1477.000000	0.031030
1476.000000	0.031293
1475.000000	0.031584
1474.000000	0.032052
1473.000000	0.032857
1472.000000	0.033927
1471.000000	0.035000
1470.000000	0.035948
1469.000000	0.036825
1468.000000	0.037652
1467.000000	0.038380
1466.000000	0.039020
1465.000000	0.039631
1464.000000	0.040178
1463.000000	0.040596
1462.000000	0.040904
1461.000000	0.041181
1460.000000	0.041464
1459.000000	0.041797
1458.000000	0.042326
1457.000000	0.043152
1456.000000	0.043988
1455.000000	0.044492
1454.000000	0.044807
1453.000000	0.045144
1452.000000	0.045455
1451.000000	0.045629
1450.000000	0.045687
1449.000000	0.045730
1448.000000	0.045782
1447.000000	0.045776
1446.000000	0.045725
1445.000000	0.045674
1444.000000	0.045613
1443.000000	0.045519
1442.000000	0.045357
1441.000000	0.045112
1440.000000	0.044798
1439.000000	0.044469
1438.000000	0.044147
1437.000000	0.043784
1436.000000	0.043325
1435.000000	0.042803
1434.000000	0.042318
1433.000000	0.041925
1432.000000	0.041575
1431.000000	0.041189
1430.000000	0.040783
1429.000000	0.040445
1428.000000	0.040214
1427.000000	0.040022
1426.000000	0.039831
1425.000000	0.039645
1424.000000	0.039458
1423.000000	0.039298
1422.000000	0.039213
1421.000000	0.039241
1420.000000	0.039331
1419.000000	0.039349
1418.000000	0.039259
1417.000000	0.039189
1416.000000	0.039244
1415.000000	0.039380
1414.000000	0.039495
1413.000000	0.039540
1412.000000	0.039556
1411.000000	0.039602
1410.000000	0.039675
1409.000000	0.039748
1408.000000	0.039818
1407.000000	0.039881
1406.000000	0.039948
1405.000000	0.040047
1404.000000	0.040169
1403.000000	0.040270
1402.000000	0.040313
1401.000000	0.040307
1400.000000	0.040238
1399.000000	0.040073
1398.000000	0.039834
1397.000000	0.039604
1396.000000	0.039441
1395.000000	0.039323
1394.000000	0.039211
1393.000000	0.039078
1392.000000	0.038925
1391.000000	0.038767
1390.000000	0.038601
1389.000000	0.038407
1388.000000	0.038174
1387.000000	0.037915
1386.000000	0.037665
1385.000000	0.037451
1384.000000	0.037268
1383.000000	0.037088
1382.000000	0.036877
1381.000000	0.036640
1380.000000	0.036399
1379.000000	0.036144
1378.000000	0.035834
1377.000000	0.035449
1376.000000	0.035002
1375.000000	0.034527
1374.000000	0.034080
1373.000000	0.033698
1372.000000	0.033361
1371.000000	0.033023
1370.000000	0.032668
1369.000000	0.032295
1368.000000	0.031900
1367.000000	0.031488
1366.000000	0.031053
1365.000000	0.030584
1364.000000	0.030078
1363.000000	0.029581
1362.000000	0.029181
1361.000000	0.028923
1360.000000	0.028770
1359.000000	0.028666
1358.000000	0.028590
1357.000000	0.028543
1356.000000	0.028529
1355.000000	0.028546
1354.000000	0.028596
1353.000000	0.028682
1352.000000	0.028809
1351.000000	0.028966
1350.000000	0.029146
1349.000000	0.029349
1348.000000	0.029575
1347.000000	0.029827
1346.000000	0.030104
1345.000000	0.030401
1344.000000	0.030693
1343.000000	0.030947
1342.000000	0.031134
1341.000000	0.031250
1340.000000	0.031328
1339.000000	0.031427
1338.000000	0.031577
1337.000000	0.031750
1336.000000	0.031884
1335.000000	0.031930
1334.000000	0.031879
1333.000000	0.031752
1332.000000	0.031575
1331.000000	0.031363
1330.000000	0.031129
1329.000000	0.030893
1328.000000	0.030671
1327.000000	0.030470
1326.000000	0.030295
1325.000000	0.030143
1324.000000	0.030010
1323.000000	0.029888
1322.000000	0.029775
1321.000000	0.029676
1320.000000	0.029600
1319.000000	0.029547
1318.000000	0.029510
1317.000000	0.029472
1316.000000	0.029418
1315.000000	0.029341
1314.000000	0.029238
1313.000000	0.029110
1312.000000	0.028962
1311.000000	0.028800
1310.000000	0.028634
1309.000000	0.028474
1308.000000	0.028321
1307.000000	0.028170
1306.000000	0.028014
1305.000000	0.027855
1304.000000	0.027698
1303.000000	0.027541
1302.000000	0.027384
1301.000000	0.027229
1300.000000	0.027085
1299.000000	0.026958
1298.000000	0.026846
1297.000000	0.026750
1296.000000	0.026682
1295.000000	0.026655
1294.000000	0.026678
1293.000000	0.026748
1292.000000	0.026859
1291.000000	0.027001
1290.000000	0.027169
1289.000000	0.027358
1288.000000	0.027565
1287.000000	0.027785
1286.000000	0.028011
1285.000000	0.028239
1284.000000	0.028460
1283.000000	0.028654
1282.000000	0.028800
1281.000000	0.028898
1280.000000	0.028961
1279.000000	0.029009
1278.000000	0.029046
1277.000000	0.029073
1276.000000	0.029083
1275.000000	0.029068
1274.000000	0.029029
1273.000000	0.028987
1272.000000	0.028975
1271.000000	0.029019
1270.000000	0.029117
1269.000000	0.029251
1268.000000	0.029397
1267.000000	0.029538
1266.000000	0.029670
1265.000000	0.029805
1264.000000	0.029959
1263.000000	0.030139
1262.000000	0.030339
1261.000000	0.030554
1260.000000	0.030790
1259.000000	0.031053
1258.000000	0.031337
1257.000000	0.031622
1256.000000	0.031889
1255.000000	0.032137
1254.000000	0.032395
1253.000000	0.032698
1252.000000	0.033060
1251.000000	0.033467
1250.000000	0.033895
1249.000000	0.034326
1248.000000	0.034751
1247.000000	0.035166
1246.000000	0.035569
1245.000000	0.035962
1244.000000	0.036341
1243.000000	0.036694
1242.000000	0.037014
1241.000000	0.037304
1240.000000	0.037563
1239.000000	0.037778
1238.000000	0.037940
1237.000000	0.038051
1236.000000	0.038110
1235.000000	0.038109
1234.000000	0.038039
1233.000000	0.037903
1232.000000	0.037703
1231.000000	0.037438
1230.000000	0.037118
1229.000000	0.036755
1228.000000	0.036345
1227.000000	0.035871
1226.000000	0.035326
1225.000000	0.034731
1224.000000	0.034114
1223.000000	0.033494
1222.000000	0.032875
1221.000000	0.032262
1220.000000	0.031661
1219.000000	0.031082
1218.000000	0.030547
1217.000000	0.030084
1216.000000	0.029717
1215.000000	0.029446
1214.000000	0.029248
1213.000000	0.029099
1212.000000	0.028992
1211.000000	0.028936
1210.000000	0.028946
1209.000000	0.029019
1208.000000	0.029136
1207.000000	0.029266
1206.000000	0.029389
1205.000000	0.029493
1204.000000	0.029569
1203.000000	0.029602
1202.000000	0.029580
1201.000000	0.029501
1200.000000	0.029362
1199.000000	0.029166
1198.000000	0.028918
1197.000000	0.028628
1196.000000	0.028309
1195.000000	0.027975
1194.000000	0.027642
1193.000000	0.027321
1192.000000	0.027003
1191.000000	0.026674
1190.000000	0.026329
1189.000000	0.025995
1188.000000	0.025698
1187.000000	0.025449
1186.000000	0.025237
1185.000000	0.025051
1184.000000	0.024893
1183.000000	0.024768
1182.000000	0.024686
1181.000000	0.024652
1180.000000	0.024667
1179.000000	0.024715
1178.000000	0.024777
1177.000000	0.024846
1176.000000	0.024931
1175.000000	0.025042
1174.000000	0.025179
1173.000000	0.025340
1172.000000	0.025524
1171.000000	0.025722
1170.000000	0.025925
1169.000000	0.026125
1168.000000	0.026325
1167.000000	0.026525
1166.000000	0.026719
1165.000000	0.026901
1164.000000	0.027072
1163.000000	0.027228
1162.000000	0.027360
1161.000000	0.027450
1160.000000	0.027481
1159.000000	0.027443
1158.000000	0.027335
1157.000000	0.027170
1156.000000	0.026956
1155.000000	0.026703
1154.000000	0.026426
1153.000000	0.026140
1152.000000	0.025848
1151.000000	0.025546
1150.000000	0.025232
1149.000000	0.024913
1148.000000	0.024593
1147.000000	0.024264
1146.000000	0.023922
1145.000000	0.023576
1144.000000	0.023240
1143.000000	0.022913
1142.000000	0.022581
1141.000000	0.022233
1140.000000	0.021874
1139.000000	0.021511
1138.000000	0.021153
1137.000000	0.020811
1136.000000	0.020501
1135.000000	0.020222
1134.000000	0.019969
1133.000000	0.019745
1132.000000	0.019564
1131.000000	0.019436
1130.000000	0.019349
1129.000000	0.019291
1128.000000	0.019269
1127.000000	0.019299
1126.000000	0.019376
1125.000000	0.019477
1124.000000	0.019584
1123.000000	0.019694
1122.000000	0.019809
1121.000000	0.019926
1120.000000	0.020029
1119.000000	0.020108
1118.000000	0.020163
1117.000000	0.020208
1116.000000	0.020259
1115.000000	0.020322
1114.000000	0.020389
1113.000000	0.020452
1112.000000	0.020510
1111.000000	0.020566
1110.000000	0.020625
1109.000000	0.020690
1108.000000	0.020760
1107.000000	0.020828
1106.000000	0.020893
1105.000000	0.020971
1104.000000	0.021077
1103.000000	0.021206
1102.000000	0.021336
1101.000000	0.021455
1100.000000	0.021570
1099.000000	0.021688
1098.000000	0.021796
1097.000000	0.021885
1096.000000	0.021966
1095.000000	0.022065
1094.000000	0.022200
1093.000000	0.022381
1092.000000	0.022616
1091.000000	0.022905
1090.000000	0.023233
1089.000000	0.023586
1088.000000	0.023961
1087.000000	0.024355
1086.000000	0.024752
1085.000000	0.025123
1084.000000	0.025445
1083.000000	0.025706
1082.000000	0.025894
1081.000000	0.025993
1080.000000	0.025987
1079.000000	0.025871
1078.000000	0.025660
1077.000000	0.025380
1076.000000	0.025057
1075.000000	0.024705
1074.000000	0.024337
1073.000000	0.023977
1072.000000	0.023649
1071.000000	0.023373
1070.000000	0.023150
1069.000000	0.022978
1068.000000	0.022859
1067.000000	0.022798
1066.000000	0.022781
1065.000000	0.022790
1064.000000	0.022821
1063.000000	0.022872
1062.000000	0.022934
1061.000000	0.022986
1060.000000	0.023008
1059.000000	0.023001
1058.000000	0.022969
1057.000000	0.022908
1056.000000	0.022812
1055.000000	0.022694
1054.000000	0.022589
1053.000000	0.022521
1052.000000	0.022494
1051.000000	0.022486
1050.000000	0.022478
1049.000000	0.022464
1048.000000	0.022453
1047.000000	0.022458
1046.000000	0.022474
1045.000000	0.022489
1044.000000	0.022500
1043.000000	0.022526
1042.000000	0.022592
1041.000000	0.022707
1040.000000	0.022857
1039.000000	0.023032
1038.000000	0.023245
1037.000000	0.023514
1036.000000	0.023830
1035.000000	0.024153
1034.000000	0.024439
1033.000000	0.024668
1032.000000	0.024850
1031.000000	0.024991
1030.000000	0.025080
1029.000000	0.025096
1028.000000	0.025034
1027.000000	0.024921
1026.000000	0.024802
1025.000000	0.024705
1024.000000	0.024625
1023.000000	0.024541
1022.000000	0.024439
1021.000000	0.024324
1020.000000	0.024199
1019.000000	0.024066
1018.000000	0.023928
1017.000000	0.023780
1016.000000	0.023601
1015.000000	0.023355
1014.000000	0.023033
1013.000000	0.022660
1012.000000	0.022267
1011.000000	0.021864
1010.000000	0.021445
1009.000000	0.021018
1008.000000	0.020601
1007.000000	0.020207
1006.000000	0.019831
1005.000000	0.019467
1004.000000	0.019126
1003.000000	0.018814
1002.000000	0.018516
1001.000000	0.018205
1000.000000	0.017874
999.000000	0.017549
998.000000	0.017257
997.000000	0.016996
996.000000	0.016740
995.000000	0.016476
994.000000	0.016210
993.000000	0.015942
992.000000	0.015660
991.000000	0.015352
990.000000	0.015036
989.000000	0.014746
988.000000	0.014501
987.000000	0.014290
986.000000	0.014088
985.000000	0.013882
984.000000	0.013676
983.000000	0.013484
982.000000	0.013319
981.000000	0.013194
980.000000	0.013110
979.000000	0.013047
978.000000	0.012983
977.000000	0.012907
976.000000	0.012829
975.000000	0.012751
974.000000	0.012668
973.000000	0.012570
972.000000	0.012457
971.000000	0.012333
970.000000	0.012203
969.000000	0.012065
968.000000	0.011906
967.000000	0.011709
966.000000	0.011474
965.000000	0.011230
964.000000	0.011010
963.000000	0.010824
962.000000	0.010659
961.000000	0.010501
960.000000	0.010348
959.000000	0.010189
958.000000	0.010012
957.000000	0.009816
956.000000	0.009621
955.000000	0.009443
954.000000	0.009286
953.000000	0.009149
952.000000	0.009035
951.000000	0.008942
950.000000	0.008863
949.000000	0.008796
948.000000	0.008748
947.000000	0.008717
946.000000	0.008685
945.000000	0.008645
944.000000	0.008617
943.000000	0.008623
942.000000	0.008658
941.000000	0.008692
940.000000	0.008702
939.000000	0.008686
938.000000	0.008654
937.000000	0.008608
936.000000	0.008552
935.000000	0.008491
934.000000	0.008431
933.000000	0.008370
932.000000	0.008309
931.000000	0.008253
930.000000	0.008216
929.000000	0.008204
928.000000	0.008197
927.000000	0.008163
926.000000	0.008089
925.000000	0.008004
924.000000	0.007946
923.000000	0.007928
922.000000	0.007923
921.000000	0.007906
920.000000	0.007867
919.000000	0.007799
918.000000	0.007684
917.000000	0.007516
916.000000	0.007314
915.000000	0.007110
914.000000	0.006932
913.000000	0.006792
912.000000	0.006694
911.000000	0.006622
910.000000	0.006554
909.000000	0.006484
908.000000	0.006430
907.000000	0.006408
906.000000	0.006403
905.000000	0.006387
904.000000	0.006351
903.000000	0.006300
902.000000	0.006232
901.000000	0.006145
900.000000	0.006042
899.000000	0.005940
898.000000	0.005848
897.000000	0.005774
896.000000	0.005720
895.000000	0.005684
894.000000	0.005664
893.000000	0.005657
892.000000	0.005673
891.000000	0.005712
890.000000	0.005759
889.000000	0.005793
888.000000	0.005815
887.000000	0.005843
886.000000	0.005893
885.000000	0.005982
884.000000	0.006132
883.000000	0.006361
882.000000	0.006666
881.000000	0.007035
880.000000	0.007455
879.000000	0.007901
878.000000	0.008317
877.000000	0.008637
876.000000	0.008817
875.000000	0.008857
874.000000	0.008778
873.000000	0.008599
872.000000	0.008335
871.000000	0.008014
870.000000	0.007677
869.000000	0.007366
868.000000	0.007111
867.000000	0.006921
866.000000	0.006780
865.000000	0.006659
864.000000	0.006531
863.000000	0.006396
862.000000	0.006286
861.000000	0.006241
860.000000	0.006278
859.000000	0.006362
858.000000	0.006432
857.000000	0.006451
856.000000	0.006437
855.000000	0.006438
854.000000	0.006483
853.000000	0.006564
852.000000	0.006644
851.000000	0.006684
850.000000	0.006664
849.000000	0.006598
848.000000	0.006517
847.000000	0.006440
846.000000	0.006364
845.000000	0.006288
844.000000	0.006223
843.000000	0.006176
842.000000	0.006130
841.000000	0.006061
840.000000	0.005971
839.000000	0.005895
838.000000	0.005863
837.000000	0.005873
836.000000	0.005893
835.000000	0.005892
834.000000	0.005858
833.000000	0.005801
832.000000	0.005739
831.000000	0.005688
830.000000	0.005654
829.000000	0.005636
828.000000	0.005628
827.000000	0.005632
826.000000	0.005656
825.000000	0.005714
824.000000	0.005796
823.000000	0.005858
822.000000	0.005861
821.000000	0.005812
820.000000	0.005763
819.000000	0.005760
818.000000	0.005807
817.000000	0.005878
816.000000	0.005946
815.000000	0.005987
814.000000	0.005980
813.000000	0.005928
812.000000	0.005864
811.000000	0.005833
810.000000	0.005849
809.000000	0.005881
808.000000	0.005879
807.000000	0.005829
806.000000	0.005764
805.000000	0.005728
804.000000	0.005722
803.000000	0.005712
802.000000	0.005682
801.000000	0.005662
800.000000	0.005692
799.000000	0.005762
798.000000	0.005826
797.000000	0.005860
796.000000	0.005877
795.000000	0.005892
794.000000	0.005905
793.000000	0.005916
792.000000	0.005945
791.000000	0.006006
790.000000	0.006093
789.000000	0.006188
788.000000	0.006276
787.000000	0.006344
786.000000	0.006385
785.000000	0.006408
784.000000	0.006441
783.000000	0.006492
782.000000	0.006535
781.000000	0.006539
780.000000	0.006510
779.000000	0.006486
778.000000	0.006505
777.000000	0.006580
776.000000	0.006692
775.000000	0.006798
774.000000	0.006851
773.000000	0.006832
772.000000	0.006773
771.000000	0.006739
770.000000	0.006771
769.000000	0.006860
768.000000	0.006962
767.000000	0.007033
766.000000	0.007058
765.000000	0.007054
764.000000	0.007044
763.000000	0.007045
762.000000	0.007058
761.000000	0.007078
760.000000	0.007099
759.000000	0.007117
758.000000	0.007131
757.000000	0.007143
756.000000	0.007159
755.000000	0.007173
754.000000	0.007179
753.000000	0.007179
752.000000	0.007183
751.000000	0.007208
750.000000	0.007267
749.000000	0.007367
748.000000	0.007497
747.000000	0.007628
746.000000	0.007730
745.000000	0.007805
744.000000	0.007880
743.000000	0.007974
742.000000	0.008070
741.000000	0.008143
740.000000	0.008190
739.000000	0.008245
738.000000	0.008341
737.000000	0.008479
736.000000	0.008628
735.000000	0.008752
734.000000	0.008846
733.000000	0.008948
732.000000	0.009103
731.000000	0.009319
730.000000	0.009547
729.000000	0.009739
728.000000	0.009892
727.000000	0.010041
726.000000	0.010219
725.000000	0.010424
724.000000	0.010636
723.000000	0.010845
722.000000	0.011060
721.000000	0.011271
720.000000	0.011434
719.000000	0.011508
718.000000	0.011495
717.000000	0.011448
716.000000	0.011423
715.000000	0.011450
714.000000	0.011533
713.000000	0.011652
712.000000	0.011764
711.000000	0.011825
710.000000	0.011831
709.000000	0.011843
708.000000	0.011933
707.000000	0.012114
706.000000	0.012330
705.000000	0.012519
704.000000	0.012654
703.000000	0.012733
702.000000	0.012763
701.000000	0.012759
700.000000	0.012750
699.000000	0.012751
698.000000	0.012751
697.000000	0.012740
696.000000	0.012723
695.000000	0.012718
694.000000	0.012727
693.000000	0.012732
692.000000	0.012730
691.000000	0.012740
690.000000	0.012777
689.000000	0.012825
688.000000	0.012846
687.000000	0.012826
686.000000	0.012798
685.000000	0.012813
684.000000	0.012901
683.000000	0.013045
682.000000	0.013197
681.000000	0.013322
680.000000	0.013411
679.000000	0.013468
678.000000	0.013497
677.000000	0.013540
676.000000	0.013644
675.000000	0.013812
674.000000	0.013978
673.000000	0.014058
672.000000	0.014026
671.000000	0.013917
670.000000	0.013773
669.000000	0.013623
668.000000	0.013663
667.000000	0.014100
666.000000	0.014497
665.000000	0.014693
664.000000	0.014820
663.000000	0.014896
662.000000	0.014871
661.000000	0.014743
660.000000	0.014581
659.000000	0.014467
658.000000	0.014462
657.000000	0.014583
656.000000	0.014749
655.000000	0.014846
654.000000	0.014844
653.000000	0.014822
652.000000	0.014838
651.000000	0.014865
650.000000	0.014864
649.000000	0.014851
648.000000	0.014848
647.000000	0.014839
646.000000	0.014804
645.000000	0.014757
644.000000	0.014718
643.000000	0.014701
642.000000	0.014724
641.000000	0.014805
640.000000	0.014917
639.000000	0.014991
638.000000	0.014992
637.000000	0.014944
636.000000	0.014869
635.000000	0.014763
634.000000	0.014643
633.000000	0.014571
632.000000	0.014592
631.000000	0.014683
630.000000	0.014789
629.000000	0.014882
628.000000	0.014964
627.000000	0.015033
626.000000	0.015095
625.000000	0.015160
624.000000	0.015226
623.000000	0.015273
622.000000	0.015290
621.000000	0.015286
620.000000	0.015267
619.000000	0.015224
618.000000	0.015162
617.000000	0.015107
616.000000	0.015087
615.000000	0.015115
614.000000	0.015193
613.000000	0.015299
612.000000	0.015384
611.000000	0.015394
610.000000	0.015338
609.000000	0.015270
608.000000	0.015231
607.000000	0.015215
606.000000	0.015207
605.000000	0.015196
604.000000	0.015162
603.000000	0.015108
602.000000	0.015077
601.000000	0.015101
600.000000	0.015126
599.000000	0.015073
598.000000	0.014973
597.000000	0.014944
596.000000	0.015022
595.000000	0.015091
594.000000	0.015043
593.000000	0.014928
592.000000	0.014884
591.000000	0.014967
590.000000	0.015111
589.000000	0.015236
588.000000	0.015313
587.000000	0.015327
586.000000	0.015275
585.000000	0.015193
584.000000	0.015131
583.000000	0.015109
582.000000	0.015125
581.000000	0.015202
580.000000	0.015378
579.000000	0.015623
578.000000	0.015834
577.000000	0.015922
576.000000	0.015899
575.000000	0.015869
574.000000	0.015931
573.000000	0.016077
572.000000	0.016212
571.000000	0.016270
570.000000	0.016302
569.000000	0.016403
568.000000	0.016571
567.000000	0.016705
566.000000	0.016759
565.000000	0.016805
564.000000	0.016912
563.000000	0.017035
562.000000	0.017098
561.000000	0.017100
560.000000	0.017092
559.000000	0.017080
558.000000	0.017028
557.000000	0.016937
556.000000	0.016849
555.000000	0.016797
554.000000	0.016771
553.000000	0.016722
552.000000	0.016591
551.000000	0.016371
550.000000	0.016144
549.000000	0.016009
548.000000	0.015981
547.000000	0.016016
546.000000	0.016125
545.000000	0.016346
544.000000	0.016599
543.000000	0.016710
542.000000	0.016613
541.000000	0.016424
540.000000	0.016259
539.000000	0.016121
538.000000	0.016041
537.000000	0.016143
536.000000	0.016447
535.000000	0.016748
534.000000	0.016861
533.000000	0.016873
532.000000	0.016966
531.000000	0.017091
530.000000	0.017028
529.000000	0.016727
528.000000	0.016380
527.000000	0.016169
526.000000	0.016108
525.000000	0.016142
524.000000	0.016241
523.000000	0.016358
522.000000	0.016424
521.000000	0.016402
520.000000	0.016279
519.000000	0.016018
518.000000	0.015598
517.000000	0.015121
516.000000	0.014731
515.000000	0.014437
514.000000	0.014168
513.000000	0.013935
512.000000	0.013818
511.000000	0.013787
510.000000	0.013700
509.000000	0.013503
508.000000	0.013295
507.000000	0.013154
506.000000	0.013027
505.000000	0.012867
504.000000	0.012717
503.000000	0.012596
502.000000	0.012416
501.000000	0.012116
500.000000	0.011787
499.000000	0.011557
498.000000	0.011449
497.000000	0.011404
496.000000	0.011373
495.000000	0.011295
494.000000	0.011083
493.000000	0.010715
492.000000	0.010319
491.000000	0.010066
490.000000	0.010001
489.000000	0.010034
488.000000	0.010050
487.000000	0.009960
486.000000	0.009696
485.000000	0.009300
484.000000	0.008989
483.000000	0.008970
482.000000	0.009178
481.000000	0.009324
480.000000	0.009221
479.000000	0.008976
478.000000	0.008833
477.000000	0.008871
476.000000	0.008941
475.000000	0.008890
474.000000	0.008721
473.000000	0.008527
472.000000	0.008335
471.000000	0.008120
470.000000	0.007941
469.000000	0.007920
468.000000	0.008062
467.000000	0.008198
466.000000	0.008172
465.000000	0.008033
464.000000	0.007896
463.000000	0.007730
462.000000	0.007401
461.000000	0.006875
460.000000	0.006255
459.000000	0.005682
458.000000	0.005326
457.000000	0.005336
456.000000	0.005649
455.000000	0.006019
454.000000	0.006260
453.000000	0.006333
452.000000	0.006274
451.000000	0.006087
450.000000	0.005742
