PE IR       SUBTECH     SPECTRUM    ASCII       PEDS        4.00        
   -1
3C-N10-F033_1.ASC
22/02/16
15:49:03.00
22/02/16
15:56:00.00
uco
Sample 033 By uco Date Wednesday, February 16 2022
450.000000
#HDR
-1
-1
#GR
cm-1
A
1.0
0.0
4000.000000
-1.000000
3551
8
0.053914
0.005370
#DATA
4000.000000	0.005612
3999.000000	0.005601
3998.000000	0.005591
3997.000000	0.005589
3996.000000	0.005594
3995.000000	0.005600
3994.000000	0.005611
3993.000000	0.005615
3992.000000	0.005624
3991.000000	0.005641
3990.000000	0.005663
3989.000000	0.005682
3988.000000	0.005690
3987.000000	0.005690
3986.000000	0.005687
3985.000000	0.005688
3984.000000	0.005694
3983.000000	0.005700
3982.000000	0.005700
3981.000000	0.005696
3980.000000	0.005692
3979.000000	0.005691
3978.000000	0.005689
3977.000000	0.005681
3976.000000	0.005661
3975.000000	0.005632
3974.000000	0.005601
3973.000000	0.005579
3972.000000	0.005574
3971.000000	0.005584
3970.000000	0.005606
3969.000000	0.005635
3968.000000	0.005663
3967.000000	0.005684
3966.000000	0.005694
3965.000000	0.005695
3964.000000	0.005694
3963.000000	0.005697
3962.000000	0.005703
3961.000000	0.005709
3960.000000	0.005712
3959.000000	0.005718
3958.000000	0.005730
3957.000000	0.005746
3956.000000	0.005759
3955.000000	0.005763
3954.000000	0.005758
3953.000000	0.005749
3952.000000	0.005740
3951.000000	0.005730
3950.000000	0.005723
3949.000000	0.005721
3948.000000	0.005731
3947.000000	0.005749
3946.000000	0.005766
3945.000000	0.005769
3944.000000	0.005760
3943.000000	0.005753
3942.000000	0.005762
3941.000000	0.005781
3940.000000	0.005794
3939.000000	0.005791
3938.000000	0.005776
3937.000000	0.005762
3936.000000	0.005760
3935.000000	0.005773
3934.000000	0.005794
3933.000000	0.005811
3932.000000	0.005813
3931.000000	0.005795
3930.000000	0.005768
3929.000000	0.005751
3928.000000	0.005752
3927.000000	0.005768
3926.000000	0.005787
3925.000000	0.005801
3924.000000	0.005809
3923.000000	0.005809
3922.000000	0.005799
3921.000000	0.005785
3920.000000	0.005777
3919.000000	0.005776
3918.000000	0.005776
3917.000000	0.005775
3916.000000	0.005778
3915.000000	0.005787
3914.000000	0.005796
3913.000000	0.005798
3912.000000	0.005792
3911.000000	0.005782
3910.000000	0.005780
3909.000000	0.005791
3908.000000	0.005817
3907.000000	0.005848
3906.000000	0.005867
3905.000000	0.005863
3904.000000	0.005843
3903.000000	0.005817
3902.000000	0.005795
3901.000000	0.005778
3900.000000	0.005771
3899.000000	0.005777
3898.000000	0.005789
3897.000000	0.005799
3896.000000	0.005811
3895.000000	0.005832
3894.000000	0.005858
3893.000000	0.005872
3892.000000	0.005868
3891.000000	0.005866
3890.000000	0.005882
3889.000000	0.005899
3888.000000	0.005884
3887.000000	0.005821
3886.000000	0.005741
3885.000000	0.005701
3884.000000	0.005720
3883.000000	0.005771
3882.000000	0.005822
3881.000000	0.005857
3880.000000	0.005878
3879.000000	0.005890
3878.000000	0.005884
3877.000000	0.005854
3876.000000	0.005808
3875.000000	0.005774
3874.000000	0.005782
3873.000000	0.005827
3872.000000	0.005863
3871.000000	0.005860
3870.000000	0.005838
3869.000000	0.005838
3868.000000	0.005853
3867.000000	0.005848
3866.000000	0.005816
3865.000000	0.005786
3864.000000	0.005781
3863.000000	0.005792
3862.000000	0.005801
3861.000000	0.005809
3860.000000	0.005828
3859.000000	0.005862
3858.000000	0.005908
3857.000000	0.005957
3856.000000	0.005989
3855.000000	0.005985
3854.000000	0.005952
3853.000000	0.005930
3852.000000	0.005926
3851.000000	0.005911
3850.000000	0.005876
3849.000000	0.005839
3848.000000	0.005813
3847.000000	0.005793
3846.000000	0.005773
3845.000000	0.005749
3844.000000	0.005729
3843.000000	0.005725
3842.000000	0.005743
3841.000000	0.005774
3840.000000	0.005806
3839.000000	0.005836
3838.000000	0.005865
3837.000000	0.005887
3836.000000	0.005894
3835.000000	0.005887
3834.000000	0.005871
3833.000000	0.005852
3832.000000	0.005842
3831.000000	0.005842
3830.000000	0.005840
3829.000000	0.005817
3828.000000	0.005769
3827.000000	0.005719
3826.000000	0.005704
3825.000000	0.005735
3824.000000	0.005786
3823.000000	0.005815
3822.000000	0.005808
3821.000000	0.005800
3820.000000	0.005824
3819.000000	0.005856
3818.000000	0.005859
3817.000000	0.005829
3816.000000	0.005803
3815.000000	0.005804
3814.000000	0.005808
3813.000000	0.005785
3812.000000	0.005749
3811.000000	0.005736
3810.000000	0.005753
3809.000000	0.005771
3808.000000	0.005767
3807.000000	0.005758
3806.000000	0.005781
3805.000000	0.005832
3804.000000	0.005870
3803.000000	0.005871
3802.000000	0.005853
3801.000000	0.005860
3800.000000	0.005891
3799.000000	0.005901
3798.000000	0.005867
3797.000000	0.005811
3796.000000	0.005768
3795.000000	0.005748
3794.000000	0.005732
3793.000000	0.005705
3792.000000	0.005677
3791.000000	0.005669
3790.000000	0.005685
3789.000000	0.005711
3788.000000	0.005731
3787.000000	0.005737
3786.000000	0.005734
3785.000000	0.005737
3784.000000	0.005753
3783.000000	0.005773
3782.000000	0.005772
3781.000000	0.005737
3780.000000	0.005687
3779.000000	0.005660
3778.000000	0.005673
3777.000000	0.005705
3776.000000	0.005725
3775.000000	0.005730
3774.000000	0.005733
3773.000000	0.005742
3772.000000	0.005754
3771.000000	0.005769
3770.000000	0.005793
3769.000000	0.005823
3768.000000	0.005841
3767.000000	0.005828
3766.000000	0.005788
3765.000000	0.005745
3764.000000	0.005718
3763.000000	0.005706
3762.000000	0.005690
3761.000000	0.005667
3760.000000	0.005646
3759.000000	0.005639
3758.000000	0.005645
3757.000000	0.005659
3756.000000	0.005677
3755.000000	0.005693
3754.000000	0.005710
3753.000000	0.005735
3752.000000	0.005774
3751.000000	0.005810
3750.000000	0.005826
3749.000000	0.005832
3748.000000	0.005847
3747.000000	0.005866
3746.000000	0.005861
3745.000000	0.005831
3744.000000	0.005807
3743.000000	0.005799
3742.000000	0.005779
3741.000000	0.005745
3740.000000	0.005728
3739.000000	0.005743
3738.000000	0.005775
3737.000000	0.005795
3736.000000	0.005798
3735.000000	0.005792
3734.000000	0.005776
3733.000000	0.005745
3732.000000	0.005715
3731.000000	0.005704
3730.000000	0.005709
3729.000000	0.005707
3728.000000	0.005685
3727.000000	0.005657
3726.000000	0.005646
3725.000000	0.005651
3724.000000	0.005655
3723.000000	0.005646
3722.000000	0.005628
3721.000000	0.005605
3720.000000	0.005584
3719.000000	0.005566
3718.000000	0.005557
3717.000000	0.005564
3716.000000	0.005588
3715.000000	0.005625
3714.000000	0.005666
3713.000000	0.005703
3712.000000	0.005734
3711.000000	0.005760
3710.000000	0.005776
3709.000000	0.005770
3708.000000	0.005736
3707.000000	0.005686
3706.000000	0.005641
3705.000000	0.005612
3704.000000	0.005599
3703.000000	0.005599
3702.000000	0.005606
3701.000000	0.005616
3700.000000	0.005622
3699.000000	0.005621
3698.000000	0.005617
3697.000000	0.005625
3696.000000	0.005654
3695.000000	0.005696
3694.000000	0.005728
3693.000000	0.005733
3692.000000	0.005712
3691.000000	0.005680
3690.000000	0.005667
3689.000000	0.005695
3688.000000	0.005752
3687.000000	0.005804
3686.000000	0.005829
3685.000000	0.005834
3684.000000	0.005841
3683.000000	0.005863
3682.000000	0.005891
3681.000000	0.005916
3680.000000	0.005953
3679.000000	0.006025
3678.000000	0.006107
3677.000000	0.006143
3676.000000	0.006118
3675.000000	0.006094
3674.000000	0.006110
3673.000000	0.006132
3672.000000	0.006124
3671.000000	0.006099
3670.000000	0.006095
3669.000000	0.006116
3668.000000	0.006122
3667.000000	0.006091
3666.000000	0.006045
3665.000000	0.006017
3664.000000	0.006024
3663.000000	0.006058
3662.000000	0.006101
3661.000000	0.006143
3660.000000	0.006186
3659.000000	0.006228
3658.000000	0.006259
3657.000000	0.006276
3656.000000	0.006296
3655.000000	0.006338
3654.000000	0.006397
3653.000000	0.006453
3652.000000	0.006490
3651.000000	0.006513
3650.000000	0.006540
3649.000000	0.006592
3648.000000	0.006669
3647.000000	0.006757
3646.000000	0.006836
3645.000000	0.006890
3644.000000	0.006911
3643.000000	0.006905
3642.000000	0.006888
3641.000000	0.006875
3640.000000	0.006874
3639.000000	0.006887
3638.000000	0.006921
3637.000000	0.006970
3636.000000	0.007023
3635.000000	0.007072
3634.000000	0.007125
3633.000000	0.007190
3632.000000	0.007266
3631.000000	0.007338
3630.000000	0.007395
3629.000000	0.007445
3628.000000	0.007493
3627.000000	0.007528
3626.000000	0.007540
3625.000000	0.007541
3624.000000	0.007546
3623.000000	0.007557
3622.000000	0.007566
3621.000000	0.007566
3620.000000	0.007571
3619.000000	0.007608
3618.000000	0.007685
3617.000000	0.007782
3616.000000	0.007871
3615.000000	0.007941
3614.000000	0.007999
3613.000000	0.008065
3612.000000	0.008150
3611.000000	0.008247
3610.000000	0.008340
3609.000000	0.008413
3608.000000	0.008461
3607.000000	0.008490
3606.000000	0.008508
3605.000000	0.008522
3604.000000	0.008544
3603.000000	0.008580
3602.000000	0.008630
3601.000000	0.008685
3600.000000	0.008741
3599.000000	0.008795
3598.000000	0.008854
3597.000000	0.008924
3596.000000	0.009006
3595.000000	0.009093
3594.000000	0.009172
3593.000000	0.009234
3592.000000	0.009279
3591.000000	0.009318
3590.000000	0.009364
3589.000000	0.009432
3588.000000	0.009534
3587.000000	0.009662
3586.000000	0.009781
3585.000000	0.009861
3584.000000	0.009902
3583.000000	0.009928
3582.000000	0.009966
3581.000000	0.010025
3580.000000	0.010109
3579.000000	0.010213
3578.000000	0.010327
3577.000000	0.010436
3576.000000	0.010531
3575.000000	0.010615
3574.000000	0.010694
3573.000000	0.010771
3572.000000	0.010842
3571.000000	0.010905
3570.000000	0.010963
3569.000000	0.011018
3568.000000	0.011072
3567.000000	0.011136
3566.000000	0.011214
3565.000000	0.011298
3564.000000	0.011377
3563.000000	0.011447
3562.000000	0.011506
3561.000000	0.011556
3560.000000	0.011608
3559.000000	0.011674
3558.000000	0.011760
3557.000000	0.011857
3556.000000	0.011954
3555.000000	0.012046
3554.000000	0.012137
3553.000000	0.012232
3552.000000	0.012328
3551.000000	0.012416
3550.000000	0.012483
3549.000000	0.012531
3548.000000	0.012574
3547.000000	0.012629
3546.000000	0.012704
3545.000000	0.012789
3544.000000	0.012874
3543.000000	0.012953
3542.000000	0.013026
3541.000000	0.013093
3540.000000	0.013159
3539.000000	0.013232
3538.000000	0.013319
3537.000000	0.013416
3536.000000	0.013517
3535.000000	0.013613
3534.000000	0.013698
3533.000000	0.013765
3532.000000	0.013819
3531.000000	0.013875
3530.000000	0.013946
3529.000000	0.014034
3528.000000	0.014129
3527.000000	0.014220
3526.000000	0.014303
3525.000000	0.014377
3524.000000	0.014445
3523.000000	0.014513
3522.000000	0.014584
3521.000000	0.014659
3520.000000	0.014735
3519.000000	0.014809
3518.000000	0.014880
3517.000000	0.014950
3516.000000	0.015020
3515.000000	0.015091
3514.000000	0.015162
3513.000000	0.015233
3512.000000	0.015307
3511.000000	0.015386
3510.000000	0.015464
3509.000000	0.015533
3508.000000	0.015590
3507.000000	0.015639
3506.000000	0.015688
3505.000000	0.015741
3504.000000	0.015801
3503.000000	0.015873
3502.000000	0.015953
3501.000000	0.016033
3500.000000	0.016108
3499.000000	0.016177
3498.000000	0.016244
3497.000000	0.016308
3496.000000	0.016368
3495.000000	0.016424
3494.000000	0.016480
3493.000000	0.016540
3492.000000	0.016603
3491.000000	0.016670
3490.000000	0.016739
3489.000000	0.016808
3488.000000	0.016876
3487.000000	0.016944
3486.000000	0.017008
3485.000000	0.017066
3484.000000	0.017116
3483.000000	0.017161
3482.000000	0.017205
3481.000000	0.017252
3480.000000	0.017310
3479.000000	0.017379
3478.000000	0.017452
3477.000000	0.017519
3476.000000	0.017574
3475.000000	0.017618
3474.000000	0.017657
3473.000000	0.017700
3472.000000	0.017757
3471.000000	0.017835
3470.000000	0.017927
3469.000000	0.018015
3468.000000	0.018089
3467.000000	0.018151
3466.000000	0.018207
3465.000000	0.018256
3464.000000	0.018296
3463.000000	0.018327
3462.000000	0.018357
3461.000000	0.018389
3460.000000	0.018426
3459.000000	0.018472
3458.000000	0.018528
3457.000000	0.018588
3456.000000	0.018638
3455.000000	0.018676
3454.000000	0.018709
3453.000000	0.018755
3452.000000	0.018824
3451.000000	0.018906
3450.000000	0.018983
3449.000000	0.019039
3448.000000	0.019080
3447.000000	0.019127
3446.000000	0.019192
3445.000000	0.019268
3444.000000	0.019342
3443.000000	0.019408
3442.000000	0.019471
3441.000000	0.019534
3440.000000	0.019594
3439.000000	0.019648
3438.000000	0.019698
3437.000000	0.019751
3436.000000	0.019815
3435.000000	0.019891
3434.000000	0.019969
3433.000000	0.020034
3432.000000	0.020083
3431.000000	0.020126
3430.000000	0.020173
3429.000000	0.020218
3428.000000	0.020253
3427.000000	0.020281
3426.000000	0.020316
3425.000000	0.020365
3424.000000	0.020426
3423.000000	0.020491
3422.000000	0.020557
3421.000000	0.020625
3420.000000	0.020692
3419.000000	0.020755
3418.000000	0.020811
3417.000000	0.020865
3416.000000	0.020924
3415.000000	0.020993
3414.000000	0.021064
3413.000000	0.021129
3412.000000	0.021184
3411.000000	0.021236
3410.000000	0.021292
3409.000000	0.021349
3408.000000	0.021405
3407.000000	0.021456
3406.000000	0.021496
3405.000000	0.021521
3404.000000	0.021537
3403.000000	0.021558
3402.000000	0.021597
3401.000000	0.021647
3400.000000	0.021698
3399.000000	0.021744
3398.000000	0.021791
3397.000000	0.021847
3396.000000	0.021914
3395.000000	0.021984
3394.000000	0.022052
3393.000000	0.022111
3392.000000	0.022163
3391.000000	0.022214
3390.000000	0.022267
3389.000000	0.022318
3388.000000	0.022359
3387.000000	0.022385
3386.000000	0.022406
3385.000000	0.022433
3384.000000	0.022480
3383.000000	0.022547
3382.000000	0.022625
3381.000000	0.022705
3380.000000	0.022788
3379.000000	0.022880
3378.000000	0.022986
3377.000000	0.023098
3376.000000	0.023203
3375.000000	0.023289
3374.000000	0.023351
3373.000000	0.023393
3372.000000	0.023430
3371.000000	0.023479
3370.000000	0.023551
3369.000000	0.023648
3368.000000	0.023762
3367.000000	0.023883
3366.000000	0.023995
3365.000000	0.024088
3364.000000	0.024156
3363.000000	0.024207
3362.000000	0.024251
3361.000000	0.024297
3360.000000	0.024350
3359.000000	0.024418
3358.000000	0.024505
3357.000000	0.024609
3356.000000	0.024725
3355.000000	0.024841
3354.000000	0.024948
3353.000000	0.025044
3352.000000	0.025131
3351.000000	0.025217
3350.000000	0.025306
3349.000000	0.025400
3348.000000	0.025506
3347.000000	0.025623
3346.000000	0.025745
3345.000000	0.025860
3344.000000	0.025961
3343.000000	0.026055
3342.000000	0.026149
3341.000000	0.026245
3340.000000	0.026338
3339.000000	0.026426
3338.000000	0.026506
3337.000000	0.026583
3336.000000	0.026657
3335.000000	0.026731
3334.000000	0.026801
3333.000000	0.026873
3332.000000	0.026955
3331.000000	0.027052
3330.000000	0.027151
3329.000000	0.027232
3328.000000	0.027288
3327.000000	0.027333
3326.000000	0.027382
3325.000000	0.027445
3324.000000	0.027523
3323.000000	0.027613
3322.000000	0.027705
3321.000000	0.027780
3320.000000	0.027829
3319.000000	0.027859
3318.000000	0.027888
3317.000000	0.027927
3316.000000	0.027975
3315.000000	0.028028
3314.000000	0.028081
3313.000000	0.028135
3312.000000	0.028188
3311.000000	0.028245
3310.000000	0.028301
3309.000000	0.028348
3308.000000	0.028373
3307.000000	0.028378
3306.000000	0.028379
3305.000000	0.028396
3304.000000	0.028447
3303.000000	0.028528
3302.000000	0.028618
3301.000000	0.028688
3300.000000	0.028724
3299.000000	0.028733
3298.000000	0.028736
3297.000000	0.028742
3296.000000	0.028749
3295.000000	0.028755
3294.000000	0.028761
3293.000000	0.028763
3292.000000	0.028758
3291.000000	0.028749
3290.000000	0.028747
3289.000000	0.028761
3288.000000	0.028787
3287.000000	0.028814
3286.000000	0.028830
3285.000000	0.028835
3284.000000	0.028829
3283.000000	0.028813
3282.000000	0.028787
3281.000000	0.028753
3280.000000	0.028716
3279.000000	0.028685
3278.000000	0.028658
3277.000000	0.028628
3276.000000	0.028582
3275.000000	0.028517
3274.000000	0.028439
3273.000000	0.028363
3272.000000	0.028311
3271.000000	0.028289
3270.000000	0.028286
3269.000000	0.028275
3268.000000	0.028238
3267.000000	0.028175
3266.000000	0.028097
3265.000000	0.028018
3264.000000	0.027953
3263.000000	0.027906
3262.000000	0.027875
3261.000000	0.027843
3260.000000	0.027792
3259.000000	0.027717
3258.000000	0.027627
3257.000000	0.027536
3256.000000	0.027457
3255.000000	0.027391
3254.000000	0.027326
3253.000000	0.027247
3252.000000	0.027151
3251.000000	0.027054
3250.000000	0.026974
3249.000000	0.026913
3248.000000	0.026858
3247.000000	0.026799
3246.000000	0.026739
3245.000000	0.026687
3244.000000	0.026650
3243.000000	0.026618
3242.000000	0.026575
3241.000000	0.026516
3240.000000	0.026445
3239.000000	0.026372
3238.000000	0.026297
3237.000000	0.026217
3236.000000	0.026138
3235.000000	0.026069
3234.000000	0.026014
3233.000000	0.025965
3232.000000	0.025921
3231.000000	0.025883
3230.000000	0.025852
3229.000000	0.025817
3228.000000	0.025760
3227.000000	0.025681
3226.000000	0.025595
3225.000000	0.025526
3224.000000	0.025486
3223.000000	0.025470
3222.000000	0.025455
3221.000000	0.025421
3220.000000	0.025361
3219.000000	0.025286
3218.000000	0.025210
3217.000000	0.025139
3216.000000	0.025072
3215.000000	0.025013
3214.000000	0.024968
3213.000000	0.024937
3212.000000	0.024909
3211.000000	0.024868
3210.000000	0.024802
3209.000000	0.024710
3208.000000	0.024607
3207.000000	0.024508
3206.000000	0.024425
3205.000000	0.024364
3204.000000	0.024320
3203.000000	0.024289
3202.000000	0.024261
3201.000000	0.024226
3200.000000	0.024175
3199.000000	0.024110
3198.000000	0.024034
3197.000000	0.023955
3196.000000	0.023879
3195.000000	0.023807
3194.000000	0.023737
3193.000000	0.023665
3192.000000	0.023589
3191.000000	0.023509
3190.000000	0.023429
3189.000000	0.023353
3188.000000	0.023283
3187.000000	0.023213
3186.000000	0.023130
3185.000000	0.023033
3184.000000	0.022937
3183.000000	0.022863
3182.000000	0.022812
3181.000000	0.022762
3180.000000	0.022695
3179.000000	0.022613
3178.000000	0.022524
3177.000000	0.022433
3176.000000	0.022336
3175.000000	0.022234
3174.000000	0.022136
3173.000000	0.022048
3172.000000	0.021968
3171.000000	0.021896
3170.000000	0.021829
3169.000000	0.021764
3168.000000	0.021691
3167.000000	0.021603
3166.000000	0.021504
3165.000000	0.021405
3164.000000	0.021322
3163.000000	0.021263
3162.000000	0.021222
3161.000000	0.021180
3160.000000	0.021117
3159.000000	0.021029
3158.000000	0.020927
3157.000000	0.020829
3156.000000	0.020745
3155.000000	0.020674
3154.000000	0.020605
3153.000000	0.020535
3152.000000	0.020465
3151.000000	0.020399
3150.000000	0.020336
3149.000000	0.020272
3148.000000	0.020210
3147.000000	0.020159
3146.000000	0.020122
3145.000000	0.020090
3144.000000	0.020053
3143.000000	0.020003
3142.000000	0.019938
3141.000000	0.019865
3140.000000	0.019793
3139.000000	0.019728
3138.000000	0.019670
3137.000000	0.019615
3136.000000	0.019560
3135.000000	0.019512
3134.000000	0.019471
3133.000000	0.019432
3132.000000	0.019382
3131.000000	0.019318
3130.000000	0.019248
3129.000000	0.019183
3128.000000	0.019138
3127.000000	0.019118
3126.000000	0.019116
3125.000000	0.019108
3124.000000	0.019067
3123.000000	0.018993
3122.000000	0.018910
3121.000000	0.018849
3120.000000	0.018822
3119.000000	0.018821
3118.000000	0.018828
3117.000000	0.018836
3116.000000	0.018843
3115.000000	0.018849
3114.000000	0.018851
3113.000000	0.018850
3112.000000	0.018847
3111.000000	0.018844
3110.000000	0.018837
3109.000000	0.018823
3108.000000	0.018807
3107.000000	0.018799
3106.000000	0.018803
3105.000000	0.018815
3104.000000	0.018827
3103.000000	0.018833
3102.000000	0.018835
3101.000000	0.018837
3100.000000	0.018848
3099.000000	0.018874
3098.000000	0.018912
3097.000000	0.018950
3096.000000	0.018974
3095.000000	0.018984
3094.000000	0.018991
3093.000000	0.019009
3092.000000	0.019036
3091.000000	0.019064
3090.000000	0.019089
3089.000000	0.019113
3088.000000	0.019133
3087.000000	0.019149
3086.000000	0.019159
3085.000000	0.019168
3084.000000	0.019182
3083.000000	0.019196
3082.000000	0.019200
3081.000000	0.019187
3080.000000	0.019163
3079.000000	0.019138
3078.000000	0.019123
3077.000000	0.019122
3076.000000	0.019133
3075.000000	0.019146
3074.000000	0.019153
3073.000000	0.019154
3072.000000	0.019159
3071.000000	0.019170
3070.000000	0.019177
3069.000000	0.019165
3068.000000	0.019131
3067.000000	0.019087
3066.000000	0.019045
3065.000000	0.019012
3064.000000	0.018983
3063.000000	0.018949
3062.000000	0.018899
3061.000000	0.018829
3060.000000	0.018745
3059.000000	0.018657
3058.000000	0.018582
3057.000000	0.018532
3056.000000	0.018501
3055.000000	0.018474
3054.000000	0.018430
3053.000000	0.018365
3052.000000	0.018293
3051.000000	0.018226
3050.000000	0.018169
3049.000000	0.018116
3048.000000	0.018061
3047.000000	0.017997
3046.000000	0.017920
3045.000000	0.017832
3044.000000	0.017747
3043.000000	0.017676
3042.000000	0.017620
3041.000000	0.017573
3040.000000	0.017524
3039.000000	0.017469
3038.000000	0.017402
3037.000000	0.017321
3036.000000	0.017233
3035.000000	0.017154
3034.000000	0.017096
3033.000000	0.017058
3032.000000	0.017028
3031.000000	0.016993
3030.000000	0.016946
3029.000000	0.016887
3028.000000	0.016827
3027.000000	0.016777
3026.000000	0.016747
3025.000000	0.016735
3024.000000	0.016730
3023.000000	0.016713
3022.000000	0.016677
3021.000000	0.016629
3020.000000	0.016587
3019.000000	0.016563
3018.000000	0.016558
3017.000000	0.016566
3016.000000	0.016585
3015.000000	0.016614
3014.000000	0.016645
3013.000000	0.016677
3012.000000	0.016717
3011.000000	0.016774
3010.000000	0.016844
3009.000000	0.016909
3008.000000	0.016951
3007.000000	0.016967
3006.000000	0.016968
3005.000000	0.016967
3004.000000	0.016973
3003.000000	0.016980
3002.000000	0.016981
3001.000000	0.016969
3000.000000	0.016944
2999.000000	0.016911
2998.000000	0.016875
2997.000000	0.016840
2996.000000	0.016814
2995.000000	0.016803
2994.000000	0.016810
2993.000000	0.016829
2992.000000	0.016857
2991.000000	0.016896
2990.000000	0.016950
2989.000000	0.017021
2988.000000	0.017106
2987.000000	0.017200
2986.000000	0.017300
2985.000000	0.017406
2984.000000	0.017521
2983.000000	0.017646
2982.000000	0.017782
2981.000000	0.017924
2980.000000	0.018073
2979.000000	0.018230
2978.000000	0.018398
2977.000000	0.018583
2976.000000	0.018789
2975.000000	0.019020
2974.000000	0.019273
2973.000000	0.019541
2972.000000	0.019821
2971.000000	0.020112
2970.000000	0.020417
2969.000000	0.020739
2968.000000	0.021085
2967.000000	0.021460
2966.000000	0.021862
2965.000000	0.022274
2964.000000	0.022683
2963.000000	0.023081
2962.000000	0.023468
2961.000000	0.023847
2960.000000	0.024213
2959.000000	0.024554
2958.000000	0.024851
2957.000000	0.025093
2956.000000	0.025274
2955.000000	0.025394
2954.000000	0.025463
2953.000000	0.025498
2952.000000	0.025524
2951.000000	0.025562
2950.000000	0.025621
2949.000000	0.025706
2948.000000	0.025832
2947.000000	0.026023
2946.000000	0.026300
2945.000000	0.026667
2944.000000	0.027111
2943.000000	0.027621
2942.000000	0.028195
2941.000000	0.028844
2940.000000	0.029577
2939.000000	0.030394
2938.000000	0.031281
2937.000000	0.032213
2936.000000	0.033176
2935.000000	0.034160
2934.000000	0.035163
2933.000000	0.036177
2932.000000	0.037189
2931.000000	0.038184
2930.000000	0.039145
2929.000000	0.040053
2928.000000	0.040895
2927.000000	0.041650
2926.000000	0.042291
2925.000000	0.042775
2924.000000	0.043059
2923.000000	0.043115
2922.000000	0.042940
2921.000000	0.042556
2920.000000	0.041991
2919.000000	0.041272
2918.000000	0.040416
2917.000000	0.039439
2916.000000	0.038367
2915.000000	0.037240
2914.000000	0.036105
2913.000000	0.035005
2912.000000	0.033974
2911.000000	0.033028
2910.000000	0.032168
2909.000000	0.031384
2908.000000	0.030672
2907.000000	0.030029
2906.000000	0.029451
2905.000000	0.028920
2904.000000	0.028421
2903.000000	0.027946
2902.000000	0.027500
2901.000000	0.027087
2900.000000	0.026706
2899.000000	0.026346
2898.000000	0.025994
2897.000000	0.025640
2896.000000	0.025283
2895.000000	0.024931
2894.000000	0.024589
2893.000000	0.024262
2892.000000	0.023958
2891.000000	0.023683
2890.000000	0.023435
2889.000000	0.023200
2888.000000	0.022965
2887.000000	0.022728
2886.000000	0.022502
2885.000000	0.022305
2884.000000	0.022147
2883.000000	0.022026
2882.000000	0.021933
2881.000000	0.021867
2880.000000	0.021836
2879.000000	0.021849
2878.000000	0.021910
2877.000000	0.022019
2876.000000	0.022166
2875.000000	0.022333
2874.000000	0.022495
2873.000000	0.022620
2872.000000	0.022693
2871.000000	0.022723
2870.000000	0.022741
2869.000000	0.022774
2868.000000	0.022841
2867.000000	0.022959
2866.000000	0.023159
2865.000000	0.023473
2864.000000	0.023918
2863.000000	0.024487
2862.000000	0.025171
2861.000000	0.025963
2860.000000	0.026849
2859.000000	0.027795
2858.000000	0.028750
2857.000000	0.029662
2856.000000	0.030478
2855.000000	0.031133
2854.000000	0.031555
2853.000000	0.031683
2852.000000	0.031484
2851.000000	0.030961
2850.000000	0.030145
2849.000000	0.029097
2848.000000	0.027897
2847.000000	0.026632
2846.000000	0.025380
2845.000000	0.024197
2844.000000	0.023117
2843.000000	0.022159
2842.000000	0.021322
2841.000000	0.020601
2840.000000	0.019984
2839.000000	0.019458
2838.000000	0.019012
2837.000000	0.018635
2836.000000	0.018317
2835.000000	0.018043
2834.000000	0.017801
2833.000000	0.017581
2832.000000	0.017377
2831.000000	0.017183
2830.000000	0.016992
2829.000000	0.016807
2828.000000	0.016631
2827.000000	0.016471
2826.000000	0.016323
2825.000000	0.016187
2824.000000	0.016061
2823.000000	0.015947
2822.000000	0.015844
2821.000000	0.015747
2820.000000	0.015652
2819.000000	0.015554
2818.000000	0.015453
2817.000000	0.015360
2816.000000	0.015286
2815.000000	0.015230
2814.000000	0.015181
2813.000000	0.015123
2812.000000	0.015051
2811.000000	0.014966
2810.000000	0.014877
2809.000000	0.014793
2808.000000	0.014719
2807.000000	0.014660
2806.000000	0.014610
2805.000000	0.014559
2804.000000	0.014501
2803.000000	0.014438
2802.000000	0.014378
2801.000000	0.014327
2800.000000	0.014289
2799.000000	0.014259
2798.000000	0.014230
2797.000000	0.014193
2796.000000	0.014147
2795.000000	0.014090
2794.000000	0.014028
2793.000000	0.013970
2792.000000	0.013924
2791.000000	0.013889
2790.000000	0.013861
2789.000000	0.013835
2788.000000	0.013812
2787.000000	0.013786
2786.000000	0.013751
2785.000000	0.013704
2784.000000	0.013650
2783.000000	0.013596
2782.000000	0.013546
2781.000000	0.013504
2780.000000	0.013468
2779.000000	0.013437
2778.000000	0.013409
2777.000000	0.013382
2776.000000	0.013357
2775.000000	0.013334
2774.000000	0.013308
2773.000000	0.013280
2772.000000	0.013254
2771.000000	0.013235
2770.000000	0.013220
2769.000000	0.013200
2768.000000	0.013168
2767.000000	0.013122
2766.000000	0.013068
2765.000000	0.013015
2764.000000	0.012971
2763.000000	0.012935
2762.000000	0.012899
2761.000000	0.012856
2760.000000	0.012815
2759.000000	0.012790
2758.000000	0.012783
2757.000000	0.012783
2756.000000	0.012776
2755.000000	0.012766
2754.000000	0.012763
2753.000000	0.012768
2752.000000	0.012768
2751.000000	0.012750
2750.000000	0.012717
2749.000000	0.012679
2748.000000	0.012645
2747.000000	0.012616
2746.000000	0.012591
2745.000000	0.012572
2744.000000	0.012558
2743.000000	0.012545
2742.000000	0.012527
2741.000000	0.012507
2740.000000	0.012491
2739.000000	0.012477
2738.000000	0.012458
2737.000000	0.012433
2736.000000	0.012405
2735.000000	0.012379
2734.000000	0.012354
2733.000000	0.012334
2732.000000	0.012320
2731.000000	0.012313
2730.000000	0.012304
2729.000000	0.012285
2728.000000	0.012254
2727.000000	0.012220
2726.000000	0.012188
2725.000000	0.012159
2724.000000	0.012133
2723.000000	0.012105
2722.000000	0.012078
2721.000000	0.012055
2720.000000	0.012038
2719.000000	0.012024
2718.000000	0.012006
2717.000000	0.011982
2716.000000	0.011953
2715.000000	0.011931
2714.000000	0.011925
2713.000000	0.011935
2712.000000	0.011946
2711.000000	0.011942
2710.000000	0.011919
2709.000000	0.011889
2708.000000	0.011863
2707.000000	0.011841
2706.000000	0.011817
2705.000000	0.011789
2704.000000	0.011764
2703.000000	0.011750
2702.000000	0.011743
2701.000000	0.011740
2700.000000	0.011736
2699.000000	0.011726
2698.000000	0.011710
2697.000000	0.011693
2696.000000	0.011680
2695.000000	0.011674
2694.000000	0.011673
2693.000000	0.011672
2692.000000	0.011669
2691.000000	0.011661
2690.000000	0.011650
2689.000000	0.011641
2688.000000	0.011638
2687.000000	0.011637
2686.000000	0.011631
2685.000000	0.011619
2684.000000	0.011607
2683.000000	0.011604
2682.000000	0.011611
2681.000000	0.011622
2680.000000	0.011630
2679.000000	0.011628
2678.000000	0.011615
2677.000000	0.011591
2676.000000	0.011569
2675.000000	0.011557
2674.000000	0.011554
2673.000000	0.011551
2672.000000	0.011539
2671.000000	0.011516
2670.000000	0.011491
2669.000000	0.011473
2668.000000	0.011465
2667.000000	0.011462
2666.000000	0.011460
2665.000000	0.011452
2664.000000	0.011434
2663.000000	0.011408
2662.000000	0.011377
2661.000000	0.011347
2660.000000	0.011320
2659.000000	0.011296
2658.000000	0.011271
2657.000000	0.011244
2656.000000	0.011214
2655.000000	0.011181
2654.000000	0.011148
2653.000000	0.011118
2652.000000	0.011087
2651.000000	0.011056
2650.000000	0.011025
2649.000000	0.010996
2648.000000	0.010964
2647.000000	0.010927
2646.000000	0.010890
2645.000000	0.010863
2644.000000	0.010844
2643.000000	0.010819
2642.000000	0.010783
2641.000000	0.010743
2640.000000	0.010708
2639.000000	0.010680
2638.000000	0.010652
2637.000000	0.010628
2636.000000	0.010614
2635.000000	0.010604
2634.000000	0.010583
2633.000000	0.010545
2632.000000	0.010502
2631.000000	0.010467
2630.000000	0.010445
2629.000000	0.010428
2628.000000	0.010406
2627.000000	0.010373
2626.000000	0.010332
2625.000000	0.010292
2624.000000	0.010261
2623.000000	0.010239
2622.000000	0.010222
2621.000000	0.010208
2620.000000	0.010196
2619.000000	0.010183
2618.000000	0.010162
2617.000000	0.010130
2616.000000	0.010091
2615.000000	0.010049
2614.000000	0.010010
2613.000000	0.009971
2612.000000	0.009927
2611.000000	0.009874
2610.000000	0.009826
2609.000000	0.009798
2608.000000	0.009795
2607.000000	0.009801
2606.000000	0.009799
2605.000000	0.009788
2604.000000	0.009778
2603.000000	0.009775
2602.000000	0.009778
2601.000000	0.009780
2600.000000	0.009778
2599.000000	0.009765
2598.000000	0.009738
2597.000000	0.009704
2596.000000	0.009673
2595.000000	0.009649
2594.000000	0.009625
2593.000000	0.009596
2592.000000	0.009566
2591.000000	0.009544
2590.000000	0.009536
2589.000000	0.009536
2588.000000	0.009529
2587.000000	0.009506
2586.000000	0.009476
2585.000000	0.009460
2584.000000	0.009470
2583.000000	0.009492
2582.000000	0.009498
2581.000000	0.009475
2580.000000	0.009429
2579.000000	0.009379
2578.000000	0.009347
2577.000000	0.009345
2576.000000	0.009366
2575.000000	0.009383
2574.000000	0.009376
2573.000000	0.009343
2572.000000	0.009300
2571.000000	0.009267
2570.000000	0.009260
2569.000000	0.009280
2568.000000	0.009307
2567.000000	0.009313
2566.000000	0.009291
2565.000000	0.009266
2564.000000	0.009264
2563.000000	0.009281
2562.000000	0.009291
2561.000000	0.009277
2560.000000	0.009247
2559.000000	0.009215
2558.000000	0.009189
2557.000000	0.009166
2556.000000	0.009137
2555.000000	0.009096
2554.000000	0.009053
2553.000000	0.009026
2552.000000	0.009021
2551.000000	0.009029
2550.000000	0.009039
2549.000000	0.009051
2548.000000	0.009065
2547.000000	0.009068
2546.000000	0.009047
2545.000000	0.009013
2544.000000	0.008998
2543.000000	0.009016
2542.000000	0.009053
2541.000000	0.009084
2540.000000	0.009091
2539.000000	0.009072
2538.000000	0.009039
2537.000000	0.009010
2536.000000	0.009000
2535.000000	0.009005
2534.000000	0.009010
2533.000000	0.009004
2532.000000	0.008986
2531.000000	0.008965
2530.000000	0.008954
2529.000000	0.008964
2528.000000	0.009002
2527.000000	0.009058
2526.000000	0.009108
2525.000000	0.009126
2524.000000	0.009101
2523.000000	0.009043
2522.000000	0.008977
2521.000000	0.008929
2520.000000	0.008906
2519.000000	0.008894
2518.000000	0.008871
2517.000000	0.008831
2516.000000	0.008792
2515.000000	0.008772
2514.000000	0.008773
2513.000000	0.008788
2512.000000	0.008810
2511.000000	0.008829
2510.000000	0.008831
2509.000000	0.008801
2508.000000	0.008740
2507.000000	0.008681
2506.000000	0.008666
2505.000000	0.008702
2504.000000	0.008752
2503.000000	0.008774
2502.000000	0.008766
2501.000000	0.008756
2500.000000	0.008763
2499.000000	0.008769
2498.000000	0.008754
2497.000000	0.008724
2496.000000	0.008703
2495.000000	0.008699
2494.000000	0.008701
2493.000000	0.008692
2492.000000	0.008664
2491.000000	0.008620
2490.000000	0.008576
2489.000000	0.008552
2488.000000	0.008557
2487.000000	0.008578
2486.000000	0.008593
2485.000000	0.008588
2484.000000	0.008560
2483.000000	0.008513
2482.000000	0.008464
2481.000000	0.008435
2480.000000	0.008444
2479.000000	0.008483
2478.000000	0.008532
2477.000000	0.008578
2476.000000	0.008609
2475.000000	0.008614
2474.000000	0.008581
2473.000000	0.008521
2472.000000	0.008468
2471.000000	0.008454
2470.000000	0.008481
2469.000000	0.008512
2468.000000	0.008514
2467.000000	0.008485
2466.000000	0.008461
2465.000000	0.008472
2464.000000	0.008509
2463.000000	0.008537
2462.000000	0.008531
2461.000000	0.008500
2460.000000	0.008468
2459.000000	0.008459
2458.000000	0.008479
2457.000000	0.008513
2456.000000	0.008526
2455.000000	0.008500
2454.000000	0.008450
2453.000000	0.008415
2452.000000	0.008410
2451.000000	0.008417
2450.000000	0.008418
2449.000000	0.008419
2448.000000	0.008429
2447.000000	0.008438
2446.000000	0.008429
2445.000000	0.008407
2444.000000	0.008389
2443.000000	0.008392
2442.000000	0.008415
2441.000000	0.008445
2440.000000	0.008459
2439.000000	0.008440
2438.000000	0.008390
2437.000000	0.008332
2436.000000	0.008282
2435.000000	0.008242
2434.000000	0.008217
2433.000000	0.008221
2432.000000	0.008251
2431.000000	0.008279
2430.000000	0.008278
2429.000000	0.008258
2428.000000	0.008247
2427.000000	0.008257
2426.000000	0.008273
2425.000000	0.008282
2424.000000	0.008288
2423.000000	0.008296
2422.000000	0.008308
2421.000000	0.008318
2420.000000	0.008317
2419.000000	0.008298
2418.000000	0.008267
2417.000000	0.008246
2416.000000	0.008251
2415.000000	0.008282
2414.000000	0.008324
2413.000000	0.008356
2412.000000	0.008358
2411.000000	0.008319
2410.000000	0.008248
2409.000000	0.008185
2408.000000	0.008167
2407.000000	0.008198
2406.000000	0.008252
2405.000000	0.008302
2404.000000	0.008330
2403.000000	0.008327
2402.000000	0.008299
2401.000000	0.008263
2400.000000	0.008236
2399.000000	0.008222
2398.000000	0.008216
2397.000000	0.008218
2396.000000	0.008231
2395.000000	0.008255
2394.000000	0.008283
2393.000000	0.008312
2392.000000	0.008340
2391.000000	0.008363
2390.000000	0.008378
2389.000000	0.008384
2388.000000	0.008381
2387.000000	0.008369
2386.000000	0.008351
2385.000000	0.008331
2384.000000	0.008320
2383.000000	0.008321
2382.000000	0.008330
2381.000000	0.008336
2380.000000	0.008328
2379.000000	0.008307
2378.000000	0.008289
2377.000000	0.008287
2376.000000	0.008290
2375.000000	0.008277
2374.000000	0.008244
2373.000000	0.008209
2372.000000	0.008191
2371.000000	0.008186
2370.000000	0.008183
2369.000000	0.008180
2368.000000	0.008178
2367.000000	0.008185
2366.000000	0.008213
2365.000000	0.008256
2364.000000	0.008274
2363.000000	0.008257
2362.000000	0.008243
2361.000000	0.008255
2360.000000	0.008288
2359.000000	0.008302
2358.000000	0.008268
2357.000000	0.008231
2356.000000	0.008206
2355.000000	0.008228
2354.000000	0.008272
2353.000000	0.008264
2352.000000	0.008118
2351.000000	0.007872
2350.000000	0.007709
2349.000000	0.007766
2348.000000	0.008052
2347.000000	0.008399
2346.000000	0.008583
2345.000000	0.008536
2344.000000	0.008386
2343.000000	0.008327
2342.000000	0.008351
2341.000000	0.008375
2340.000000	0.008377
2339.000000	0.008390
2338.000000	0.008428
2337.000000	0.008464
2336.000000	0.008479
2335.000000	0.008451
2334.000000	0.008401
2333.000000	0.008346
2332.000000	0.008328
2331.000000	0.008325
2330.000000	0.008357
2329.000000	0.008382
2328.000000	0.008442
2327.000000	0.008536
2326.000000	0.008673
2325.000000	0.008800
2324.000000	0.008851
2323.000000	0.008802
2322.000000	0.008696
2321.000000	0.008601
2320.000000	0.008556
2319.000000	0.008525
2318.000000	0.008497
2317.000000	0.008457
2316.000000	0.008431
2315.000000	0.008389
2314.000000	0.008346
2313.000000	0.008306
2312.000000	0.008302
2311.000000	0.008304
2310.000000	0.008305
2309.000000	0.008301
2308.000000	0.008317
2307.000000	0.008328
2306.000000	0.008310
2305.000000	0.008264
2304.000000	0.008231
2303.000000	0.008219
2302.000000	0.008217
2301.000000	0.008197
2300.000000	0.008177
2299.000000	0.008159
2298.000000	0.008156
2297.000000	0.008152
2296.000000	0.008150
2295.000000	0.008136
2294.000000	0.008112
2293.000000	0.008081
2292.000000	0.008059
2291.000000	0.008052
2290.000000	0.008055
2289.000000	0.008064
2288.000000	0.008074
2287.000000	0.008082
2286.000000	0.008086
2285.000000	0.008100
2284.000000	0.008129
2283.000000	0.008159
2282.000000	0.008159
2281.000000	0.008113
2280.000000	0.008035
2279.000000	0.007957
2278.000000	0.007918
2277.000000	0.007937
2276.000000	0.007989
2275.000000	0.008016
2274.000000	0.007991
2273.000000	0.007945
2272.000000	0.007923
2271.000000	0.007930
2270.000000	0.007943
2269.000000	0.007940
2268.000000	0.007912
2267.000000	0.007864
2266.000000	0.007819
2265.000000	0.007815
2264.000000	0.007862
2263.000000	0.007923
2262.000000	0.007955
2261.000000	0.007960
2260.000000	0.007954
2259.000000	0.007939
2258.000000	0.007901
2257.000000	0.007841
2256.000000	0.007766
2255.000000	0.007675
2254.000000	0.007579
2253.000000	0.007507
2252.000000	0.007480
2251.000000	0.007490
2250.000000	0.007527
2249.000000	0.007591
2248.000000	0.007666
2247.000000	0.007703
2246.000000	0.007680
2245.000000	0.007638
2244.000000	0.007621
2243.000000	0.007607
2242.000000	0.007546
2241.000000	0.007439
2240.000000	0.007336
2239.000000	0.007272
2238.000000	0.007251
2237.000000	0.007280
2236.000000	0.007363
2235.000000	0.007469
2234.000000	0.007556
2233.000000	0.007619
2232.000000	0.007681
2231.000000	0.007740
2230.000000	0.007749
2229.000000	0.007675
2228.000000	0.007537
2227.000000	0.007393
2226.000000	0.007302
2225.000000	0.007281
2224.000000	0.007296
2223.000000	0.007299
2222.000000	0.007291
2221.000000	0.007318
2220.000000	0.007397
2219.000000	0.007491
2218.000000	0.007569
2217.000000	0.007647
2216.000000	0.007739
2215.000000	0.007800
2214.000000	0.007779
2213.000000	0.007684
2212.000000	0.007562
2211.000000	0.007434
2210.000000	0.007300
2209.000000	0.007182
2208.000000	0.007119
2207.000000	0.007135
2206.000000	0.007225
2205.000000	0.007354
2204.000000	0.007447
2203.000000	0.007433
2202.000000	0.007322
2201.000000	0.007214
2200.000000	0.007184
2199.000000	0.007214
2198.000000	0.007259
2197.000000	0.007335
2196.000000	0.007474
2195.000000	0.007637
2194.000000	0.007718
2193.000000	0.007640
2192.000000	0.007421
2191.000000	0.007165
2190.000000	0.007000
2189.000000	0.006994
2188.000000	0.007093
2187.000000	0.007191
2186.000000	0.007268
2185.000000	0.007393
2184.000000	0.007568
2183.000000	0.007670
2182.000000	0.007592
2181.000000	0.007387
2180.000000	0.007196
2179.000000	0.007114
2178.000000	0.007155
2177.000000	0.007281
2176.000000	0.007386
2175.000000	0.007344
2174.000000	0.007151
2173.000000	0.006947
2172.000000	0.006859
2171.000000	0.006878
2170.000000	0.006935
2169.000000	0.007014
2168.000000	0.007113
2167.000000	0.007184
2166.000000	0.007191
2165.000000	0.007162
2164.000000	0.007118
2163.000000	0.007015
2162.000000	0.006832
2161.000000	0.006635
2160.000000	0.006449
2159.000000	0.006202
2158.000000	0.005901
2157.000000	0.005744
2156.000000	0.005867
2155.000000	0.006162
2154.000000	0.006442
2153.000000	0.006634
2152.000000	0.006744
2151.000000	0.006765
2150.000000	0.006698
2149.000000	0.006602
2148.000000	0.006543
2147.000000	0.006516
2146.000000	0.006500
2145.000000	0.006518
2144.000000	0.006586
2143.000000	0.006660
2142.000000	0.006701
2141.000000	0.006738
2140.000000	0.006813
2139.000000	0.006909
2138.000000	0.006966
2137.000000	0.006942
2136.000000	0.006825
2135.000000	0.006638
2134.000000	0.006466
2133.000000	0.006426
2132.000000	0.006552
2131.000000	0.006759
2130.000000	0.006951
2129.000000	0.007106
2128.000000	0.007228
2127.000000	0.007286
2126.000000	0.007249
2125.000000	0.007159
2124.000000	0.007105
2123.000000	0.007121
2122.000000	0.007171
2121.000000	0.007207
2120.000000	0.007221
2119.000000	0.007234
2118.000000	0.007262
2117.000000	0.007310
2116.000000	0.007363
2115.000000	0.007402
2114.000000	0.007429
2113.000000	0.007463
2112.000000	0.007504
2111.000000	0.007534
2110.000000	0.007553
2109.000000	0.007586
2108.000000	0.007632
2107.000000	0.007638
2106.000000	0.007574
2105.000000	0.007479
2104.000000	0.007424
2103.000000	0.007429
2102.000000	0.007462
2101.000000	0.007487
2100.000000	0.007489
2099.000000	0.007462
2098.000000	0.007407
2097.000000	0.007332
2096.000000	0.007245
2095.000000	0.007155
2094.000000	0.007091
2093.000000	0.007099
2092.000000	0.007184
2091.000000	0.007294
2090.000000	0.007370
2089.000000	0.007403
2088.000000	0.007412
2087.000000	0.007413
2086.000000	0.007406
2085.000000	0.007395
2084.000000	0.007383
2083.000000	0.007382
2082.000000	0.007411
2081.000000	0.007478
2080.000000	0.007545
2079.000000	0.007553
2078.000000	0.007492
2077.000000	0.007410
2076.000000	0.007341
2075.000000	0.007262
2074.000000	0.007141
2073.000000	0.006987
2072.000000	0.006851
2071.000000	0.006792
2070.000000	0.006853
2069.000000	0.007001
2068.000000	0.007107
2067.000000	0.007058
2066.000000	0.006899
2065.000000	0.006787
2064.000000	0.006797
2063.000000	0.006844
2062.000000	0.006828
2061.000000	0.006760
2060.000000	0.006700
2059.000000	0.006670
2058.000000	0.006671
2057.000000	0.006707
2056.000000	0.006752
2055.000000	0.006757
2054.000000	0.006732
2053.000000	0.006746
2052.000000	0.006798
2051.000000	0.006795
2050.000000	0.006696
2049.000000	0.006604
2048.000000	0.006619
2047.000000	0.006687
2046.000000	0.006699
2045.000000	0.006656
2044.000000	0.006621
2043.000000	0.006592
2042.000000	0.006549
2041.000000	0.006528
2040.000000	0.006555
2039.000000	0.006559
2038.000000	0.006464
2037.000000	0.006296
2036.000000	0.006130
2035.000000	0.005998
2034.000000	0.005930
2033.000000	0.005971
2032.000000	0.006063
2031.000000	0.006035
2030.000000	0.005842
2029.000000	0.005670
2028.000000	0.005698
2027.000000	0.005876
2026.000000	0.006060
2025.000000	0.006225
2024.000000	0.006401
2023.000000	0.006504
2022.000000	0.006395
2021.000000	0.006084
2020.000000	0.005740
2019.000000	0.005537
2018.000000	0.005540
2017.000000	0.005682
2016.000000	0.005787
2015.000000	0.005715
2014.000000	0.005511
2013.000000	0.005370
2012.000000	0.005401
2011.000000	0.005543
2010.000000	0.005702
2009.000000	0.005854
2008.000000	0.005969
2007.000000	0.005986
2006.000000	0.005922
2005.000000	0.005887
2004.000000	0.005921
2003.000000	0.005952
2002.000000	0.005948
2001.000000	0.005971
2000.000000	0.006030
1999.000000	0.006036
1998.000000	0.005957
1997.000000	0.005880
1996.000000	0.005876
1995.000000	0.005904
1994.000000	0.005927
1993.000000	0.005993
1992.000000	0.006109
1991.000000	0.006159
1990.000000	0.006054
1989.000000	0.005879
1988.000000	0.005773
1987.000000	0.005767
1986.000000	0.005812
1985.000000	0.005889
1984.000000	0.006011
1983.000000	0.006171
1982.000000	0.006364
1981.000000	0.006585
1980.000000	0.006751
1979.000000	0.006726
1978.000000	0.006501
1977.000000	0.006235
1976.000000	0.006054
1975.000000	0.005922
1974.000000	0.005803
1973.000000	0.005754
1972.000000	0.005786
1971.000000	0.005819
1970.000000	0.005832
1969.000000	0.005912
1968.000000	0.006066
1967.000000	0.006147
1966.000000	0.006068
1965.000000	0.005936
1964.000000	0.005875
1963.000000	0.005875
1962.000000	0.005897
1961.000000	0.005982
1960.000000	0.006141
1959.000000	0.006271
1958.000000	0.006282
1957.000000	0.006222
1956.000000	0.006186
1955.000000	0.006182
1954.000000	0.006165
1953.000000	0.006131
1952.000000	0.006102
1951.000000	0.006077
1950.000000	0.006064
1949.000000	0.006099
1948.000000	0.006173
1947.000000	0.006205
1946.000000	0.006138
1945.000000	0.006011
1944.000000	0.005897
1943.000000	0.005839
1942.000000	0.005870
1941.000000	0.006003
1940.000000	0.006175
1939.000000	0.006282
1938.000000	0.006286
1937.000000	0.006250
1936.000000	0.006234
1935.000000	0.006216
1934.000000	0.006163
1933.000000	0.006104
1932.000000	0.006092
1931.000000	0.006124
1930.000000	0.006160
1929.000000	0.006183
1928.000000	0.006167
1927.000000	0.006090
1926.000000	0.005970
1925.000000	0.005894
1924.000000	0.005925
1923.000000	0.006016
1922.000000	0.006078
1921.000000	0.006092
1920.000000	0.006091
1919.000000	0.006088
1918.000000	0.006070
1917.000000	0.006051
1916.000000	0.006044
1915.000000	0.006040
1914.000000	0.006029
1913.000000	0.006005
1912.000000	0.005968
1911.000000	0.005913
1910.000000	0.005860
1909.000000	0.005854
1908.000000	0.005897
1907.000000	0.005957
1906.000000	0.006000
1905.000000	0.006028
1904.000000	0.006046
1903.000000	0.006042
1902.000000	0.006040
1901.000000	0.006084
1900.000000	0.006161
1899.000000	0.006203
1898.000000	0.006173
1897.000000	0.006111
1896.000000	0.006059
1895.000000	0.006001
1894.000000	0.005918
1893.000000	0.005845
1892.000000	0.005832
1891.000000	0.005876
1890.000000	0.005940
1889.000000	0.006001
1888.000000	0.006052
1887.000000	0.006087
1886.000000	0.006115
1885.000000	0.006142
1884.000000	0.006147
1883.000000	0.006100
1882.000000	0.006023
1881.000000	0.005977
1880.000000	0.005978
1879.000000	0.005990
1878.000000	0.005984
1877.000000	0.005974
1876.000000	0.005979
1875.000000	0.005985
1874.000000	0.005964
1873.000000	0.005909
1872.000000	0.005838
1871.000000	0.005763
1870.000000	0.005699
1869.000000	0.005670
1868.000000	0.005676
1867.000000	0.005688
1866.000000	0.005708
1865.000000	0.005760
1864.000000	0.005828
1863.000000	0.005864
1862.000000	0.005866
1861.000000	0.005881
1860.000000	0.005930
1859.000000	0.005979
1858.000000	0.006002
1857.000000	0.006005
1856.000000	0.005993
1855.000000	0.005962
1854.000000	0.005935
1853.000000	0.005950
1852.000000	0.005975
1851.000000	0.005958
1850.000000	0.005892
1849.000000	0.005796
1848.000000	0.005681
1847.000000	0.005581
1846.000000	0.005569
1845.000000	0.005682
1844.000000	0.005828
1843.000000	0.005869
1842.000000	0.005816
1841.000000	0.005804
1840.000000	0.005872
1839.000000	0.005930
1838.000000	0.005904
1837.000000	0.005852
1836.000000	0.005858
1835.000000	0.005894
1834.000000	0.005888
1833.000000	0.005828
1832.000000	0.005737
1831.000000	0.005635
1830.000000	0.005533
1829.000000	0.005466
1828.000000	0.005461
1827.000000	0.005523
1826.000000	0.005625
1825.000000	0.005708
1824.000000	0.005731
1823.000000	0.005712
1822.000000	0.005712
1821.000000	0.005760
1820.000000	0.005817
1819.000000	0.005842
1818.000000	0.005841
1817.000000	0.005857
1816.000000	0.005892
1815.000000	0.005901
1814.000000	0.005873
1813.000000	0.005831
1812.000000	0.005787
1811.000000	0.005730
1810.000000	0.005672
1809.000000	0.005669
1808.000000	0.005730
1807.000000	0.005793
1806.000000	0.005811
1805.000000	0.005806
1804.000000	0.005810
1803.000000	0.005800
1802.000000	0.005761
1801.000000	0.005706
1800.000000	0.005669
1799.000000	0.005660
1798.000000	0.005669
1797.000000	0.005685
1796.000000	0.005685
1795.000000	0.005657
1794.000000	0.005632
1793.000000	0.005637
1792.000000	0.005661
1791.000000	0.005661
1790.000000	0.005637
1789.000000	0.005645
1788.000000	0.005709
1787.000000	0.005788
1786.000000	0.005843
1785.000000	0.005872
1784.000000	0.005865
1783.000000	0.005798
1782.000000	0.005732
1781.000000	0.005714
1780.000000	0.005726
1779.000000	0.005717
1778.000000	0.005675
1777.000000	0.005628
1776.000000	0.005566
1775.000000	0.005495
1774.000000	0.005470
1773.000000	0.005510
1772.000000	0.005559
1771.000000	0.005587
1770.000000	0.005675
1769.000000	0.005929
1768.000000	0.006289
1767.000000	0.006535
1766.000000	0.006588
1765.000000	0.006608
1764.000000	0.006779
1763.000000	0.007114
1762.000000	0.007524
1761.000000	0.007941
1760.000000	0.008388
1759.000000	0.008945
1758.000000	0.009721
1757.000000	0.010719
1756.000000	0.011733
1755.000000	0.012588
1754.000000	0.013394
1753.000000	0.014373
1752.000000	0.015536
1751.000000	0.016630
1750.000000	0.017448
1749.000000	0.018087
1748.000000	0.018679
1747.000000	0.019166
1746.000000	0.019468
1745.000000	0.019553
1744.000000	0.019404
1743.000000	0.019012
1742.000000	0.018445
1741.000000	0.017809
1740.000000	0.017103
1739.000000	0.016245
1738.000000	0.015307
1737.000000	0.014521
1736.000000	0.013986
1735.000000	0.013490
1734.000000	0.012777
1733.000000	0.011948
1732.000000	0.011221
1731.000000	0.010707
1730.000000	0.010404
1729.000000	0.010215
1728.000000	0.010018
1727.000000	0.009764
1726.000000	0.009499
1725.000000	0.009266
1724.000000	0.009080
1723.000000	0.008888
1722.000000	0.008639
1721.000000	0.008397
1720.000000	0.008254
1719.000000	0.008190
1718.000000	0.008103
1717.000000	0.008009
1716.000000	0.007989
1715.000000	0.008046
1714.000000	0.008175
1713.000000	0.008380
1712.000000	0.008627
1711.000000	0.008860
1710.000000	0.009060
1709.000000	0.009236
1708.000000	0.009401
1707.000000	0.009609
1706.000000	0.009907
1705.000000	0.010255
1704.000000	0.010569
1703.000000	0.010932
1702.000000	0.011580
1701.000000	0.012539
1700.000000	0.013350
1699.000000	0.013612
1698.000000	0.013749
1697.000000	0.014415
1696.000000	0.015641
1695.000000	0.016761
1694.000000	0.017345
1693.000000	0.017699
1692.000000	0.018194
1691.000000	0.018829
1690.000000	0.019443
1689.000000	0.019968
1688.000000	0.020428
1687.000000	0.020927
1686.000000	0.021574
1685.000000	0.022429
1684.000000	0.023362
1683.000000	0.024087
1682.000000	0.024655
1681.000000	0.025364
1680.000000	0.026241
1679.000000	0.027072
1678.000000	0.027813
1677.000000	0.028662
1676.000000	0.029718
1675.000000	0.030735
1674.000000	0.031466
1673.000000	0.032028
1672.000000	0.032718
1671.000000	0.033631
1670.000000	0.034698
1669.000000	0.035847
1668.000000	0.036962
1667.000000	0.037924
1666.000000	0.038776
1665.000000	0.039667
1664.000000	0.040669
1663.000000	0.041662
1662.000000	0.042549
1661.000000	0.043383
1660.000000	0.044232
1659.000000	0.045056
1658.000000	0.045738
1657.000000	0.046267
1656.000000	0.046805
1655.000000	0.047535
1654.000000	0.048401
1653.000000	0.049238
1652.000000	0.049794
1651.000000	0.049874
1650.000000	0.049836
1649.000000	0.050055
1648.000000	0.050519
1647.000000	0.051047
1646.000000	0.051547
1645.000000	0.052015
1644.000000	0.052435
1643.000000	0.052801
1642.000000	0.053140
1641.000000	0.053430
1640.000000	0.053605
1639.000000	0.053666
1638.000000	0.053687
1637.000000	0.053753
1636.000000	0.053843
1635.000000	0.053914
1634.000000	0.053905
1633.000000	0.053857
1632.000000	0.053857
1631.000000	0.053844
1630.000000	0.053684
1629.000000	0.053317
1628.000000	0.052792
1627.000000	0.052187
1626.000000	0.051567
1625.000000	0.050916
1624.000000	0.050157
1623.000000	0.049251
1622.000000	0.048323
1621.000000	0.047507
1620.000000	0.046824
1619.000000	0.046190
1618.000000	0.045392
1617.000000	0.044268
1616.000000	0.042980
1615.000000	0.041829
1614.000000	0.040913
1613.000000	0.040162
1612.000000	0.039423
1611.000000	0.038572
1610.000000	0.037639
1609.000000	0.036726
1608.000000	0.035883
1607.000000	0.035107
1606.000000	0.034411
1605.000000	0.033771
1604.000000	0.033142
1603.000000	0.032529
1602.000000	0.031970
1601.000000	0.031482
1600.000000	0.031045
1599.000000	0.030645
1598.000000	0.030283
1597.000000	0.029952
1596.000000	0.029646
1595.000000	0.029384
1594.000000	0.029198
1593.000000	0.029083
1592.000000	0.029008
1591.000000	0.028955
1590.000000	0.028934
1589.000000	0.028953
1588.000000	0.029012
1587.000000	0.029122
1586.000000	0.029289
1585.000000	0.029494
1584.000000	0.029689
1583.000000	0.029886
1582.000000	0.030119
1581.000000	0.030348
1580.000000	0.030519
1579.000000	0.030702
1578.000000	0.031010
1577.000000	0.031439
1576.000000	0.031872
1575.000000	0.032191
1574.000000	0.032408
1573.000000	0.032648
1572.000000	0.033002
1571.000000	0.033435
1570.000000	0.033882
1569.000000	0.034347
1568.000000	0.034820
1567.000000	0.035330
1566.000000	0.035918
1565.000000	0.036543
1564.000000	0.037077
1563.000000	0.037521
1562.000000	0.038011
1561.000000	0.038608
1560.000000	0.039110
1559.000000	0.039415
1558.000000	0.039864
1557.000000	0.040450
1556.000000	0.041103
1555.000000	0.041865
1554.000000	0.042604
1553.000000	0.043149
1552.000000	0.043547
1551.000000	0.043958
1550.000000	0.044387
1549.000000	0.044771
1548.000000	0.045090
1547.000000	0.045388
1546.000000	0.045652
1545.000000	0.045797
1544.000000	0.045803
1543.000000	0.045778
1542.000000	0.045776
1541.000000	0.045769
1540.000000	0.045786
1539.000000	0.045896
1538.000000	0.045956
1537.000000	0.045917
1536.000000	0.045908
1535.000000	0.045900
1534.000000	0.045726
1533.000000	0.045373
1532.000000	0.045049
1531.000000	0.044831
1530.000000	0.044634
1529.000000	0.044390
1528.000000	0.044089
1527.000000	0.043739
1526.000000	0.043340
1525.000000	0.042909
1524.000000	0.042510
1523.000000	0.042163
1522.000000	0.041767
1521.000000	0.041291
1520.000000	0.040824
1519.000000	0.040418
1518.000000	0.040089
1517.000000	0.039793
1516.000000	0.039500
1515.000000	0.039209
1514.000000	0.038918
1513.000000	0.038571
1512.000000	0.038079
1511.000000	0.037412
1510.000000	0.036670
1509.000000	0.035932
1508.000000	0.035099
1507.000000	0.034081
1506.000000	0.033243
1505.000000	0.032736
1504.000000	0.032316
1503.000000	0.031916
1502.000000	0.031508
1501.000000	0.031021
1500.000000	0.030423
1499.000000	0.029765
1498.000000	0.029107
1497.000000	0.028489
1496.000000	0.027929
1495.000000	0.027368
1494.000000	0.026789
1493.000000	0.026259
1492.000000	0.025773
1491.000000	0.025198
1490.000000	0.024504
1489.000000	0.023914
1488.000000	0.023605
1487.000000	0.023487
1486.000000	0.023427
1485.000000	0.023412
1484.000000	0.023431
1483.000000	0.023462
1482.000000	0.023489
1481.000000	0.023536
1480.000000	0.023635
1479.000000	0.023789
1478.000000	0.023987
1477.000000	0.024221
1476.000000	0.024496
1475.000000	0.024823
1474.000000	0.025305
1473.000000	0.026059
1472.000000	0.027059
1471.000000	0.028091
1470.000000	0.029032
1469.000000	0.029916
1468.000000	0.030749
1467.000000	0.031452
1466.000000	0.032002
1465.000000	0.032452
1464.000000	0.032833
1463.000000	0.033133
1462.000000	0.033356
1461.000000	0.033567
1460.000000	0.033816
1459.000000	0.034149
1458.000000	0.034620
1457.000000	0.035246
1456.000000	0.035798
1455.000000	0.036036
1454.000000	0.036120
1453.000000	0.036254
1452.000000	0.036411
1451.000000	0.036481
1450.000000	0.036455
1449.000000	0.036404
1448.000000	0.036353
1447.000000	0.036267
1446.000000	0.036174
1445.000000	0.036095
1444.000000	0.036020
1443.000000	0.035919
1442.000000	0.035756
1441.000000	0.035532
1440.000000	0.035298
1439.000000	0.035115
1438.000000	0.034937
1437.000000	0.034643
1436.000000	0.034195
1435.000000	0.033700
1434.000000	0.033279
1433.000000	0.032975
1432.000000	0.032717
1431.000000	0.032414
1430.000000	0.032076
1429.000000	0.031794
1428.000000	0.031607
1427.000000	0.031461
1426.000000	0.031334
1425.000000	0.031211
1424.000000	0.031081
1423.000000	0.030980
1422.000000	0.030973
1421.000000	0.031078
1420.000000	0.031193
1419.000000	0.031185
1418.000000	0.031074
1417.000000	0.030994
1416.000000	0.031013
1415.000000	0.031082
1414.000000	0.031115
1413.000000	0.031095
1412.000000	0.031075
1411.000000	0.031089
1410.000000	0.031119
1409.000000	0.031147
1408.000000	0.031184
1407.000000	0.031217
1406.000000	0.031245
1405.000000	0.031286
1404.000000	0.031339
1403.000000	0.031372
1402.000000	0.031370
1401.000000	0.031348
1400.000000	0.031287
1399.000000	0.031148
1398.000000	0.030955
1397.000000	0.030791
1396.000000	0.030696
1395.000000	0.030618
1394.000000	0.030511
1393.000000	0.030379
1392.000000	0.030253
1391.000000	0.030154
1390.000000	0.030072
1389.000000	0.029979
1388.000000	0.029846
1387.000000	0.029661
1386.000000	0.029464
1385.000000	0.029321
1384.000000	0.029252
1383.000000	0.029210
1382.000000	0.029136
1381.000000	0.029042
1380.000000	0.028955
1379.000000	0.028847
1378.000000	0.028656
1377.000000	0.028370
1376.000000	0.028023
1375.000000	0.027645
1374.000000	0.027284
1373.000000	0.026983
1372.000000	0.026739
1371.000000	0.026501
1370.000000	0.026238
1369.000000	0.025946
1368.000000	0.025633
1367.000000	0.025308
1366.000000	0.024979
1365.000000	0.024655
1364.000000	0.024334
1363.000000	0.024015
1362.000000	0.023731
1361.000000	0.023521
1360.000000	0.023383
1359.000000	0.023281
1358.000000	0.023196
1357.000000	0.023143
1356.000000	0.023138
1355.000000	0.023168
1354.000000	0.023215
1353.000000	0.023277
1352.000000	0.023370
1351.000000	0.023481
1350.000000	0.023603
1349.000000	0.023739
1348.000000	0.023895
1347.000000	0.024065
1346.000000	0.024243
1345.000000	0.024434
1344.000000	0.024635
1343.000000	0.024814
1342.000000	0.024947
1341.000000	0.025040
1340.000000	0.025122
1339.000000	0.025214
1338.000000	0.025305
1337.000000	0.025371
1336.000000	0.025391
1335.000000	0.025352
1334.000000	0.025260
1333.000000	0.025141
1332.000000	0.025005
1331.000000	0.024842
1330.000000	0.024655
1329.000000	0.024468
1328.000000	0.024306
1327.000000	0.024165
1326.000000	0.024044
1325.000000	0.023954
1324.000000	0.023895
1323.000000	0.023843
1322.000000	0.023780
1321.000000	0.023723
1320.000000	0.023688
1319.000000	0.023662
1318.000000	0.023627
1317.000000	0.023585
1316.000000	0.023547
1315.000000	0.023500
1314.000000	0.023423
1313.000000	0.023312
1312.000000	0.023180
1311.000000	0.023037
1310.000000	0.022899
1309.000000	0.022789
1308.000000	0.022712
1307.000000	0.022639
1306.000000	0.022543
1305.000000	0.022427
1304.000000	0.022304
1303.000000	0.022174
1302.000000	0.022039
1301.000000	0.021922
1300.000000	0.021836
1299.000000	0.021766
1298.000000	0.021691
1297.000000	0.021618
1296.000000	0.021570
1295.000000	0.021560
1294.000000	0.021592
1293.000000	0.021669
1292.000000	0.021784
1291.000000	0.021912
1290.000000	0.022045
1289.000000	0.022197
1288.000000	0.022374
1287.000000	0.022552
1286.000000	0.022715
1285.000000	0.022874
1284.000000	0.023041
1283.000000	0.023192
1282.000000	0.023306
1281.000000	0.023391
1280.000000	0.023462
1279.000000	0.023507
1278.000000	0.023512
1277.000000	0.023500
1276.000000	0.023495
1275.000000	0.023488
1274.000000	0.023459
1273.000000	0.023422
1272.000000	0.023414
1271.000000	0.023452
1270.000000	0.023528
1269.000000	0.023630
1268.000000	0.023747
1267.000000	0.023860
1266.000000	0.023966
1265.000000	0.024083
1264.000000	0.024225
1263.000000	0.024383
1262.000000	0.024546
1261.000000	0.024724
1260.000000	0.024920
1259.000000	0.025113
1258.000000	0.025293
1257.000000	0.025480
1256.000000	0.025690
1255.000000	0.025903
1254.000000	0.026110
1253.000000	0.026339
1252.000000	0.026616
1251.000000	0.026927
1250.000000	0.027246
1249.000000	0.027576
1248.000000	0.027919
1247.000000	0.028250
1246.000000	0.028550
1245.000000	0.028833
1244.000000	0.029117
1243.000000	0.029389
1242.000000	0.029631
1241.000000	0.029860
1240.000000	0.030082
1239.000000	0.030268
1238.000000	0.030386
1237.000000	0.030445
1236.000000	0.030464
1235.000000	0.030435
1234.000000	0.030340
1233.000000	0.030188
1232.000000	0.029992
1231.000000	0.029749
1230.000000	0.029465
1229.000000	0.029162
1228.000000	0.028852
1227.000000	0.028501
1226.000000	0.028081
1225.000000	0.027607
1224.000000	0.027111
1223.000000	0.026609
1222.000000	0.026108
1221.000000	0.025632
1220.000000	0.025197
1219.000000	0.024788
1218.000000	0.024393
1217.000000	0.024036
1216.000000	0.023752
1215.000000	0.023546
1214.000000	0.023403
1213.000000	0.023318
1212.000000	0.023283
1211.000000	0.023275
1210.000000	0.023283
1209.000000	0.023324
1208.000000	0.023403
1207.000000	0.023493
1206.000000	0.023564
1205.000000	0.023620
1204.000000	0.023667
1203.000000	0.023690
1202.000000	0.023675
1201.000000	0.023634
1200.000000	0.023579
1199.000000	0.023483
1198.000000	0.023321
1197.000000	0.023111
1196.000000	0.022891
1195.000000	0.022681
1194.000000	0.022485
1193.000000	0.022316
1192.000000	0.022172
1191.000000	0.022021
1190.000000	0.021839
1189.000000	0.021647
1188.000000	0.021484
1187.000000	0.021361
1186.000000	0.021271
1185.000000	0.021219
1184.000000	0.021208
1183.000000	0.021221
1182.000000	0.021241
1181.000000	0.021285
1180.000000	0.021372
1179.000000	0.021489
1178.000000	0.021614
1177.000000	0.021749
1176.000000	0.021904
1175.000000	0.022070
1174.000000	0.022242
1173.000000	0.022438
1172.000000	0.022672
1171.000000	0.022917
1170.000000	0.023145
1169.000000	0.023361
1168.000000	0.023585
1167.000000	0.023806
1166.000000	0.024012
1165.000000	0.024213
1164.000000	0.024427
1163.000000	0.024635
1162.000000	0.024800
1161.000000	0.024902
1160.000000	0.024944
1159.000000	0.024931
1158.000000	0.024873
1157.000000	0.024788
1156.000000	0.024674
1155.000000	0.024509
1154.000000	0.024296
1153.000000	0.024074
1152.000000	0.023868
1151.000000	0.023657
1150.000000	0.023419
1149.000000	0.023165
1148.000000	0.022905
1147.000000	0.022628
1146.000000	0.022330
1145.000000	0.022038
1144.000000	0.021762
1143.000000	0.021462
1142.000000	0.021111
1141.000000	0.020730
1140.000000	0.020345
1139.000000	0.019949
1138.000000	0.019536
1137.000000	0.019139
1136.000000	0.018790
1135.000000	0.018474
1134.000000	0.018168
1133.000000	0.017894
1132.000000	0.017690
1131.000000	0.017553
1130.000000	0.017455
1129.000000	0.017395
1128.000000	0.017385
1127.000000	0.017413
1126.000000	0.017467
1125.000000	0.017560
1124.000000	0.017709
1123.000000	0.017889
1122.000000	0.018059
1121.000000	0.018206
1120.000000	0.018335
1119.000000	0.018434
1118.000000	0.018499
1117.000000	0.018552
1116.000000	0.018607
1115.000000	0.018643
1114.000000	0.018643
1113.000000	0.018630
1112.000000	0.018632
1111.000000	0.018637
1110.000000	0.018623
1109.000000	0.018604
1108.000000	0.018611
1107.000000	0.018643
1106.000000	0.018693
1105.000000	0.018781
1104.000000	0.018918
1103.000000	0.019075
1102.000000	0.019211
1101.000000	0.019321
1100.000000	0.019417
1099.000000	0.019488
1098.000000	0.019522
1097.000000	0.019533
1096.000000	0.019548
1095.000000	0.019574
1094.000000	0.019620
1093.000000	0.019711
1092.000000	0.019859
1091.000000	0.020038
1090.000000	0.020229
1089.000000	0.020453
1088.000000	0.020721
1087.000000	0.021006
1086.000000	0.021279
1085.000000	0.021543
1084.000000	0.021793
1083.000000	0.021986
1082.000000	0.022088
1081.000000	0.022111
1080.000000	0.022075
1079.000000	0.021966
1078.000000	0.021778
1077.000000	0.021535
1076.000000	0.021252
1075.000000	0.020917
1074.000000	0.020544
1073.000000	0.020195
1072.000000	0.019912
1071.000000	0.019677
1070.000000	0.019464
1069.000000	0.019302
1068.000000	0.019225
1067.000000	0.019221
1066.000000	0.019252
1065.000000	0.019305
1064.000000	0.019373
1063.000000	0.019429
1062.000000	0.019458
1061.000000	0.019486
1060.000000	0.019536
1059.000000	0.019581
1058.000000	0.019588
1057.000000	0.019568
1056.000000	0.019542
1055.000000	0.019505
1054.000000	0.019452
1053.000000	0.019409
1052.000000	0.019396
1051.000000	0.019401
1050.000000	0.019418
1049.000000	0.019473
1048.000000	0.019560
1047.000000	0.019623
1046.000000	0.019629
1045.000000	0.019615
1044.000000	0.019625
1043.000000	0.019655
1042.000000	0.019692
1041.000000	0.019755
1040.000000	0.019855
1039.000000	0.019973
1038.000000	0.020107
1037.000000	0.020297
1036.000000	0.020557
1035.000000	0.020835
1034.000000	0.021076
1033.000000	0.021281
1032.000000	0.021463
1031.000000	0.021607
1030.000000	0.021699
1029.000000	0.021760
1028.000000	0.021796
1027.000000	0.021780
1026.000000	0.021716
1025.000000	0.021672
1024.000000	0.021692
1023.000000	0.021743
1022.000000	0.021778
1021.000000	0.021807
1020.000000	0.021855
1019.000000	0.021896
1018.000000	0.021895
1017.000000	0.021846
1016.000000	0.021726
1015.000000	0.021488
1014.000000	0.021129
1013.000000	0.020728
1012.000000	0.020348
1011.000000	0.019970
1010.000000	0.019565
1009.000000	0.019166
1008.000000	0.018811
1007.000000	0.018478
1006.000000	0.018129
1005.000000	0.017783
1004.000000	0.017474
1003.000000	0.017191
1002.000000	0.016907
1001.000000	0.016627
1000.000000	0.016369
999.000000	0.016118
998.000000	0.015863
997.000000	0.015625
996.000000	0.015410
995.000000	0.015178
994.000000	0.014899
993.000000	0.014606
992.000000	0.014347
991.000000	0.014116
990.000000	0.013883
989.000000	0.013644
988.000000	0.013403
987.000000	0.013145
986.000000	0.012876
985.000000	0.012642
984.000000	0.012459
983.000000	0.012287
982.000000	0.012095
981.000000	0.011912
980.000000	0.011771
979.000000	0.011655
978.000000	0.011535
977.000000	0.011431
976.000000	0.011356
975.000000	0.011280
974.000000	0.011167
973.000000	0.011040
972.000000	0.010923
971.000000	0.010799
970.000000	0.010649
969.000000	0.010503
968.000000	0.010387
967.000000	0.010268
966.000000	0.010104
965.000000	0.009914
964.000000	0.009739
963.000000	0.009573
962.000000	0.009395
961.000000	0.009220
960.000000	0.009070
959.000000	0.008930
958.000000	0.008779
957.000000	0.008637
956.000000	0.008523
955.000000	0.008413
954.000000	0.008289
953.000000	0.008173
952.000000	0.008092
951.000000	0.008021
950.000000	0.007938
949.000000	0.007870
948.000000	0.007848
947.000000	0.007847
946.000000	0.007837
945.000000	0.007835
944.000000	0.007861
943.000000	0.007882
942.000000	0.007858
941.000000	0.007810
940.000000	0.007780
939.000000	0.007763
938.000000	0.007728
937.000000	0.007681
936.000000	0.007643
935.000000	0.007608
934.000000	0.007567
933.000000	0.007532
932.000000	0.007507
931.000000	0.007462
930.000000	0.007395
929.000000	0.007352
928.000000	0.007357
927.000000	0.007360
926.000000	0.007314
925.000000	0.007250
924.000000	0.007223
923.000000	0.007228
922.000000	0.007224
921.000000	0.007200
920.000000	0.007159
919.000000	0.007079
918.000000	0.006948
917.000000	0.006801
916.000000	0.006671
915.000000	0.006548
914.000000	0.006420
913.000000	0.006320
912.000000	0.006269
911.000000	0.006236
910.000000	0.006187
909.000000	0.006143
908.000000	0.006128
907.000000	0.006115
906.000000	0.006075
905.000000	0.006026
904.000000	0.005996
903.000000	0.005967
902.000000	0.005922
901.000000	0.005882
900.000000	0.005858
899.000000	0.005813
898.000000	0.005731
897.000000	0.005656
896.000000	0.005622
895.000000	0.005593
894.000000	0.005540
893.000000	0.005500
892.000000	0.005514
891.000000	0.005553
890.000000	0.005573
889.000000	0.005593
888.000000	0.005635
887.000000	0.005670
886.000000	0.005678
885.000000	0.005709
884.000000	0.005817
883.000000	0.005983
882.000000	0.006164
881.000000	0.006380
880.000000	0.006660
879.000000	0.006975
878.000000	0.007270
877.000000	0.007532
876.000000	0.007750
875.000000	0.007868
874.000000	0.007857
873.000000	0.007760
872.000000	0.007616
871.000000	0.007399
870.000000	0.007102
869.000000	0.006803
868.000000	0.006585
867.000000	0.006443
866.000000	0.006334
865.000000	0.006251
864.000000	0.006192
863.000000	0.006124
862.000000	0.006045
861.000000	0.006020
860.000000	0.006075
859.000000	0.006129
858.000000	0.006113
857.000000	0.006074
856.000000	0.006097
855.000000	0.006181
854.000000	0.006271
853.000000	0.006344
852.000000	0.006393
851.000000	0.006382
850.000000	0.006303
849.000000	0.006216
848.000000	0.006167
847.000000	0.006129
846.000000	0.006074
845.000000	0.006044
844.000000	0.006067
843.000000	0.006083
842.000000	0.006030
841.000000	0.005936
840.000000	0.005856
839.000000	0.005788
838.000000	0.005726
837.000000	0.005708
836.000000	0.005743
835.000000	0.005758
834.000000	0.005706
833.000000	0.005646
832.000000	0.005642
831.000000	0.005653
830.000000	0.005608
829.000000	0.005527
828.000000	0.005478
827.000000	0.005470
826.000000	0.005481
825.000000	0.005529
824.000000	0.005614
823.000000	0.005671
822.000000	0.005658
821.000000	0.005625
820.000000	0.005622
819.000000	0.005615
818.000000	0.005580
817.000000	0.005574
816.000000	0.005640
815.000000	0.005728
814.000000	0.005775
813.000000	0.005796
812.000000	0.005817
811.000000	0.005799
810.000000	0.005723
809.000000	0.005655
808.000000	0.005645
807.000000	0.005647
806.000000	0.005613
805.000000	0.005585
804.000000	0.005598
803.000000	0.005592
802.000000	0.005524
801.000000	0.005473
800.000000	0.005526
799.000000	0.005637
798.000000	0.005706
797.000000	0.005729
796.000000	0.005768
795.000000	0.005822
794.000000	0.005854
793.000000	0.005876
792.000000	0.005920
791.000000	0.005974
790.000000	0.006026
789.000000	0.006106
788.000000	0.006222
787.000000	0.006308
786.000000	0.006314
785.000000	0.006289
784.000000	0.006295
783.000000	0.006325
782.000000	0.006346
781.000000	0.006371
780.000000	0.006407
779.000000	0.006429
778.000000	0.006447
777.000000	0.006529
776.000000	0.006684
775.000000	0.006811
774.000000	0.006832
773.000000	0.006791
772.000000	0.006760
771.000000	0.006740
770.000000	0.006722
769.000000	0.006751
768.000000	0.006836
767.000000	0.006906
766.000000	0.006921
765.000000	0.006948
764.000000	0.007033
763.000000	0.007095
762.000000	0.007058
761.000000	0.006986
760.000000	0.006974
759.000000	0.007015
758.000000	0.007056
757.000000	0.007109
756.000000	0.007198
755.000000	0.007266
754.000000	0.007255
753.000000	0.007209
752.000000	0.007199
751.000000	0.007217
750.000000	0.007228
749.000000	0.007266
748.000000	0.007366
747.000000	0.007479
746.000000	0.007556
745.000000	0.007639
744.000000	0.007773
743.000000	0.007915
742.000000	0.008001
741.000000	0.008063
740.000000	0.008151
739.000000	0.008244
738.000000	0.008302
737.000000	0.008370
736.000000	0.008506
735.000000	0.008686
734.000000	0.008852
733.000000	0.009008
732.000000	0.009180
731.000000	0.009344
730.000000	0.009476
729.000000	0.009611
728.000000	0.009777
727.000000	0.009944
726.000000	0.010100
725.000000	0.010302
724.000000	0.010569
723.000000	0.010812
722.000000	0.010951
721.000000	0.011023
720.000000	0.011090
719.000000	0.011135
718.000000	0.011138
717.000000	0.011144
716.000000	0.011191
715.000000	0.011238
714.000000	0.011250
713.000000	0.011267
712.000000	0.011312
711.000000	0.011327
710.000000	0.011285
709.000000	0.011267
708.000000	0.011337
707.000000	0.011436
706.000000	0.011500
705.000000	0.011567
704.000000	0.011666
703.000000	0.011716
702.000000	0.011653
701.000000	0.011564
700.000000	0.011565
699.000000	0.011639
698.000000	0.011699
697.000000	0.011741
696.000000	0.011800
695.000000	0.011855
694.000000	0.011863
693.000000	0.011851
692.000000	0.011857
691.000000	0.011848
690.000000	0.011799
689.000000	0.011761
688.000000	0.011769
687.000000	0.011765
686.000000	0.011708
685.000000	0.011675
684.000000	0.011748
683.000000	0.011883
682.000000	0.011987
681.000000	0.012048
680.000000	0.012094
679.000000	0.012116
678.000000	0.012123
677.000000	0.012197
676.000000	0.012352
675.000000	0.012476
674.000000	0.012487
673.000000	0.012454
672.000000	0.012461
671.000000	0.012473
670.000000	0.012390
669.000000	0.012172
668.000000	0.012008
667.000000	0.012189
666.000000	0.012440
665.000000	0.012656
664.000000	0.012899
663.000000	0.013047
662.000000	0.012985
661.000000	0.012803
660.000000	0.012650
659.000000	0.012551
658.000000	0.012496
657.000000	0.012562
656.000000	0.012750
655.000000	0.012914
654.000000	0.012952
653.000000	0.012936
652.000000	0.012944
651.000000	0.012933
650.000000	0.012886
649.000000	0.012896
648.000000	0.012986
647.000000	0.013038
646.000000	0.012996
645.000000	0.012958
644.000000	0.012969
643.000000	0.012939
642.000000	0.012843
641.000000	0.012803
640.000000	0.012868
639.000000	0.012912
638.000000	0.012862
637.000000	0.012831
636.000000	0.012879
635.000000	0.012878
634.000000	0.012749
633.000000	0.012630
632.000000	0.012646
631.000000	0.012726
630.000000	0.012781
629.000000	0.012868
628.000000	0.013021
627.000000	0.013117
626.000000	0.013090
625.000000	0.013077
624.000000	0.013184
623.000000	0.013294
622.000000	0.013276
621.000000	0.013209
620.000000	0.013214
619.000000	0.013239
618.000000	0.013195
617.000000	0.013144
616.000000	0.013177
615.000000	0.013246
614.000000	0.013272
613.000000	0.013290
612.000000	0.013312
611.000000	0.013247
610.000000	0.013092
609.000000	0.013030
608.000000	0.013176
607.000000	0.013379
606.000000	0.013445
605.000000	0.013387
604.000000	0.013302
603.000000	0.013213
602.000000	0.013163
601.000000	0.013258
600.000000	0.013463
599.000000	0.013557
598.000000	0.013455
597.000000	0.013356
596.000000	0.013409
595.000000	0.013467
594.000000	0.013358
593.000000	0.013179
592.000000	0.013114
591.000000	0.013165
590.000000	0.013251
589.000000	0.013395
588.000000	0.013596
587.000000	0.013711
586.000000	0.013657
585.000000	0.013556
584.000000	0.013504
583.000000	0.013409
582.000000	0.013231
581.000000	0.013148
580.000000	0.013285
579.000000	0.013483
578.000000	0.013557
577.000000	0.013568
576.000000	0.013643
575.000000	0.013746
574.000000	0.013833
573.000000	0.013993
572.000000	0.014228
571.000000	0.014342
570.000000	0.014232
569.000000	0.014094
568.000000	0.014109
567.000000	0.014167
566.000000	0.014124
565.000000	0.014068
564.000000	0.014120
563.000000	0.014208
562.000000	0.014257
561.000000	0.014346
560.000000	0.014477
559.000000	0.014446
558.000000	0.014175
557.000000	0.013914
556.000000	0.013879
555.000000	0.013960
554.000000	0.013996
553.000000	0.014056
552.000000	0.014204
551.000000	0.014284
550.000000	0.014187
549.000000	0.014078
548.000000	0.014088
547.000000	0.014081
546.000000	0.013967
545.000000	0.013929
544.000000	0.014077
543.000000	0.014184
542.000000	0.014045
541.000000	0.013790
540.000000	0.013602
539.000000	0.013431
538.000000	0.013259
537.000000	0.013309
536.000000	0.013685
535.000000	0.014098
534.000000	0.014283
533.000000	0.014381
532.000000	0.014605
531.000000	0.014811
530.000000	0.014762
529.000000	0.014534
528.000000	0.014325
527.000000	0.014128
526.000000	0.013914
525.000000	0.013867
524.000000	0.014068
523.000000	0.014242
522.000000	0.014116
521.000000	0.013762
520.000000	0.013361
519.000000	0.012888
518.000000	0.012325
517.000000	0.011903
516.000000	0.011802
515.000000	0.011871
514.000000	0.011927
513.000000	0.012028
512.000000	0.012200
511.000000	0.012233
510.000000	0.012014
509.000000	0.011775
508.000000	0.011713
507.000000	0.011682
506.000000	0.011523
505.000000	0.011381
504.000000	0.011370
503.000000	0.011287
502.000000	0.010982
501.000000	0.010690
500.000000	0.010612
499.000000	0.010538
498.000000	0.010257
497.000000	0.009960
496.000000	0.009903
495.000000	0.009981
494.000000	0.009984
493.000000	0.009977
492.000000	0.010078
491.000000	0.010128
490.000000	0.009953
489.000000	0.009679
488.000000	0.009434
487.000000	0.009062
486.000000	0.008487
485.000000	0.008038
484.000000	0.008044
483.000000	0.008334
482.000000	0.008535
481.000000	0.008576
480.000000	0.008522
479.000000	0.008294
478.000000	0.007926
477.000000	0.007751
476.000000	0.007939
475.000000	0.008182
474.000000	0.008165
473.000000	0.008079
472.000000	0.008255
471.000000	0.008571
470.000000	0.008781
469.000000	0.008965
468.000000	0.009193
467.000000	0.009205
466.000000	0.008861
465.000000	0.008511
464.000000	0.008423
463.000000	0.008289
462.000000	0.007775
461.000000	0.007134
460.000000	0.006766
459.000000	0.006562
458.000000	0.006229
457.000000	0.005942
456.000000	0.005971
455.000000	0.006089
454.000000	0.005988
453.000000	0.005768
452.000000	0.005661
451.000000	0.005655
450.000000	0.005659
