PE UV       SUBTECH     SPECTRUM    ASCII       PEDS        4.00        
   -1
TDms159342.Sample.asc
18/03/19
17:53:37.00
18/03/19
17:53:37.00
Administrator

200.000000
1
Lambda 750
750N8071901
PerkinElmer UV WinLab 6.0.4.0738 / 1.61.00 Lambda 900

0
0
3350/servo 860.8/2
0
0
UV/VIS
1
1
1
CommonBeamDepol,150mm sphere / downward view
0
0
0
0
Program
Program
3350/servo 860.8/2
3350/0.2 860.8/0.2
3350/0.2 860.8/0.2
0
1
 
 
 
0
 
860.8
319.2
860.8
Front
100
on
 
 
0
0
0
 
0
 
 
 
0
 
 
0
0
0
0
0
 
 
 
 
0
0


0
0
#HDR
-1
-1
#GR
nm
%T
1.0
0.0
2350.000000
-1.000000
2151
8
10.954340
-0.033924
#DATA
2350.000000	2.830674
2349.000000	3.227719
2348.000000	2.648691
2347.000000	3.429047
2346.000000	3.198044
2345.000000	2.848128
2344.000000	3.094600
2343.000000	2.797155
2342.000000	2.817567
2341.000000	2.931232
2340.000000	3.235461
2339.000000	3.223192
2338.000000	3.348274
2337.000000	3.455407
2336.000000	3.468379
2335.000000	3.515413
2334.000000	3.489578
2333.000000	3.542979
2332.000000	3.735877
2331.000000	3.590285
2330.000000	3.751339
2329.000000	3.427670
2328.000000	3.630537
2327.000000	3.296059
2326.000000	3.260338
2325.000000	3.418484
2324.000000	3.357842
2323.000000	3.403617
2322.000000	3.438676
2321.000000	3.461171
2320.000000	3.390629
2319.000000	3.433121
2318.000000	3.384355
2317.000000	3.578693
2316.000000	3.266764
2315.000000	3.124284
2314.000000	3.049579
2313.000000	3.103115
2312.000000	2.903349
2311.000000	3.189398
2310.000000	2.879974
2309.000000	3.209693
2308.000000	3.293846
2307.000000	3.182942
2306.000000	3.292047
2305.000000	3.096083
2304.000000	2.934685
2303.000000	2.948451
2302.000000	2.923943
2301.000000	2.998975
2300.000000	2.685260
2299.000000	2.774288
2298.000000	2.864743
2297.000000	2.851017
2296.000000	2.930846
2295.000000	2.769754
2294.000000	2.714190
2293.000000	2.857764
2292.000000	2.873431
2291.000000	2.770135
2290.000000	2.735206
2289.000000	2.784018
2288.000000	2.856651
2287.000000	2.928506
2286.000000	2.751330
2285.000000	2.567287
2284.000000	2.838409
2283.000000	2.702421
2282.000000	2.680526
2281.000000	2.673393
2280.000000	2.702938
2279.000000	2.683263
2278.000000	2.558211
2277.000000	2.545348
2276.000000	2.716685
2275.000000	2.857551
2274.000000	2.823412
2273.000000	2.869658
2272.000000	2.801742
2271.000000	2.775764
2270.000000	2.944222
2269.000000	2.930579
2268.000000	2.756178
2267.000000	2.724914
2266.000000	2.855089
2265.000000	2.808349
2264.000000	2.798220
2263.000000	2.908307
2262.000000	2.967916
2261.000000	2.894698
2260.000000	3.082099
2259.000000	3.144781
2258.000000	3.141821
2257.000000	3.266209
2256.000000	3.263548
2255.000000	3.236641
2254.000000	3.284044
2253.000000	3.330391
2252.000000	3.309737
2251.000000	3.400467
2250.000000	3.500584
2249.000000	3.476791
2248.000000	3.604705
2247.000000	3.758794
2246.000000	3.847487
2245.000000	3.857159
2244.000000	3.725289
2243.000000	3.866994
2242.000000	4.022485
2241.000000	3.928161
2240.000000	3.930693
2239.000000	3.906077
2238.000000	3.817469
2237.000000	3.944596
2236.000000	4.144130
2235.000000	4.238169
2234.000000	4.186970
2233.000000	4.002781
2232.000000	4.010648
2231.000000	4.096232
2230.000000	4.338462
2229.000000	4.419784
2228.000000	4.252513
2227.000000	4.208377
2226.000000	4.200804
2225.000000	4.185724
2224.000000	4.179833
2223.000000	4.122777
2222.000000	4.124789
2221.000000	4.197263
2220.000000	4.241772
2219.000000	4.177014
2218.000000	4.070858
2217.000000	4.078813
2216.000000	4.153826
2215.000000	4.025257
2214.000000	4.034641
2213.000000	4.036891
2212.000000	4.010129
2211.000000	3.992492
2210.000000	4.025203
2209.000000	3.994385
2208.000000	3.945953
2207.000000	4.012219
2206.000000	4.046529
2205.000000	4.097668
2204.000000	4.022845
2203.000000	3.818826
2202.000000	3.828173
2201.000000	3.882960
2200.000000	3.766853
2199.000000	3.805004
2198.000000	3.813356
2197.000000	3.818142
2196.000000	3.875879
2195.000000	3.629682
2194.000000	3.611039
2193.000000	3.676748
2192.000000	3.696189
2191.000000	3.613649
2190.000000	3.673018
2189.000000	3.661484
2188.000000	3.543151
2187.000000	3.595531
2186.000000	3.569486
2185.000000	3.540357
2184.000000	3.542985
2183.000000	3.633775
2182.000000	3.743112
2181.000000	3.660225
2180.000000	3.653115
2179.000000	3.560268
2178.000000	3.454574
2177.000000	3.556888
2176.000000	3.495211
2175.000000	3.690984
2174.000000	3.453948
2173.000000	3.435163
2172.000000	3.570308
2171.000000	3.509190
2170.000000	3.629549
2169.000000	3.751400
2168.000000	3.760140
2167.000000	3.580435
2166.000000	3.641505
2165.000000	3.643794
2164.000000	3.592901
2163.000000	3.733433
2162.000000	3.803381
2161.000000	3.742278
2160.000000	3.714123
2159.000000	3.734723
2158.000000	3.767730
2157.000000	3.831924
2156.000000	3.807025
2155.000000	3.774710
2154.000000	4.053997
2153.000000	4.009024
2152.000000	3.918719
2151.000000	4.076541
2150.000000	4.194633
2149.000000	4.152289
2148.000000	4.072569
2147.000000	4.157807
2146.000000	4.154716
2145.000000	4.171327
2144.000000	4.181002
2143.000000	4.267404
2142.000000	4.307237
2141.000000	4.345305
2140.000000	4.479761
2139.000000	4.464554
2138.000000	4.518260
2137.000000	4.504497
2136.000000	4.440483
2135.000000	4.386290
2134.000000	4.671621
2133.000000	4.388400
2132.000000	4.680601
2131.000000	4.840592
2130.000000	4.695546
2129.000000	4.790081
2128.000000	4.579939
2127.000000	4.554964
2126.000000	4.619314
2125.000000	4.563144
2124.000000	4.580396
2123.000000	4.572904
2122.000000	4.665274
2121.000000	4.748444
2120.000000	4.821214
2119.000000	4.797805
2118.000000	4.852709
2117.000000	4.828584
2116.000000	4.947450
2115.000000	4.842746
2114.000000	4.791282
2113.000000	4.799202
2112.000000	4.846130
2111.000000	4.773143
2110.000000	4.790884
2109.000000	4.886939
2108.000000	4.835710
2107.000000	4.871345
2106.000000	4.880320
2105.000000	4.904164
2104.000000	4.819452
2103.000000	4.771645
2102.000000	4.878325
2101.000000	4.791354
2100.000000	5.013885
2099.000000	4.994228
2098.000000	4.835815
2097.000000	4.828826
2096.000000	4.881227
2095.000000	4.853584
2094.000000	4.872678
2093.000000	4.942709
2092.000000	4.938894
2091.000000	4.818294
2090.000000	4.844147
2089.000000	4.901054
2088.000000	4.884057
2087.000000	4.846247
2086.000000	4.937811
2085.000000	4.835696
2084.000000	4.757983
2083.000000	4.748272
2082.000000	4.681071
2081.000000	4.717794
2080.000000	4.749121
2079.000000	4.668480
2078.000000	4.628482
2077.000000	4.712399
2076.000000	4.661074
2075.000000	4.548907
2074.000000	4.496277
2073.000000	4.551236
2072.000000	4.529190
2071.000000	4.543252
2070.000000	4.469157
2069.000000	4.475733
2068.000000	4.426749
2067.000000	4.384675
2066.000000	4.292236
2065.000000	4.177848
2064.000000	4.237900
2063.000000	4.163314
2062.000000	4.165827
2061.000000	4.126823
2060.000000	4.093993
2059.000000	4.018575
2058.000000	3.981414
2057.000000	3.981744
2056.000000	4.016755
2055.000000	3.927677
2054.000000	3.873546
2053.000000	3.807627
2052.000000	3.771356
2051.000000	3.722671
2050.000000	3.654170
2049.000000	3.633085
2048.000000	3.636664
2047.000000	3.659660
2046.000000	3.631555
2045.000000	3.544579
2044.000000	3.570456
2043.000000	3.599398
2042.000000	3.565526
2041.000000	3.554447
2040.000000	3.563134
2039.000000	3.591254
2038.000000	3.613113
2037.000000	3.624915
2036.000000	3.643806
2035.000000	3.725868
2034.000000	3.726904
2033.000000	3.649654
2032.000000	3.664793
2031.000000	3.711409
2030.000000	3.742007
2029.000000	3.802812
2028.000000	3.847744
2027.000000	3.865924
2026.000000	3.885156
2025.000000	3.916275
2024.000000	3.951050
2023.000000	3.987266
2022.000000	3.987526
2021.000000	3.962506
2020.000000	3.986870
2019.000000	4.016399
2018.000000	4.023457
2017.000000	4.053905
2016.000000	4.047573
2015.000000	4.006622
2014.000000	4.000369
2013.000000	3.995795
2012.000000	3.981314
2011.000000	4.026739
2010.000000	4.039550
2009.000000	3.973214
2008.000000	3.951544
2007.000000	3.938574
2006.000000	3.929381
2005.000000	3.891525
2004.000000	3.832479
2003.000000	3.816353
2002.000000	3.790780
2001.000000	3.730847
2000.000000	3.715210
1999.000000	3.734914
1998.000000	3.692374
1997.000000	3.661439
1996.000000	3.663670
1995.000000	3.655211
1994.000000	3.610256
1993.000000	3.574155
1992.000000	3.544296
1991.000000	3.516363
1990.000000	3.486831
1989.000000	3.476236
1988.000000	3.455411
1987.000000	3.416280
1986.000000	3.385319
1985.000000	3.382437
1984.000000	3.364549
1983.000000	3.349534
1982.000000	3.294675
1981.000000	3.287815
1980.000000	3.278407
1979.000000	3.256489
1978.000000	3.272990
1977.000000	3.235878
1976.000000	3.189160
1975.000000	3.183677
1974.000000	3.132361
1973.000000	3.105059
1972.000000	3.050097
1971.000000	3.043502
1970.000000	3.099323
1969.000000	3.077310
1968.000000	3.069200
1967.000000	3.016620
1966.000000	3.043714
1965.000000	2.983453
1964.000000	2.934201
1963.000000	2.944820
1962.000000	2.931374
1961.000000	2.927998
1960.000000	2.873313
1959.000000	2.864481
1958.000000	2.848857
1957.000000	2.889203
1956.000000	2.852950
1955.000000	2.832677
1954.000000	2.822902
1953.000000	2.825331
1952.000000	2.815506
1951.000000	2.837728
1950.000000	2.804410
1949.000000	2.787697
1948.000000	2.817619
1947.000000	2.789178
1946.000000	2.787053
1945.000000	2.814752
1944.000000	2.776614
1943.000000	2.783593
1942.000000	2.844587
1941.000000	2.781703
1940.000000	2.829721
1939.000000	2.821493
1938.000000	2.859033
1937.000000	2.909491
1936.000000	2.957359
1935.000000	2.883885
1934.000000	2.915768
1933.000000	2.914528
1932.000000	2.918160
1931.000000	2.920425
1930.000000	2.947143
1929.000000	3.039634
1928.000000	3.067394
1927.000000	3.189689
1926.000000	3.166499
1925.000000	3.280204
1924.000000	3.311748
1923.000000	3.321028
1922.000000	3.401544
1921.000000	3.453071
1920.000000	3.562422
1919.000000	3.552060
1918.000000	3.594492
1917.000000	3.682477
1916.000000	3.738839
1915.000000	3.953927
1914.000000	4.015665
1913.000000	4.117528
1912.000000	4.186773
1911.000000	4.220440
1910.000000	4.264686
1909.000000	4.411146
1908.000000	4.499764
1907.000000	4.646459
1906.000000	4.682054
1905.000000	4.845796
1904.000000	4.994641
1903.000000	5.171924
1902.000000	5.321432
1901.000000	5.452503
1900.000000	5.635909
1899.000000	5.721641
1898.000000	5.863371
1897.000000	5.955914
1896.000000	6.138401
1895.000000	6.312180
1894.000000	6.403073
1893.000000	6.603131
1892.000000	6.783724
1891.000000	6.915251
1890.000000	7.054173
1889.000000	7.136039
1888.000000	7.324210
1887.000000	7.490351
1886.000000	7.579436
1885.000000	7.668205
1884.000000	7.820513
1883.000000	7.906091
1882.000000	8.035565
1881.000000	8.148980
1880.000000	8.249039
1879.000000	8.373638
1878.000000	8.444142
1877.000000	8.579005
1876.000000	8.638791
1875.000000	8.760636
1874.000000	8.826308
1873.000000	8.883406
1872.000000	8.954168
1871.000000	9.018752
1870.000000	9.067867
1869.000000	9.106218
1868.000000	9.167305
1867.000000	9.184831
1866.000000	9.223278
1865.000000	9.243433
1864.000000	9.264571
1863.000000	9.270951
1862.000000	9.307715
1861.000000	9.286023
1860.000000	9.288616
1859.000000	9.305329
1858.000000	9.344565
1857.000000	9.367089
1856.000000	9.376992
1855.000000	9.396451
1854.000000	9.393059
1853.000000	9.387100
1852.000000	9.368639
1851.000000	9.374193
1850.000000	9.372107
1849.000000	9.401468
1848.000000	9.394570
1847.000000	9.380535
1846.000000	9.375624
1845.000000	9.383246
1844.000000	9.355565
1843.000000	9.348300
1842.000000	9.350817
1841.000000	9.349112
1840.000000	9.313176
1839.000000	9.319567
1838.000000	9.333818
1837.000000	9.288851
1836.000000	9.251611
1835.000000	9.240365
1834.000000	9.215682
1833.000000	9.211671
1832.000000	9.192190
1831.000000	9.174009
1830.000000	9.175576
1829.000000	9.138071
1828.000000	9.122274
1827.000000	9.115394
1826.000000	9.075790
1825.000000	9.049345
1824.000000	9.062784
1823.000000	9.048297
1822.000000	8.995930
1821.000000	8.993885
1820.000000	8.991551
1819.000000	8.971074
1818.000000	8.963504
1817.000000	8.937129
1816.000000	8.915647
1815.000000	8.920002
1814.000000	8.893905
1813.000000	8.858603
1812.000000	8.858057
1811.000000	8.861128
1810.000000	8.855659
1809.000000	8.851239
1808.000000	8.835226
1807.000000	8.818893
1806.000000	8.808346
1805.000000	8.803000
1804.000000	8.791457
1803.000000	8.788948
1802.000000	8.780503
1801.000000	8.779259
1800.000000	8.778672
1799.000000	8.761785
1798.000000	8.730233
1797.000000	8.725861
1796.000000	8.741425
1795.000000	8.743732
1794.000000	8.714280
1793.000000	8.706103
1792.000000	8.704822
1791.000000	8.693690
1790.000000	8.697707
1789.000000	8.712902
1788.000000	8.713421
1787.000000	8.716272
1786.000000	8.724628
1785.000000	8.702811
1784.000000	8.690973
1783.000000	8.706738
1782.000000	8.691362
1781.000000	8.677537
1780.000000	8.670801
1779.000000	8.689744
1778.000000	8.672290
1777.000000	8.640665
1776.000000	8.630334
1775.000000	8.603225
1774.000000	8.574660
1773.000000	8.551772
1772.000000	8.540410
1771.000000	8.518972
1770.000000	8.491227
1769.000000	8.477392
1768.000000	8.473023
1767.000000	8.461127
1766.000000	8.413518
1765.000000	8.376719
1764.000000	8.374836
1763.000000	8.359518
1762.000000	8.315497
1761.000000	8.294714
1760.000000	8.273065
1759.000000	8.220654
1758.000000	8.215539
1757.000000	8.198227
1756.000000	8.203746
1755.000000	8.177067
1754.000000	8.152071
1753.000000	8.123898
1752.000000	8.113691
1751.000000	8.093194
1750.000000	8.091953
1749.000000	8.092667
1748.000000	8.044722
1747.000000	8.014508
1746.000000	7.991297
1745.000000	7.970523
1744.000000	7.952385
1743.000000	7.932876
1742.000000	7.898072
1741.000000	7.876601
1740.000000	7.880958
1739.000000	7.850756
1738.000000	7.825449
1737.000000	7.775991
1736.000000	7.784906
1735.000000	7.791044
1734.000000	7.784637
1733.000000	7.791036
1732.000000	7.754876
1731.000000	7.783506
1730.000000	7.755375
1729.000000	7.766054
1728.000000	7.792617
1727.000000	7.789471
1726.000000	7.807595
1725.000000	7.844579
1724.000000	7.838355
1723.000000	7.824296
1722.000000	7.859654
1721.000000	7.935184
1720.000000	7.953574
1719.000000	7.979278
1718.000000	8.033858
1717.000000	8.052359
1716.000000	8.074134
1715.000000	8.111865
1714.000000	8.101819
1713.000000	8.142150
1712.000000	8.171370
1711.000000	8.185753
1710.000000	8.210115
1709.000000	8.216683
1708.000000	8.267060
1707.000000	8.256396
1706.000000	8.262643
1705.000000	8.250454
1704.000000	8.312451
1703.000000	8.263958
1702.000000	8.301195
1701.000000	8.285609
1700.000000	8.307746
1699.000000	8.279821
1698.000000	8.322110
1697.000000	8.329820
1696.000000	8.351172
1695.000000	8.334171
1694.000000	8.339217
1693.000000	8.374234
1692.000000	8.373110
1691.000000	8.410364
1690.000000	8.422200
1689.000000	8.437894
1688.000000	8.462830
1687.000000	8.533443
1686.000000	8.588617
1685.000000	8.592366
1684.000000	8.636011
1683.000000	8.681480
1682.000000	8.729515
1681.000000	8.810163
1680.000000	8.859323
1679.000000	8.874296
1678.000000	8.941088
1677.000000	8.997293
1676.000000	9.035141
1675.000000	9.119083
1674.000000	9.157554
1673.000000	9.209081
1672.000000	9.277930
1671.000000	9.317762
1670.000000	9.375536
1669.000000	9.402124
1668.000000	9.424141
1667.000000	9.469374
1666.000000	9.500537
1665.000000	9.542040
1664.000000	9.541700
1663.000000	9.558395
1662.000000	9.585451
1661.000000	9.605332
1660.000000	9.667979
1659.000000	9.697935
1658.000000	9.711230
1657.000000	9.723985
1656.000000	9.752354
1655.000000	9.753386
1654.000000	9.782989
1653.000000	9.798457
1652.000000	9.811447
1651.000000	9.786227
1650.000000	9.782877
1649.000000	9.784943
1648.000000	9.751755
1647.000000	9.748849
1646.000000	9.766011
1645.000000	9.751486
1644.000000	9.755949
1643.000000	9.741294
1642.000000	9.716913
1641.000000	9.725825
1640.000000	9.707568
1639.000000	9.694846
1638.000000	9.680547
1637.000000	9.678779
1636.000000	9.656171
1635.000000	9.617692
1634.000000	9.613493
1633.000000	9.606828
1632.000000	9.601326
1631.000000	9.592853
1630.000000	9.572466
1629.000000	9.551814
1628.000000	9.512487
1627.000000	9.497092
1626.000000	9.496062
1625.000000	9.484604
1624.000000	9.478362
1623.000000	9.450428
1622.000000	9.429459
1621.000000	9.415793
1620.000000	9.410336
1619.000000	9.392572
1618.000000	9.358910
1617.000000	9.343772
1616.000000	9.320922
1615.000000	9.300807
1614.000000	9.283765
1613.000000	9.262657
1612.000000	9.238398
1611.000000	9.211946
1610.000000	9.185665
1609.000000	9.164813
1608.000000	9.165495
1607.000000	9.156883
1606.000000	9.118614
1605.000000	9.098449
1604.000000	9.075026
1603.000000	9.053964
1602.000000	9.029420
1601.000000	9.004501
1600.000000	8.990853
1599.000000	8.962431
1598.000000	8.941895
1597.000000	8.934050
1596.000000	8.916524
1595.000000	8.891275
1594.000000	8.880020
1593.000000	8.866505
1592.000000	8.843280
1591.000000	8.818985
1590.000000	8.800808
1589.000000	8.767002
1588.000000	8.762187
1587.000000	8.760539
1586.000000	8.729718
1585.000000	8.715138
1584.000000	8.702819
1583.000000	8.676696
1582.000000	8.658159
1581.000000	8.668425
1580.000000	8.660669
1579.000000	8.625664
1578.000000	8.609983
1577.000000	8.594584
1576.000000	8.576831
1575.000000	8.566580
1574.000000	8.550462
1573.000000	8.538791
1572.000000	8.512476
1571.000000	8.504205
1570.000000	8.490613
1569.000000	8.462402
1568.000000	8.458097
1567.000000	8.426341
1566.000000	8.412578
1565.000000	8.407957
1564.000000	8.400050
1563.000000	8.396060
1562.000000	8.373538
1561.000000	8.369136
1560.000000	8.362797
1559.000000	8.342763
1558.000000	8.318219
1557.000000	8.307774
1556.000000	8.295047
1555.000000	8.295152
1554.000000	8.284862
1553.000000	8.269179
1552.000000	8.252139
1551.000000	8.228910
1550.000000	8.231431
1549.000000	8.216351
1548.000000	8.202713
1547.000000	8.179481
1546.000000	8.139145
1545.000000	8.118689
1544.000000	8.099590
1543.000000	8.059548
1542.000000	8.032450
1541.000000	8.008702
1540.000000	7.981940
1539.000000	7.948616
1538.000000	7.914566
1537.000000	7.879872
1536.000000	7.856709
1535.000000	7.818972
1534.000000	7.797036
1533.000000	7.777258
1532.000000	7.727545
1531.000000	7.705695
1530.000000	7.675506
1529.000000	7.638864
1528.000000	7.624692
1527.000000	7.599959
1526.000000	7.582625
1525.000000	7.555368
1524.000000	7.532109
1523.000000	7.504404
1522.000000	7.492805
1521.000000	7.473154
1520.000000	7.465868
1519.000000	7.455654
1518.000000	7.447648
1517.000000	7.430498
1516.000000	7.407637
1515.000000	7.400801
1514.000000	7.383166
1513.000000	7.367107
1512.000000	7.350055
1511.000000	7.360593
1510.000000	7.356448
1509.000000	7.349659
1508.000000	7.343422
1507.000000	7.330168
1506.000000	7.338786
1505.000000	7.319237
1504.000000	7.315291
1503.000000	7.336215
1502.000000	7.326668
1501.000000	7.334148
1500.000000	7.324237
1499.000000	7.329085
1498.000000	7.319239
1497.000000	7.334441
1496.000000	7.381877
1495.000000	7.367002
1494.000000	7.351204
1493.000000	7.361142
1492.000000	7.353275
1491.000000	7.364607
1490.000000	7.364113
1489.000000	7.400610
1488.000000	7.395494
1487.000000	7.420218
1486.000000	7.425926
1485.000000	7.430844
1484.000000	7.444378
1483.000000	7.455919
1482.000000	7.469106
1481.000000	7.495876
1480.000000	7.506313
1479.000000	7.507181
1478.000000	7.527127
1477.000000	7.518174
1476.000000	7.551988
1475.000000	7.565462
1474.000000	7.575741
1473.000000	7.585371
1472.000000	7.578986
1471.000000	7.581808
1470.000000	7.585577
1469.000000	7.602957
1468.000000	7.629306
1467.000000	7.652282
1466.000000	7.668576
1465.000000	7.698230
1464.000000	7.698285
1463.000000	7.683696
1462.000000	7.684995
1461.000000	7.728333
1460.000000	7.743131
1459.000000	7.736019
1458.000000	7.743266
1457.000000	7.778017
1456.000000	7.798587
1455.000000	7.793308
1454.000000	7.781868
1453.000000	7.804375
1452.000000	7.841695
1451.000000	7.844893
1450.000000	7.853694
1449.000000	7.845296
1448.000000	7.854471
1447.000000	7.872915
1446.000000	7.916982
1445.000000	7.950177
1444.000000	7.954165
1443.000000	7.944728
1442.000000	7.975035
1441.000000	7.985265
1440.000000	7.991275
1439.000000	8.055500
1438.000000	8.077163
1437.000000	8.086040
1436.000000	8.108980
1435.000000	8.130910
1434.000000	8.158666
1433.000000	8.195031
1432.000000	8.220525
1431.000000	8.238236
1430.000000	8.271719
1429.000000	8.319476
1428.000000	8.352123
1427.000000	8.386682
1426.000000	8.422985
1425.000000	8.468627
1424.000000	8.510757
1423.000000	8.559416
1422.000000	8.617251
1421.000000	8.660920
1420.000000	8.674554
1419.000000	8.710574
1418.000000	8.772207
1417.000000	8.836240
1416.000000	8.889060
1415.000000	8.929438
1414.000000	8.978131
1413.000000	9.038391
1412.000000	9.107497
1411.000000	9.160468
1410.000000	9.191361
1409.000000	9.251354
1408.000000	9.320128
1407.000000	9.370838
1406.000000	9.424846
1405.000000	9.467223
1404.000000	9.506726
1403.000000	9.565732
1402.000000	9.628857
1401.000000	9.682069
1400.000000	9.734426
1399.000000	9.799849
1398.000000	9.843092
1397.000000	9.880517
1396.000000	9.928212
1395.000000	9.971864
1394.000000	10.018803
1393.000000	10.051603
1392.000000	10.087520
1391.000000	10.123147
1390.000000	10.150879
1389.000000	10.174686
1388.000000	10.201819
1387.000000	10.253586
1386.000000	10.302736
1385.000000	10.321416
1384.000000	10.340050
1383.000000	10.364356
1382.000000	10.403609
1381.000000	10.415808
1380.000000	10.418825
1379.000000	10.452981
1378.000000	10.483544
1377.000000	10.488107
1376.000000	10.506465
1375.000000	10.532422
1374.000000	10.548487
1373.000000	10.541375
1372.000000	10.529709
1371.000000	10.555351
1370.000000	10.583383
1369.000000	10.587654
1368.000000	10.582897
1367.000000	10.587117
1366.000000	10.594154
1365.000000	10.604040
1364.000000	10.609324
1363.000000	10.614365
1362.000000	10.623323
1361.000000	10.632530
1360.000000	10.642347
1359.000000	10.662370
1358.000000	10.681209
1357.000000	10.705850
1356.000000	10.715817
1355.000000	10.705950
1354.000000	10.710887
1353.000000	10.731783
1352.000000	10.752687
1351.000000	10.763275
1350.000000	10.763794
1349.000000	10.764565
1348.000000	10.756216
1347.000000	10.783670
1346.000000	10.820036
1345.000000	10.824849
1344.000000	10.822954
1343.000000	10.811473
1342.000000	10.834039
1341.000000	10.853682
1340.000000	10.857787
1339.000000	10.875031
1338.000000	10.871425
1337.000000	10.871650
1336.000000	10.869721
1335.000000	10.900717
1334.000000	10.931651
1333.000000	10.929271
1332.000000	10.921018
1331.000000	10.914529
1330.000000	10.912026
1329.000000	10.915491
1328.000000	10.933111
1327.000000	10.927458
1326.000000	10.922330
1325.000000	10.934509
1324.000000	10.954340
1323.000000	10.945476
1322.000000	10.929158
1321.000000	10.944295
1320.000000	10.933218
1319.000000	10.931402
1318.000000	10.930211
1317.000000	10.933689
1316.000000	10.934015
1315.000000	10.939147
1314.000000	10.942421
1313.000000	10.935846
1312.000000	10.926378
1311.000000	10.904860
1310.000000	10.902606
1309.000000	10.913402
1308.000000	10.900387
1307.000000	10.878235
1306.000000	10.898848
1305.000000	10.920021
1304.000000	10.911709
1303.000000	10.898145
1302.000000	10.870111
1301.000000	10.874791
1300.000000	10.871194
1299.000000	10.895011
1298.000000	10.887166
1297.000000	10.882782
1296.000000	10.882818
1295.000000	10.876953
1294.000000	10.870575
1293.000000	10.859526
1292.000000	10.840752
1291.000000	10.840457
1290.000000	10.826795
1289.000000	10.794663
1288.000000	10.777215
1287.000000	10.778832
1286.000000	10.768405
1285.000000	10.781496
1284.000000	10.803226
1283.000000	10.805130
1282.000000	10.797639
1281.000000	10.794751
1280.000000	10.801063
1279.000000	10.744041
1278.000000	10.733315
1277.000000	10.745695
1276.000000	10.729877
1275.000000	10.753555
1274.000000	10.742151
1273.000000	10.744213
1272.000000	10.728602
1271.000000	10.723044
1270.000000	10.724036
1269.000000	10.733918
1268.000000	10.759517
1267.000000	10.750736
1266.000000	10.752982
1265.000000	10.730310
1264.000000	10.726718
1263.000000	10.716543
1262.000000	10.700042
1261.000000	10.743117
1260.000000	10.749449
1259.000000	10.744220
1258.000000	10.709791
1257.000000	10.698179
1256.000000	10.676952
1255.000000	10.661801
1254.000000	10.660173
1253.000000	10.708329
1252.000000	10.696968
1251.000000	10.690987
1250.000000	10.700482
1249.000000	10.688187
1248.000000	10.667345
1247.000000	10.682576
1246.000000	10.678723
1245.000000	10.659438
1244.000000	10.651232
1243.000000	10.602806
1242.000000	10.601330
1241.000000	10.600536
1240.000000	10.603147
1239.000000	10.599958
1238.000000	10.560091
1237.000000	10.568579
1236.000000	10.556936
1235.000000	10.559739
1234.000000	10.515875
1233.000000	10.519894
1232.000000	10.524849
1231.000000	10.517350
1230.000000	10.478431
1229.000000	10.480205
1228.000000	10.476409
1227.000000	10.486465
1226.000000	10.489110
1225.000000	10.476062
1224.000000	10.440858
1223.000000	10.428974
1222.000000	10.430075
1221.000000	10.420549
1220.000000	10.413136
1219.000000	10.406922
1218.000000	10.393839
1217.000000	10.392927
1216.000000	10.404980
1215.000000	10.406382
1214.000000	10.375623
1213.000000	10.361536
1212.000000	10.346118
1211.000000	10.344376
1210.000000	10.337369
1209.000000	10.309549
1208.000000	10.290804
1207.000000	10.294356
1206.000000	10.269552
1205.000000	10.241315
1204.000000	10.250179
1203.000000	10.229017
1202.000000	10.202121
1201.000000	10.185421
1200.000000	10.191093
1199.000000	10.184608
1198.000000	10.161507
1197.000000	10.140597
1196.000000	10.124062
1195.000000	10.148998
1194.000000	10.149525
1193.000000	10.108850
1192.000000	10.085324
1191.000000	10.085170
1190.000000	10.040555
1189.000000	9.987064
1188.000000	10.001230
1187.000000	10.016826
1186.000000	10.005827
1185.000000	9.993619
1184.000000	9.986697
1183.000000	9.988422
1182.000000	9.997188
1181.000000	10.003507
1180.000000	10.022276
1179.000000	10.040179
1178.000000	10.047098
1177.000000	10.059994
1176.000000	10.073013
1175.000000	10.079510
1174.000000	10.087874
1173.000000	10.095522
1172.000000	10.102102
1171.000000	10.103171
1170.000000	10.125718
1169.000000	10.141488
1168.000000	10.148413
1167.000000	10.164973
1166.000000	10.174564
1165.000000	10.161348
1164.000000	10.155896
1163.000000	10.168867
1162.000000	10.182655
1161.000000	10.199103
1160.000000	10.225856
1159.000000	10.252453
1158.000000	10.282455
1157.000000	10.285790
1156.000000	10.290257
1155.000000	10.314254
1154.000000	10.330049
1153.000000	10.340063
1152.000000	10.351467
1151.000000	10.370330
1150.000000	10.377273
1149.000000	10.382559
1148.000000	10.387822
1147.000000	10.387905
1146.000000	10.392782
1145.000000	10.404195
1144.000000	10.417489
1143.000000	10.408224
1142.000000	10.398301
1141.000000	10.413137
1140.000000	10.412893
1139.000000	10.407479
1138.000000	10.436287
1137.000000	10.457126
1136.000000	10.453543
1135.000000	10.463276
1134.000000	10.483192
1133.000000	10.485079
1132.000000	10.486705
1131.000000	10.498731
1130.000000	10.502633
1129.000000	10.503086
1128.000000	10.478309
1127.000000	10.462575
1126.000000	10.468639
1125.000000	10.473505
1124.000000	10.479403
1123.000000	10.486504
1122.000000	10.487533
1121.000000	10.502773
1120.000000	10.504868
1119.000000	10.492340
1118.000000	10.493579
1117.000000	10.495416
1116.000000	10.498520
1115.000000	10.492974
1114.000000	10.498541
1113.000000	10.494263
1112.000000	10.482797
1111.000000	10.479589
1110.000000	10.479084
1109.000000	10.475870
1108.000000	10.437555
1107.000000	10.431996
1106.000000	10.426597
1105.000000	10.423671
1104.000000	10.434930
1103.000000	10.426296
1102.000000	10.433275
1101.000000	10.445687
1100.000000	10.427220
1099.000000	10.439929
1098.000000	10.408384
1097.000000	10.393309
1096.000000	10.405442
1095.000000	10.399273
1094.000000	10.403959
1093.000000	10.413767
1092.000000	10.409808
1091.000000	10.391137
1090.000000	10.363933
1089.000000	10.365705
1088.000000	10.376216
1087.000000	10.371893
1086.000000	10.385360
1085.000000	10.388020
1084.000000	10.350667
1083.000000	10.337265
1082.000000	10.341188
1081.000000	10.361591
1080.000000	10.358647
1079.000000	10.362092
1078.000000	10.345425
1077.000000	10.318198
1076.000000	10.313763
1075.000000	10.317722
1074.000000	10.318309
1073.000000	10.320626
1072.000000	10.322517
1071.000000	10.323704
1070.000000	10.284758
1069.000000	10.269764
1068.000000	10.274700
1067.000000	10.288896
1066.000000	10.280957
1065.000000	10.290089
1064.000000	10.293670
1063.000000	10.272140
1062.000000	10.255027
1061.000000	10.269572
1060.000000	10.269230
1059.000000	10.250581
1058.000000	10.269018
1057.000000	10.221147
1056.000000	10.231255
1055.000000	10.226886
1054.000000	10.241228
1053.000000	10.226898
1052.000000	10.188459
1051.000000	10.192615
1050.000000	10.195974
1049.000000	10.204691
1048.000000	10.211571
1047.000000	10.170641
1046.000000	10.168810
1045.000000	10.183569
1044.000000	10.195148
1043.000000	10.153660
1042.000000	10.151948
1041.000000	10.160878
1040.000000	10.178648
1039.000000	10.180089
1038.000000	10.146150
1037.000000	10.150896
1036.000000	10.145072
1035.000000	10.118452
1034.000000	10.126097
1033.000000	10.126627
1032.000000	10.134466
1031.000000	10.133907
1030.000000	10.117182
1029.000000	10.105826
1028.000000	10.117884
1027.000000	10.112845
1026.000000	10.098764
1025.000000	10.104029
1024.000000	10.114558
1023.000000	10.097443
1022.000000	10.089772
1021.000000	10.098488
1020.000000	10.082170
1019.000000	10.083826
1018.000000	10.089897
1017.000000	10.076837
1016.000000	10.074886
1015.000000	10.082079
1014.000000	10.054555
1013.000000	10.065248
1012.000000	10.066135
1011.000000	10.059802
1010.000000	10.058101
1009.000000	10.060498
1008.000000	10.069175
1007.000000	10.082954
1006.000000	10.102452
1005.000000	10.091568
1004.000000	10.089832
1003.000000	10.089447
1002.000000	10.098636
1001.000000	10.109597
1000.000000	10.113908
999.000000	10.092729
998.000000	10.097645
997.000000	10.098929
996.000000	10.107170
995.000000	10.106601
994.000000	10.094926
993.000000	10.088013
992.000000	10.099722
991.000000	10.103305
990.000000	10.098403
989.000000	10.077510
988.000000	10.077816
987.000000	10.082490
986.000000	10.075230
985.000000	10.087260
984.000000	10.076318
983.000000	10.075242
982.000000	10.069677
981.000000	10.063239
980.000000	10.070266
979.000000	10.053370
978.000000	10.044484
977.000000	10.045120
976.000000	10.031994
975.000000	10.036291
974.000000	10.038288
973.000000	10.041748
972.000000	10.041316
971.000000	10.049119
970.000000	10.044437
969.000000	10.027715
968.000000	10.032972
967.000000	10.021471
966.000000	10.019487
965.000000	10.015646
964.000000	10.016706
963.000000	10.008478
962.000000	10.005062
961.000000	10.007579
960.000000	9.995144
959.000000	9.999234
958.000000	10.008379
957.000000	10.007963
956.000000	10.003544
955.000000	9.999933
954.000000	9.996372
953.000000	9.979762
952.000000	9.988348
951.000000	9.999714
950.000000	9.994238
949.000000	9.983073
948.000000	9.965631
947.000000	9.942335
946.000000	9.945497
945.000000	9.944496
944.000000	9.935112
943.000000	9.942895
942.000000	9.941337
941.000000	9.940659
940.000000	9.938528
939.000000	9.949191
938.000000	9.941594
937.000000	9.898469
936.000000	9.897216
935.000000	9.917700
934.000000	9.906358
933.000000	9.909129
932.000000	9.924724
931.000000	9.905837
930.000000	9.887274
929.000000	9.878418
928.000000	9.874298
927.000000	9.854034
926.000000	9.870780
925.000000	9.903781
924.000000	9.897766
923.000000	9.861027
922.000000	9.837861
921.000000	9.825653
920.000000	9.825081
919.000000	9.820256
918.000000	9.816609
917.000000	9.840678
916.000000	9.854505
915.000000	9.806443
914.000000	9.782537
913.000000	9.784644
912.000000	9.790657
911.000000	9.811211
910.000000	9.799670
909.000000	9.782549
908.000000	9.824888
907.000000	9.783757
906.000000	9.782517
905.000000	9.781687
904.000000	9.761503
903.000000	9.790356
902.000000	9.776294
901.000000	9.764862
900.000000	9.763261
899.000000	9.751533
898.000000	9.761233
897.000000	9.747594
896.000000	9.746357
895.000000	9.765719
894.000000	9.736821
893.000000	9.715687
892.000000	9.724380
891.000000	9.726192
890.000000	9.672697
889.000000	9.672002
888.000000	9.727935
887.000000	9.709862
886.000000	9.713539
885.000000	9.716641
884.000000	9.710601
883.000000	9.709740
882.000000	9.750973
881.000000	9.743546
880.000000	9.718237
879.000000	9.701525
878.000000	9.769197
877.000000	9.739658
876.000000	9.796529
875.000000	9.687435
874.000000	9.668119
873.000000	9.626250
872.000000	9.497184
871.000000	9.537571
870.000000	9.604155
869.000000	9.646473
868.000000	9.605465
867.000000	9.591165
866.000000	9.624667
865.000000	9.633055
864.000000	9.638895
863.000000	9.694469
862.000000	9.571660
861.000000	9.499708
860.000000	9.549539
859.000000	9.740396
858.000000	9.715665
857.000000	9.628536
856.000000	9.700498
855.000000	9.646891
854.000000	9.555244
853.000000	9.592042
852.000000	9.586440
851.000000	9.631141
850.000000	9.525726
849.000000	9.537687
848.000000	9.585650
847.000000	9.597222
846.000000	9.540558
845.000000	9.511511
844.000000	9.522599
843.000000	9.465365
842.000000	9.535926
841.000000	9.522599
840.000000	9.519778
839.000000	9.510354
838.000000	9.470841
837.000000	9.489827
836.000000	9.463894
835.000000	9.401590
834.000000	9.420675
833.000000	9.423421
832.000000	9.431136
831.000000	9.425536
830.000000	9.387582
829.000000	9.411381
828.000000	9.331171
827.000000	9.337627
826.000000	9.305113
825.000000	9.349502
824.000000	9.331349
823.000000	9.336905
822.000000	9.260099
821.000000	9.280008
820.000000	9.282870
819.000000	9.236262
818.000000	9.260110
817.000000	9.253471
816.000000	9.218571
815.000000	9.220814
814.000000	9.193884
813.000000	9.172729
812.000000	9.181984
811.000000	9.195398
810.000000	9.198339
809.000000	9.214164
808.000000	9.154010
807.000000	9.181887
806.000000	9.159611
805.000000	9.144940
804.000000	9.109684
803.000000	9.105258
802.000000	9.100340
801.000000	9.122112
800.000000	9.124589
799.000000	9.059892
798.000000	9.060247
797.000000	9.055198
796.000000	9.032087
795.000000	9.033006
794.000000	9.038541
793.000000	9.045630
792.000000	9.006875
791.000000	9.010456
790.000000	8.985010
789.000000	9.001241
788.000000	8.993918
787.000000	8.937876
786.000000	8.938277
785.000000	8.941284
784.000000	8.929716
783.000000	8.916695
782.000000	8.893210
781.000000	8.899906
780.000000	8.858941
779.000000	8.866381
778.000000	8.848814
777.000000	8.834316
776.000000	8.830166
775.000000	8.788688
774.000000	8.794144
773.000000	8.810188
772.000000	8.788341
771.000000	8.787018
770.000000	8.760089
769.000000	8.747329
768.000000	8.739821
767.000000	8.730852
766.000000	8.709493
765.000000	8.707835
764.000000	8.694967
763.000000	8.686136
762.000000	8.665794
761.000000	8.648006
760.000000	8.628240
759.000000	8.627777
758.000000	8.598068
757.000000	8.616137
756.000000	8.575279
755.000000	8.568362
754.000000	8.557497
753.000000	8.540735
752.000000	8.541470
751.000000	8.530541
750.000000	8.525116
749.000000	8.510151
748.000000	8.487640
747.000000	8.468071
746.000000	8.452921
745.000000	8.453574
744.000000	8.456399
743.000000	8.437684
742.000000	8.405137
741.000000	8.392572
740.000000	8.376912
739.000000	8.360501
738.000000	8.344822
737.000000	8.330979
736.000000	8.333326
735.000000	8.323670
734.000000	8.294017
733.000000	8.286570
732.000000	8.287163
731.000000	8.274012
730.000000	8.251842
729.000000	8.247268
728.000000	8.221402
727.000000	8.189621
726.000000	8.187459
725.000000	8.178976
724.000000	8.156597
723.000000	8.148252
722.000000	8.154567
721.000000	8.152263
720.000000	8.125942
719.000000	8.100379
718.000000	8.091615
717.000000	8.078199
716.000000	8.056635
715.000000	8.037271
714.000000	8.022312
713.000000	8.008054
712.000000	7.988625
711.000000	7.982590
710.000000	7.975803
709.000000	7.953617
708.000000	7.928873
707.000000	7.917216
706.000000	7.899910
705.000000	7.888804
704.000000	7.889509
703.000000	7.857049
702.000000	7.839054
701.000000	7.831979
700.000000	7.802730
699.000000	7.790020
698.000000	7.787545
697.000000	7.766763
696.000000	7.749729
695.000000	7.732258
694.000000	7.700951
693.000000	7.674172
692.000000	7.671799
691.000000	7.664753
690.000000	7.643576
689.000000	7.599774
688.000000	7.577505
687.000000	7.560094
686.000000	7.555934
685.000000	7.549959
684.000000	7.526240
683.000000	7.513021
682.000000	7.505302
681.000000	7.481738
680.000000	7.450032
679.000000	7.439007
678.000000	7.427009
677.000000	7.408208
676.000000	7.385880
675.000000	7.366539
674.000000	7.355804
673.000000	7.329318
672.000000	7.312269
671.000000	7.308126
670.000000	7.289040
669.000000	7.271413
668.000000	7.239040
667.000000	7.230065
666.000000	7.218186
665.000000	7.189446
664.000000	7.174027
663.000000	7.157366
662.000000	7.143911
661.000000	7.121055
660.000000	7.108707
659.000000	7.085761
658.000000	7.079278
657.000000	7.051992
656.000000	7.024689
655.000000	7.010622
654.000000	6.994572
653.000000	6.979288
652.000000	6.959011
651.000000	6.953124
650.000000	6.922492
649.000000	6.897674
648.000000	6.883546
647.000000	6.862658
646.000000	6.833363
645.000000	6.813668
644.000000	6.785989
643.000000	6.786122
642.000000	6.766126
641.000000	6.748299
640.000000	6.719967
639.000000	6.701423
638.000000	6.686482
637.000000	6.659167
636.000000	6.642332
635.000000	6.627352
634.000000	6.609815
633.000000	6.582582
632.000000	6.559560
631.000000	6.537146
630.000000	6.514997
629.000000	6.504832
628.000000	6.478032
627.000000	6.464334
626.000000	6.426456
625.000000	6.424190
624.000000	6.389491
623.000000	6.387343
622.000000	6.350185
621.000000	6.328189
620.000000	6.315206
619.000000	6.289311
618.000000	6.263178
617.000000	6.250424
616.000000	6.227718
615.000000	6.205697
614.000000	6.171048
613.000000	6.155272
612.000000	6.136412
611.000000	6.110483
610.000000	6.095419
609.000000	6.067794
608.000000	6.038217
607.000000	6.015126
606.000000	5.989761
605.000000	5.981103
604.000000	5.942253
603.000000	5.928574
602.000000	5.908581
601.000000	5.882566
600.000000	5.847100
599.000000	5.830810
598.000000	5.815106
597.000000	5.797309
596.000000	5.767316
595.000000	5.746685
594.000000	5.713419
593.000000	5.696640
592.000000	5.656700
591.000000	5.637689
590.000000	5.622370
589.000000	5.582706
588.000000	5.560268
587.000000	5.545237
586.000000	5.508746
585.000000	5.495328
584.000000	5.475721
583.000000	5.438810
582.000000	5.407225
581.000000	5.387807
580.000000	5.360711
579.000000	5.349198
578.000000	5.308924
577.000000	5.290777
576.000000	5.267299
575.000000	5.237714
574.000000	5.208724
573.000000	5.180209
572.000000	5.149546
571.000000	5.134130
570.000000	5.106042
569.000000	5.073108
568.000000	5.041265
567.000000	5.021225
566.000000	4.988968
565.000000	4.960817
564.000000	4.934194
563.000000	4.908871
562.000000	4.872807
561.000000	4.872504
560.000000	4.840308
559.000000	4.819362
558.000000	4.791651
557.000000	4.762593
556.000000	4.738236
555.000000	4.706012
554.000000	4.667010
553.000000	4.644116
552.000000	4.614720
551.000000	4.585336
550.000000	4.559303
549.000000	4.531201
548.000000	4.498731
547.000000	4.463199
546.000000	4.434181
545.000000	4.420698
544.000000	4.384169
543.000000	4.348828
542.000000	4.313388
541.000000	4.286422
540.000000	4.263164
539.000000	4.231636
538.000000	4.192273
537.000000	4.163407
536.000000	4.123027
535.000000	4.091231
534.000000	4.060374
533.000000	4.033954
532.000000	4.000261
531.000000	3.978144
530.000000	3.937739
529.000000	3.903797
528.000000	3.874890
527.000000	3.845748
526.000000	3.807412
525.000000	3.773210
524.000000	3.741125
523.000000	3.708022
522.000000	3.672831
521.000000	3.645615
520.000000	3.611209
519.000000	3.573947
518.000000	3.542467
517.000000	3.508519
516.000000	3.480543
515.000000	3.447438
514.000000	3.411285
513.000000	3.379339
512.000000	3.345081
511.000000	3.310359
510.000000	3.281936
509.000000	3.256865
508.000000	3.223351
507.000000	3.186432
506.000000	3.148874
505.000000	3.123359
504.000000	3.090762
503.000000	3.061017
502.000000	3.025521
501.000000	2.993646
500.000000	2.962726
499.000000	2.939857
498.000000	2.905727
497.000000	2.873236
496.000000	2.846424
495.000000	2.811234
494.000000	2.776440
493.000000	2.747467
492.000000	2.719288
491.000000	2.690247
490.000000	2.655019
489.000000	2.624253
488.000000	2.598303
487.000000	2.572558
486.000000	2.547814
485.000000	2.518687
484.000000	2.495598
483.000000	2.474976
482.000000	2.442672
481.000000	2.409311
480.000000	2.377303
479.000000	2.343935
478.000000	2.306482
477.000000	2.268330
476.000000	2.236381
475.000000	2.209279
474.000000	2.180131
473.000000	2.147945
472.000000	2.115735
471.000000	2.088654
470.000000	2.058428
469.000000	2.023406
468.000000	1.992826
467.000000	1.966437
466.000000	1.934727
465.000000	1.903436
464.000000	1.874132
463.000000	1.842805
462.000000	1.813665
461.000000	1.786932
460.000000	1.754534
459.000000	1.717271
458.000000	1.689075
457.000000	1.664471
456.000000	1.634598
455.000000	1.604306
454.000000	1.576519
453.000000	1.543198
452.000000	1.511380
451.000000	1.485871
450.000000	1.461300
449.000000	1.435002
448.000000	1.403698
447.000000	1.372719
446.000000	1.349314
445.000000	1.330413
444.000000	1.312556
443.000000	1.285833
442.000000	1.257042
441.000000	1.230265
440.000000	1.208760
439.000000	1.185944
438.000000	1.164736
437.000000	1.144014
436.000000	1.120426
435.000000	1.099464
434.000000	1.080406
433.000000	1.060320
432.000000	1.037549
431.000000	1.014295
430.000000	0.994953
429.000000	0.973431
428.000000	0.954726
427.000000	0.936790
426.000000	0.917475
425.000000	0.894639
424.000000	0.879707
423.000000	0.859822
422.000000	0.836977
421.000000	0.821661
420.000000	0.804794
419.000000	0.782071
418.000000	0.763806
417.000000	0.745257
416.000000	0.726449
415.000000	0.709162
414.000000	0.689336
413.000000	0.678586
412.000000	0.654901
411.000000	0.638452
410.000000	0.620479
409.000000	0.598702
408.000000	0.589189
407.000000	0.576695
406.000000	0.557596
405.000000	0.537401
404.000000	0.522865
403.000000	0.510472
402.000000	0.501685
401.000000	0.482841
400.000000	0.466242
399.000000	0.454250
398.000000	0.439120
397.000000	0.426392
396.000000	0.417522
395.000000	0.404540
394.000000	0.396251
393.000000	0.382701
392.000000	0.367791
391.000000	0.358927
390.000000	0.350982
389.000000	0.346487
388.000000	0.331102
387.000000	0.321680
386.000000	0.314195
385.000000	0.306140
384.000000	0.297734
383.000000	0.288742
382.000000	0.281994
381.000000	0.273674
380.000000	0.262525
379.000000	0.256501
378.000000	0.251244
377.000000	0.267102
376.000000	0.262659
375.000000	0.250827
374.000000	0.252889
373.000000	0.250965
372.000000	0.242394
371.000000	0.225719
370.000000	0.216696
369.000000	0.217031
368.000000	0.203903
367.000000	0.199314
366.000000	0.187051
365.000000	0.187187
364.000000	0.180722
363.000000	0.175049
362.000000	0.177405
361.000000	0.161569
360.000000	0.164862
359.000000	0.159750
358.000000	0.164866
357.000000	0.153738
356.000000	0.149154
355.000000	0.144146
354.000000	0.142730
353.000000	0.136864
352.000000	0.131759
351.000000	0.130347
350.000000	0.129525
349.000000	0.118472
348.000000	0.121499
347.000000	0.118873
346.000000	0.111364
345.000000	0.109618
344.000000	0.115630
343.000000	0.115553
342.000000	0.105586
341.000000	0.104357
340.000000	0.101100
339.000000	0.098645
338.000000	0.095075
337.000000	0.102842
336.000000	0.094203
335.000000	0.088343
334.000000	0.083049
333.000000	0.075271
332.000000	0.089356
331.000000	0.074294
330.000000	0.078759
329.000000	0.076911
328.000000	0.076930
327.000000	0.068568
326.000000	0.074392
325.000000	0.073908
324.000000	0.063729
323.000000	0.064523
322.000000	0.066531
321.000000	0.062034
320.000000	0.069471
319.000000	0.069379
318.000000	0.071330
317.000000	0.073472
316.000000	0.071585
315.000000	0.079394
314.000000	0.078483
313.000000	0.077103
312.000000	0.073036
311.000000	0.071426
310.000000	0.072757
309.000000	0.065500
308.000000	0.078585
307.000000	0.067649
306.000000	0.065116
305.000000	0.069072
304.000000	0.071969
303.000000	0.072108
302.000000	0.063226
301.000000	0.066946
300.000000	0.069730
299.000000	0.059394
298.000000	0.066019
297.000000	0.064176
296.000000	0.070513
295.000000	0.075074
294.000000	0.066475
293.000000	0.065083
292.000000	0.066805
291.000000	0.073612
290.000000	0.066138
289.000000	0.067713
288.000000	0.066323
287.000000	0.058865
286.000000	0.060280
285.000000	0.059070
284.000000	0.061118
283.000000	0.067649
282.000000	0.069215
281.000000	0.068250
280.000000	0.065248
279.000000	0.075595
278.000000	0.076923
277.000000	0.075783
276.000000	0.069958
275.000000	0.074128
274.000000	0.077015
273.000000	0.080751
272.000000	0.082173
271.000000	0.084196
270.000000	0.081219
269.000000	0.079651
268.000000	0.082443
267.000000	0.090028
266.000000	0.091239
265.000000	0.092254
264.000000	0.091063
263.000000	0.089770
262.000000	0.096110
261.000000	0.100020
260.000000	0.103511
259.000000	0.103103
258.000000	0.102703
257.000000	0.101976
256.000000	0.104378
255.000000	0.114608
254.000000	0.114937
253.000000	0.115143
252.000000	0.111292
251.000000	0.109421
250.000000	0.116754
249.000000	0.117880
248.000000	0.121478
247.000000	0.116390
246.000000	0.110035
245.000000	0.110965
244.000000	0.103375
243.000000	0.105136
242.000000	0.104000
241.000000	0.088173
240.000000	0.086135
239.000000	0.087022
238.000000	0.085660
237.000000	0.082661
236.000000	0.082157
235.000000	0.078709
234.000000	0.068202
233.000000	0.058432
232.000000	0.056595
231.000000	0.056985
230.000000	0.055884
229.000000	0.044845
228.000000	0.037742
227.000000	0.041168
226.000000	0.032086
225.000000	0.024091
224.000000	0.030716
223.000000	0.032279
222.000000	0.029681
221.000000	0.024406
220.000000	0.023317
219.000000	0.023857
218.000000	0.014578
217.000000	0.010545
216.000000	0.018843
215.000000	0.021503
214.000000	0.021343
213.000000	0.021756
212.000000	0.016984
211.000000	0.002231
210.000000	0.011953
209.000000	0.022212
208.000000	0.003779
207.000000	0.001083
206.000000	-0.006518
205.000000	-0.014290
204.000000	-0.016952
203.000000	-0.014718
202.000000	-0.008904
201.000000	-0.027881
200.000000	-0.033924
