PE UV       SUBTECH     SPECTRUM    ASCII       PEDS        4.00        
   -1
TTms159332.Sample.asc
18/03/19
17:00:11.00
18/03/19
17:00:11.00
Administrator

200.000000
1
Lambda 750
750N8071901
PerkinElmer UV WinLab 6.0.4.0738 / 1.61.00 Lambda 900

0
0
3350/servo 860.8/2
0
0
UV/VIS
1
1
1
CommonBeamDepol,150mm sphere / downward view
0
0
0
0
Program
Program
3350/servo 860.8/2
3350/0.2 860.8/0.2
3350/0.2 860.8/0.2
0
1
 
 
 
0
 
860.8
319.2
860.8
Front
100
on
 
 
0
0
0
 
0
 
 
 
0
 
 
0
0
0
0
0
 
 
 
 
0
0


0
0
#HDR
-1
-1
#GR
nm
%T
1.0
0.0
2350.000000
-1.000000
2151
8
9.325960
-0.062953
#DATA
2350.000000	2.921091
2349.000000	2.700539
2348.000000	2.506226
2347.000000	3.615629
2346.000000	2.701477
2345.000000	2.533115
2344.000000	2.471365
2343.000000	2.569724
2342.000000	2.597374
2341.000000	2.512238
2340.000000	2.740282
2339.000000	2.938047
2338.000000	3.088871
2337.000000	3.213644
2336.000000	3.484146
2335.000000	3.312107
2334.000000	2.981966
2333.000000	3.649407
2332.000000	3.217031
2331.000000	3.254726
2330.000000	3.035190
2329.000000	3.377140
2328.000000	3.344765
2327.000000	3.052741
2326.000000	3.201166
2325.000000	3.345954
2324.000000	3.048156
2323.000000	3.357467
2322.000000	3.007312
2321.000000	2.984888
2320.000000	2.898571
2319.000000	2.966048
2318.000000	2.918884
2317.000000	2.999481
2316.000000	3.045449
2315.000000	2.991750
2314.000000	2.958546
2313.000000	3.055629
2312.000000	2.793592
2311.000000	2.968388
2310.000000	2.812574
2309.000000	2.713614
2308.000000	2.700123
2307.000000	2.790952
2306.000000	2.791466
2305.000000	2.721377
2304.000000	2.847206
2303.000000	2.711963
2302.000000	2.710965
2301.000000	2.681621
2300.000000	2.674011
2299.000000	2.580230
2298.000000	2.528036
2297.000000	2.443686
2296.000000	2.504616
2295.000000	2.450709
2294.000000	2.731714
2293.000000	2.784631
2292.000000	2.799466
2291.000000	2.679397
2290.000000	2.660984
2289.000000	2.839366
2288.000000	2.661942
2287.000000	2.589962
2286.000000	2.501679
2285.000000	2.500025
2284.000000	2.763967
2283.000000	2.542072
2282.000000	2.463230
2281.000000	2.562353
2280.000000	2.583533
2279.000000	2.587646
2278.000000	2.804300
2277.000000	2.641739
2276.000000	2.552926
2275.000000	2.628546
2274.000000	2.663119
2273.000000	2.658438
2272.000000	2.513527
2271.000000	2.449084
2270.000000	2.524242
2269.000000	2.677935
2268.000000	2.658395
2267.000000	2.561707
2266.000000	2.593932
2265.000000	2.649908
2264.000000	2.708697
2263.000000	2.812569
2262.000000	2.729952
2261.000000	2.772040
2260.000000	2.820676
2259.000000	2.809830
2258.000000	2.811300
2257.000000	2.933444
2256.000000	3.038633
2255.000000	2.978035
2254.000000	3.059918
2253.000000	3.150076
2252.000000	3.074348
2251.000000	3.027208
2250.000000	3.159442
2249.000000	3.257931
2248.000000	3.320499
2247.000000	3.366747
2246.000000	3.463478
2245.000000	3.598267
2244.000000	3.648621
2243.000000	3.636075
2242.000000	3.602582
2241.000000	3.618373
2240.000000	3.602501
2239.000000	3.663011
2238.000000	3.800947
2237.000000	3.737322
2236.000000	3.747675
2235.000000	3.839607
2234.000000	3.821212
2233.000000	3.757833
2232.000000	3.684053
2231.000000	3.725385
2230.000000	3.773136
2229.000000	3.804957
2228.000000	3.854153
2227.000000	3.882662
2226.000000	3.772523
2225.000000	3.755205
2224.000000	3.887651
2223.000000	3.891038
2222.000000	3.911873
2221.000000	3.854296
2220.000000	3.857640
2219.000000	3.805437
2218.000000	3.786689
2217.000000	3.897951
2216.000000	3.852854
2215.000000	3.810833
2214.000000	3.825322
2213.000000	3.973954
2212.000000	3.997665
2211.000000	3.819068
2210.000000	3.714271
2209.000000	3.748376
2208.000000	3.741824
2207.000000	3.614079
2206.000000	3.660137
2205.000000	3.632581
2204.000000	3.600426
2203.000000	3.630205
2202.000000	3.643641
2201.000000	3.703719
2200.000000	3.659718
2199.000000	3.717942
2198.000000	3.627912
2197.000000	3.628415
2196.000000	3.528388
2195.000000	3.513660
2194.000000	3.602631
2193.000000	3.467490
2192.000000	3.396509
2191.000000	3.384384
2190.000000	3.357300
2189.000000	3.337424
2188.000000	3.344429
2187.000000	3.325177
2186.000000	3.295789
2185.000000	3.232764
2184.000000	3.349566
2183.000000	3.319720
2182.000000	3.415486
2181.000000	3.344884
2180.000000	3.255272
2179.000000	3.211672
2178.000000	3.316840
2177.000000	3.418442
2176.000000	3.327016
2175.000000	3.253570
2174.000000	3.317742
2173.000000	3.329091
2172.000000	3.400913
2171.000000	3.386415
2170.000000	3.349740
2169.000000	3.408278
2168.000000	3.426159
2167.000000	3.431179
2166.000000	3.446936
2165.000000	3.365025
2164.000000	3.308977
2163.000000	3.371193
2162.000000	3.451483
2161.000000	3.397999
2160.000000	3.496559
2159.000000	3.560045
2158.000000	3.413690
2157.000000	3.609017
2156.000000	3.626295
2155.000000	3.562441
2154.000000	3.742430
2153.000000	3.993191
2152.000000	3.731239
2151.000000	3.735298
2150.000000	3.803801
2149.000000	3.846165
2148.000000	3.699231
2147.000000	3.875296
2146.000000	3.632009
2145.000000	3.815883
2144.000000	3.961305
2143.000000	3.942635
2142.000000	3.980342
2141.000000	3.988489
2140.000000	4.136095
2139.000000	4.172627
2138.000000	4.236071
2137.000000	4.246591
2136.000000	4.109292
2135.000000	4.248730
2134.000000	4.269727
2133.000000	4.026458
2132.000000	4.250686
2131.000000	4.136936
2130.000000	4.336808
2129.000000	4.388725
2128.000000	4.358166
2127.000000	4.292294
2126.000000	4.306654
2125.000000	4.166116
2124.000000	4.255388
2123.000000	4.261464
2122.000000	4.433631
2121.000000	4.480312
2120.000000	4.447830
2119.000000	4.208957
2118.000000	4.349340
2117.000000	4.220128
2116.000000	4.382433
2115.000000	4.483725
2114.000000	4.346238
2113.000000	4.404911
2112.000000	4.441975
2111.000000	4.290317
2110.000000	4.248286
2109.000000	4.472553
2108.000000	4.362402
2107.000000	4.372298
2106.000000	4.460731
2105.000000	4.343342
2104.000000	4.423818
2103.000000	4.631508
2102.000000	4.496448
2101.000000	4.486980
2100.000000	4.535193
2099.000000	4.440403
2098.000000	4.438571
2097.000000	4.502090
2096.000000	4.469125
2095.000000	4.372569
2094.000000	4.394885
2093.000000	4.408286
2092.000000	4.498194
2091.000000	4.429502
2090.000000	4.452061
2089.000000	4.462284
2088.000000	4.389730
2087.000000	4.420577
2086.000000	4.420802
2085.000000	4.492124
2084.000000	4.505151
2083.000000	4.439108
2082.000000	4.426919
2081.000000	4.356769
2080.000000	4.224619
2079.000000	4.314223
2078.000000	4.261949
2077.000000	4.279980
2076.000000	4.180713
2075.000000	4.231601
2074.000000	4.149017
2073.000000	4.153885
2072.000000	4.145397
2071.000000	4.123746
2070.000000	4.182414
2069.000000	4.049801
2068.000000	3.991782
2067.000000	3.942089
2066.000000	3.817199
2065.000000	3.811313
2064.000000	3.823891
2063.000000	3.799746
2062.000000	3.774597
2061.000000	3.707148
2060.000000	3.714296
2059.000000	3.670572
2058.000000	3.561668
2057.000000	3.531830
2056.000000	3.560641
2055.000000	3.581867
2054.000000	3.483499
2053.000000	3.461037
2052.000000	3.490237
2051.000000	3.418090
2050.000000	3.384889
2049.000000	3.301911
2048.000000	3.189288
2047.000000	3.221388
2046.000000	3.250400
2045.000000	3.239691
2044.000000	3.252999
2043.000000	3.238608
2042.000000	3.248863
2041.000000	3.238469
2040.000000	3.255103
2039.000000	3.314357
2038.000000	3.286343
2037.000000	3.278016
2036.000000	3.317137
2035.000000	3.316331
2034.000000	3.309166
2033.000000	3.291154
2032.000000	3.345833
2031.000000	3.414715
2030.000000	3.428121
2029.000000	3.425591
2028.000000	3.451521
2027.000000	3.472453
2026.000000	3.524163
2025.000000	3.530822
2024.000000	3.498157
2023.000000	3.523215
2022.000000	3.590021
2021.000000	3.580800
2020.000000	3.545067
2019.000000	3.553810
2018.000000	3.578895
2017.000000	3.596015
2016.000000	3.597009
2015.000000	3.624117
2014.000000	3.643305
2013.000000	3.606201
2012.000000	3.590289
2011.000000	3.618164
2010.000000	3.565716
2009.000000	3.526890
2008.000000	3.540098
2007.000000	3.495307
2006.000000	3.446971
2005.000000	3.418896
2004.000000	3.402747
2003.000000	3.406668
2002.000000	3.394368
2001.000000	3.373397
2000.000000	3.395801
1999.000000	3.381121
1998.000000	3.318537
1997.000000	3.279732
1996.000000	3.272501
1995.000000	3.257052
1994.000000	3.222660
1993.000000	3.176485
1992.000000	3.164640
1991.000000	3.139302
1990.000000	3.091687
1989.000000	3.078940
1988.000000	3.066941
1987.000000	3.043466
1986.000000	3.048117
1985.000000	3.028454
1984.000000	3.008729
1983.000000	2.980896
1982.000000	2.958137
1981.000000	2.946705
1980.000000	2.929496
1979.000000	2.885614
1978.000000	2.888799
1977.000000	2.849479
1976.000000	2.799507
1975.000000	2.792209
1974.000000	2.827535
1973.000000	2.791334
1972.000000	2.759907
1971.000000	2.760680
1970.000000	2.781847
1969.000000	2.760421
1968.000000	2.710961
1967.000000	2.675177
1966.000000	2.701314
1965.000000	2.677978
1964.000000	2.643004
1963.000000	2.658036
1962.000000	2.633444
1961.000000	2.595986
1960.000000	2.607910
1959.000000	2.553630
1958.000000	2.558124
1957.000000	2.565597
1956.000000	2.526646
1955.000000	2.519763
1954.000000	2.515350
1953.000000	2.482909
1952.000000	2.491788
1951.000000	2.575184
1950.000000	2.540079
1949.000000	2.515464
1948.000000	2.488207
1947.000000	2.501185
1946.000000	2.501834
1945.000000	2.503467
1944.000000	2.492457
1943.000000	2.541048
1942.000000	2.502753
1941.000000	2.518252
1940.000000	2.480872
1939.000000	2.548514
1938.000000	2.589600
1937.000000	2.591893
1936.000000	2.610019
1935.000000	2.646646
1934.000000	2.634297
1933.000000	2.662136
1932.000000	2.626759
1931.000000	2.688352
1930.000000	2.690517
1929.000000	2.766889
1928.000000	2.832798
1927.000000	2.828543
1926.000000	2.900462
1925.000000	2.870888
1924.000000	2.948539
1923.000000	2.974792
1922.000000	3.045504
1921.000000	3.154351
1920.000000	3.135199
1919.000000	3.193113
1918.000000	3.287175
1917.000000	3.293695
1916.000000	3.330261
1915.000000	3.404131
1914.000000	3.601014
1913.000000	3.657422
1912.000000	3.723402
1911.000000	3.784878
1910.000000	3.822697
1909.000000	3.868691
1908.000000	3.976937
1907.000000	4.112030
1906.000000	4.248278
1905.000000	4.401764
1904.000000	4.433107
1903.000000	4.578327
1902.000000	4.672059
1901.000000	4.862775
1900.000000	4.963575
1899.000000	5.084404
1898.000000	5.232792
1897.000000	5.372163
1896.000000	5.503111
1895.000000	5.606184
1894.000000	5.713555
1893.000000	5.914842
1892.000000	6.018487
1891.000000	6.143643
1890.000000	6.260757
1889.000000	6.415567
1888.000000	6.533645
1887.000000	6.636067
1886.000000	6.742437
1885.000000	6.829383
1884.000000	6.927131
1883.000000	7.081520
1882.000000	7.173497
1881.000000	7.299513
1880.000000	7.394879
1879.000000	7.459392
1878.000000	7.549573
1877.000000	7.619961
1876.000000	7.729055
1875.000000	7.801319
1874.000000	7.876860
1873.000000	7.923156
1872.000000	7.966310
1871.000000	8.083830
1870.000000	8.095294
1869.000000	8.098127
1868.000000	8.146185
1867.000000	8.180249
1866.000000	8.200675
1865.000000	8.204264
1864.000000	8.240159
1863.000000	8.235038
1862.000000	8.248677
1861.000000	8.290216
1860.000000	8.300420
1859.000000	8.282771
1858.000000	8.327398
1857.000000	8.345819
1856.000000	8.302218
1855.000000	8.334870
1854.000000	8.358721
1853.000000	8.344596
1852.000000	8.370964
1851.000000	8.341765
1850.000000	8.347663
1849.000000	8.355510
1848.000000	8.382229
1847.000000	8.382338
1846.000000	8.387122
1845.000000	8.354057
1844.000000	8.355892
1843.000000	8.338844
1842.000000	8.332152
1841.000000	8.339503
1840.000000	8.333722
1839.000000	8.303891
1838.000000	8.280945
1837.000000	8.257161
1836.000000	8.231310
1835.000000	8.225168
1834.000000	8.213114
1833.000000	8.167459
1832.000000	8.157911
1831.000000	8.145639
1830.000000	8.136858
1829.000000	8.135687
1828.000000	8.098400
1827.000000	8.080038
1826.000000	8.064981
1825.000000	8.060984
1824.000000	8.054703
1823.000000	8.057039
1822.000000	8.031747
1821.000000	7.980624
1820.000000	7.965097
1819.000000	7.978911
1818.000000	7.980879
1817.000000	7.962696
1816.000000	7.946016
1815.000000	7.929895
1814.000000	7.913152
1813.000000	7.890061
1812.000000	7.877325
1811.000000	7.869181
1810.000000	7.861462
1809.000000	7.870623
1808.000000	7.865766
1807.000000	7.835618
1806.000000	7.827417
1805.000000	7.820520
1804.000000	7.803487
1803.000000	7.782642
1802.000000	7.769201
1801.000000	7.774179
1800.000000	7.789140
1799.000000	7.795006
1798.000000	7.777166
1797.000000	7.770139
1796.000000	7.753571
1795.000000	7.754935
1794.000000	7.784747
1793.000000	7.789848
1792.000000	7.766837
1791.000000	7.763516
1790.000000	7.755118
1789.000000	7.748551
1788.000000	7.746630
1787.000000	7.748656
1786.000000	7.748585
1785.000000	7.738814
1784.000000	7.755619
1783.000000	7.747882
1782.000000	7.739600
1781.000000	7.747590
1780.000000	7.722338
1779.000000	7.715839
1778.000000	7.716144
1777.000000	7.670721
1776.000000	7.647826
1775.000000	7.646464
1774.000000	7.632489
1773.000000	7.630011
1772.000000	7.602644
1771.000000	7.586095
1770.000000	7.560889
1769.000000	7.527851
1768.000000	7.522250
1767.000000	7.530725
1766.000000	7.506071
1765.000000	7.488712
1764.000000	7.466795
1763.000000	7.429779
1762.000000	7.403941
1761.000000	7.421929
1760.000000	7.390999
1759.000000	7.350657
1758.000000	7.316290
1757.000000	7.296528
1756.000000	7.296487
1755.000000	7.275798
1754.000000	7.284025
1753.000000	7.232466
1752.000000	7.201490
1751.000000	7.183542
1750.000000	7.193638
1749.000000	7.194487
1748.000000	7.152546
1747.000000	7.138269
1746.000000	7.140455
1745.000000	7.104290
1744.000000	7.081961
1743.000000	7.052416
1742.000000	7.049382
1741.000000	7.027095
1740.000000	7.012194
1739.000000	6.961165
1738.000000	6.943268
1737.000000	6.954745
1736.000000	6.943001
1735.000000	6.932755
1734.000000	6.921541
1733.000000	6.928414
1732.000000	6.931424
1731.000000	6.900956
1730.000000	6.894457
1729.000000	6.925803
1728.000000	6.924152
1727.000000	6.928626
1726.000000	6.959810
1725.000000	6.968896
1724.000000	6.989096
1723.000000	7.002793
1722.000000	7.020233
1721.000000	7.067030
1720.000000	7.097121
1719.000000	7.119141
1718.000000	7.125425
1717.000000	7.159560
1716.000000	7.185102
1715.000000	7.200996
1714.000000	7.198015
1713.000000	7.228796
1712.000000	7.247851
1711.000000	7.259689
1710.000000	7.289944
1709.000000	7.313956
1708.000000	7.275955
1707.000000	7.305321
1706.000000	7.333384
1705.000000	7.347530
1704.000000	7.357424
1703.000000	7.341045
1702.000000	7.330096
1701.000000	7.343951
1700.000000	7.344021
1699.000000	7.334165
1698.000000	7.377512
1697.000000	7.394352
1696.000000	7.404683
1695.000000	7.391418
1694.000000	7.414139
1693.000000	7.419143
1692.000000	7.424570
1691.000000	7.438144
1690.000000	7.484515
1689.000000	7.492381
1688.000000	7.523159
1687.000000	7.564219
1686.000000	7.580313
1685.000000	7.601420
1684.000000	7.639381
1683.000000	7.679345
1682.000000	7.749852
1681.000000	7.798130
1680.000000	7.827811
1679.000000	7.849073
1678.000000	7.889775
1677.000000	7.931152
1676.000000	8.000305
1675.000000	8.042467
1674.000000	8.083917
1673.000000	8.131050
1672.000000	8.150885
1671.000000	8.195409
1670.000000	8.250517
1669.000000	8.301517
1668.000000	8.325227
1667.000000	8.372743
1666.000000	8.360400
1665.000000	8.393205
1664.000000	8.403235
1663.000000	8.406051
1662.000000	8.449659
1661.000000	8.475024
1660.000000	8.477912
1659.000000	8.524237
1658.000000	8.564599
1657.000000	8.566747
1656.000000	8.573157
1655.000000	8.600225
1654.000000	8.611378
1653.000000	8.604021
1652.000000	8.619209
1651.000000	8.600461
1650.000000	8.605943
1649.000000	8.601787
1648.000000	8.589304
1647.000000	8.571933
1646.000000	8.564182
1645.000000	8.555930
1644.000000	8.566003
1643.000000	8.526652
1642.000000	8.535033
1641.000000	8.533559
1640.000000	8.523604
1639.000000	8.524260
1638.000000	8.513269
1637.000000	8.512907
1636.000000	8.491968
1635.000000	8.463662
1634.000000	8.463301
1633.000000	8.444742
1632.000000	8.431426
1631.000000	8.424167
1630.000000	8.402051
1629.000000	8.370225
1628.000000	8.365611
1627.000000	8.358213
1626.000000	8.337656
1625.000000	8.321753
1624.000000	8.304820
1623.000000	8.289363
1622.000000	8.279584
1621.000000	8.266345
1620.000000	8.247394
1619.000000	8.227956
1618.000000	8.206980
1617.000000	8.191983
1616.000000	8.170478
1615.000000	8.157180
1614.000000	8.150719
1613.000000	8.142301
1612.000000	8.124800
1611.000000	8.107008
1610.000000	8.083348
1609.000000	8.066473
1608.000000	8.056036
1607.000000	8.025317
1606.000000	8.003569
1605.000000	7.982942
1604.000000	7.958553
1603.000000	7.942180
1602.000000	7.925807
1601.000000	7.903850
1600.000000	7.886474
1599.000000	7.874596
1598.000000	7.857417
1597.000000	7.848243
1596.000000	7.831089
1595.000000	7.808919
1594.000000	7.790875
1593.000000	7.780369
1592.000000	7.767639
1591.000000	7.739770
1590.000000	7.736021
1589.000000	7.728735
1588.000000	7.707643
1587.000000	7.692792
1586.000000	7.674847
1585.000000	7.663088
1584.000000	7.656430
1583.000000	7.636333
1582.000000	7.618494
1581.000000	7.612597
1580.000000	7.605723
1579.000000	7.594226
1578.000000	7.585354
1577.000000	7.570825
1576.000000	7.544043
1575.000000	7.525635
1574.000000	7.516303
1573.000000	7.509049
1572.000000	7.481974
1571.000000	7.468216
1570.000000	7.455435
1569.000000	7.442472
1568.000000	7.429905
1567.000000	7.421896
1566.000000	7.402171
1565.000000	7.385822
1564.000000	7.388975
1563.000000	7.386678
1562.000000	7.382130
1561.000000	7.358847
1560.000000	7.337820
1559.000000	7.334881
1558.000000	7.305629
1557.000000	7.298228
1556.000000	7.286151
1555.000000	7.280862
1554.000000	7.263017
1553.000000	7.251539
1552.000000	7.243808
1551.000000	7.235421
1550.000000	7.218967
1549.000000	7.203005
1548.000000	7.187179
1547.000000	7.161384
1546.000000	7.144916
1545.000000	7.125048
1544.000000	7.091898
1543.000000	7.068440
1542.000000	7.055296
1541.000000	7.023698
1540.000000	6.988459
1539.000000	6.951488
1538.000000	6.942011
1537.000000	6.919857
1536.000000	6.896646
1535.000000	6.864224
1534.000000	6.840187
1533.000000	6.802475
1532.000000	6.774335
1531.000000	6.745337
1530.000000	6.730683
1529.000000	6.739726
1528.000000	6.780999
1527.000000	6.797544
1526.000000	6.785250
1525.000000	6.739553
1524.000000	6.688115
1523.000000	6.643105
1522.000000	6.642840
1521.000000	6.637989
1520.000000	6.613328
1519.000000	6.566508
1518.000000	6.575764
1517.000000	6.577309
1516.000000	6.538502
1515.000000	6.524899
1514.000000	6.540182
1513.000000	6.535934
1512.000000	6.511362
1511.000000	6.491231
1510.000000	6.457417
1509.000000	6.471033
1508.000000	6.487388
1507.000000	6.470463
1506.000000	6.453044
1505.000000	6.435671
1504.000000	6.421355
1503.000000	6.403838
1502.000000	6.392692
1501.000000	6.405632
1500.000000	6.392405
1499.000000	6.381193
1498.000000	6.393019
1497.000000	6.388114
1496.000000	6.380968
1495.000000	6.386176
1494.000000	6.392078
1493.000000	6.390811
1492.000000	6.406639
1491.000000	6.413765
1490.000000	6.408483
1489.000000	6.425299
1488.000000	6.437522
1487.000000	6.445193
1486.000000	6.437163
1485.000000	6.464088
1484.000000	6.476298
1483.000000	6.468973
1482.000000	6.496520
1481.000000	6.515845
1480.000000	6.497504
1479.000000	6.513210
1478.000000	6.541265
1477.000000	6.545724
1476.000000	6.547842
1475.000000	6.554901
1474.000000	6.569011
1473.000000	6.570660
1472.000000	6.572513
1471.000000	6.592792
1470.000000	6.595784
1469.000000	6.635885
1468.000000	6.650930
1467.000000	6.631606
1466.000000	6.629704
1465.000000	6.618887
1464.000000	6.639559
1463.000000	6.675862
1462.000000	6.683169
1461.000000	6.668323
1460.000000	6.669716
1459.000000	6.683234
1458.000000	6.704027
1457.000000	6.729431
1456.000000	6.733253
1455.000000	6.723248
1454.000000	6.728789
1453.000000	6.748825
1452.000000	6.764318
1451.000000	6.766316
1450.000000	6.761573
1449.000000	6.775293
1448.000000	6.816845
1447.000000	6.838420
1446.000000	6.833917
1445.000000	6.836664
1444.000000	6.838821
1443.000000	6.853408
1442.000000	6.883426
1441.000000	6.936142
1440.000000	6.943349
1439.000000	6.953192
1438.000000	6.960288
1437.000000	6.979042
1436.000000	6.994640
1435.000000	7.000645
1434.000000	7.019889
1433.000000	7.052099
1432.000000	7.071457
1431.000000	7.103050
1430.000000	7.137107
1429.000000	7.164613
1428.000000	7.197446
1427.000000	7.225955
1426.000000	7.255912
1425.000000	7.291077
1424.000000	7.340988
1423.000000	7.380299
1422.000000	7.419214
1421.000000	7.460436
1420.000000	7.490177
1419.000000	7.527932
1418.000000	7.553786
1417.000000	7.594051
1416.000000	7.648818
1415.000000	7.674987
1414.000000	7.699490
1413.000000	7.761687
1412.000000	7.816566
1411.000000	7.874854
1410.000000	7.916428
1409.000000	7.931959
1408.000000	7.983115
1407.000000	8.054425
1406.000000	8.108362
1405.000000	8.143528
1404.000000	8.177124
1403.000000	8.221352
1402.000000	8.266860
1401.000000	8.311879
1400.000000	8.348143
1399.000000	8.391088
1398.000000	8.441154
1397.000000	8.475761
1396.000000	8.504393
1395.000000	8.550620
1394.000000	8.589770
1393.000000	8.619444
1392.000000	8.641290
1391.000000	8.673344
1390.000000	8.703641
1389.000000	8.720062
1388.000000	8.753094
1387.000000	8.804725
1386.000000	8.834425
1385.000000	8.838223
1384.000000	8.836958
1383.000000	8.873238
1382.000000	8.915011
1381.000000	8.927402
1380.000000	8.942088
1379.000000	8.964433
1378.000000	8.968786
1377.000000	8.978053
1376.000000	9.007635
1375.000000	9.013439
1374.000000	8.995705
1373.000000	8.989333
1372.000000	9.005989
1371.000000	9.035071
1370.000000	9.042207
1369.000000	9.038234
1368.000000	9.038636
1367.000000	9.045848
1366.000000	9.055506
1365.000000	9.056965
1364.000000	9.064800
1363.000000	9.083048
1362.000000	9.090119
1361.000000	9.085333
1360.000000	9.087822
1359.000000	9.088768
1358.000000	9.107851
1357.000000	9.139035
1356.000000	9.141954
1355.000000	9.141756
1354.000000	9.158138
1353.000000	9.159608
1352.000000	9.170133
1351.000000	9.181619
1350.000000	9.171414
1349.000000	9.164509
1348.000000	9.177459
1347.000000	9.193981
1346.000000	9.193066
1345.000000	9.210953
1344.000000	9.226674
1343.000000	9.235665
1342.000000	9.226983
1341.000000	9.222700
1340.000000	9.223228
1339.000000	9.226179
1338.000000	9.251697
1337.000000	9.277913
1336.000000	9.284830
1335.000000	9.280783
1334.000000	9.268625
1333.000000	9.267303
1332.000000	9.264530
1331.000000	9.265239
1330.000000	9.297900
1329.000000	9.312499
1328.000000	9.291136
1327.000000	9.278017
1326.000000	9.305800
1325.000000	9.325960
1324.000000	9.304482
1323.000000	9.301711
1322.000000	9.293909
1321.000000	9.284054
1320.000000	9.301911
1319.000000	9.311999
1318.000000	9.297451
1317.000000	9.295473
1316.000000	9.292374
1315.000000	9.268142
1314.000000	9.276812
1313.000000	9.289724
1312.000000	9.259734
1311.000000	9.266094
1310.000000	9.282811
1309.000000	9.263899
1308.000000	9.234466
1307.000000	9.249927
1306.000000	9.265297
1305.000000	9.262987
1304.000000	9.255916
1303.000000	9.254004
1302.000000	9.270803
1301.000000	9.251608
1300.000000	9.236439
1299.000000	9.218871
1298.000000	9.226800
1297.000000	9.211537
1296.000000	9.222542
1295.000000	9.211832
1294.000000	9.188220
1293.000000	9.197171
1292.000000	9.202702
1291.000000	9.211741
1290.000000	9.200498
1289.000000	9.191081
1288.000000	9.190243
1287.000000	9.192823
1286.000000	9.154663
1285.000000	9.128574
1284.000000	9.135321
1283.000000	9.131562
1282.000000	9.143750
1281.000000	9.147650
1280.000000	9.125003
1279.000000	9.132293
1278.000000	9.123591
1277.000000	9.124791
1276.000000	9.124269
1275.000000	9.118659
1274.000000	9.114850
1273.000000	9.103789
1272.000000	9.095993
1271.000000	9.090312
1270.000000	9.093529
1269.000000	9.078517
1268.000000	9.073802
1267.000000	9.087692
1266.000000	9.062736
1265.000000	9.049513
1264.000000	9.045578
1263.000000	9.057746
1262.000000	9.065819
1261.000000	9.092352
1260.000000	9.083704
1259.000000	9.054240
1258.000000	9.048810
1257.000000	9.037519
1256.000000	9.057464
1255.000000	9.076067
1254.000000	9.064735
1253.000000	9.053001
1252.000000	9.041149
1251.000000	9.033403
1250.000000	9.010772
1249.000000	9.013284
1248.000000	9.018267
1247.000000	9.021986
1246.000000	9.010144
1245.000000	9.003515
1244.000000	8.991342
1243.000000	8.994541
1242.000000	9.001806
1241.000000	8.972919
1240.000000	8.957099
1239.000000	8.937316
1238.000000	8.952165
1237.000000	8.916396
1236.000000	8.908757
1235.000000	8.908249
1234.000000	8.911334
1233.000000	8.877379
1232.000000	8.875987
1231.000000	8.889952
1230.000000	8.885444
1229.000000	8.853402
1228.000000	8.830474
1227.000000	8.826994
1226.000000	8.847168
1225.000000	8.847546
1224.000000	8.846224
1223.000000	8.851025
1222.000000	8.853931
1221.000000	8.836896
1220.000000	8.806350
1219.000000	8.790190
1218.000000	8.784390
1217.000000	8.763220
1216.000000	8.756866
1215.000000	8.731729
1214.000000	8.716237
1213.000000	8.720261
1212.000000	8.733416
1211.000000	8.731293
1210.000000	8.705232
1209.000000	8.680791
1208.000000	8.681568
1207.000000	8.685312
1206.000000	8.697283
1205.000000	8.675582
1204.000000	8.639778
1203.000000	8.597254
1202.000000	8.591244
1201.000000	8.597421
1200.000000	8.596013
1199.000000	8.590613
1198.000000	8.588978
1197.000000	8.578264
1196.000000	8.559148
1195.000000	8.549246
1194.000000	8.531604
1193.000000	8.522057
1192.000000	8.502702
1191.000000	8.487597
1190.000000	8.468342
1189.000000	8.421951
1188.000000	8.421409
1187.000000	8.440475
1186.000000	8.423439
1185.000000	8.405567
1184.000000	8.396271
1183.000000	8.408985
1182.000000	8.418669
1181.000000	8.420951
1180.000000	8.425478
1179.000000	8.446107
1178.000000	8.456032
1177.000000	8.453989
1176.000000	8.468348
1175.000000	8.473805
1174.000000	8.479312
1173.000000	8.482913
1172.000000	8.489064
1171.000000	8.510302
1170.000000	8.524192
1169.000000	8.522397
1168.000000	8.533648
1167.000000	8.551773
1166.000000	8.563065
1165.000000	8.570805
1164.000000	8.581942
1163.000000	8.595797
1162.000000	8.602444
1161.000000	8.606301
1160.000000	8.617916
1159.000000	8.621456
1158.000000	8.634741
1157.000000	8.651928
1156.000000	8.653834
1155.000000	8.664524
1154.000000	8.651510
1153.000000	8.636936
1152.000000	8.650459
1151.000000	8.660032
1150.000000	8.662934
1149.000000	8.674150
1148.000000	8.685193
1147.000000	8.694011
1146.000000	8.708714
1145.000000	8.705635
1144.000000	8.707660
1143.000000	8.725035
1142.000000	8.724118
1141.000000	8.732647
1140.000000	8.741371
1139.000000	8.749447
1138.000000	8.748512
1137.000000	8.756360
1136.000000	8.739139
1135.000000	8.720951
1134.000000	8.734154
1133.000000	8.744518
1132.000000	8.748043
1131.000000	8.752567
1130.000000	8.764855
1129.000000	8.762107
1128.000000	8.775495
1127.000000	8.787497
1126.000000	8.782877
1125.000000	8.773136
1124.000000	8.779762
1123.000000	8.787265
1122.000000	8.788539
1121.000000	8.748455
1120.000000	8.729494
1119.000000	8.729134
1118.000000	8.731218
1117.000000	8.731849
1116.000000	8.733839
1115.000000	8.742794
1114.000000	8.737596
1113.000000	8.748087
1112.000000	8.751069
1111.000000	8.735992
1110.000000	8.746988
1109.000000	8.733808
1108.000000	8.732008
1107.000000	8.737903
1106.000000	8.740963
1105.000000	8.726269
1104.000000	8.728288
1103.000000	8.723869
1102.000000	8.690284
1101.000000	8.666495
1100.000000	8.668743
1099.000000	8.690038
1098.000000	8.693356
1097.000000	8.691755
1096.000000	8.699914
1095.000000	8.705168
1094.000000	8.657226
1093.000000	8.651614
1092.000000	8.654687
1091.000000	8.659697
1090.000000	8.665807
1089.000000	8.662645
1088.000000	8.665138
1087.000000	8.669338
1086.000000	8.640815
1085.000000	8.632155
1084.000000	8.624228
1083.000000	8.616031
1082.000000	8.631067
1081.000000	8.625965
1080.000000	8.595672
1079.000000	8.576366
1078.000000	8.580586
1077.000000	8.586643
1076.000000	8.600522
1075.000000	8.602893
1074.000000	8.602932
1073.000000	8.569523
1072.000000	8.551085
1071.000000	8.553853
1070.000000	8.560116
1069.000000	8.565074
1068.000000	8.569269
1067.000000	8.569363
1066.000000	8.558861
1065.000000	8.541098
1064.000000	8.517619
1063.000000	8.530203
1062.000000	8.537193
1061.000000	8.536027
1060.000000	8.522622
1059.000000	8.546695
1058.000000	8.488911
1057.000000	8.482727
1056.000000	8.485180
1055.000000	8.500432
1054.000000	8.499502
1053.000000	8.470143
1052.000000	8.458959
1051.000000	8.476149
1050.000000	8.467201
1049.000000	8.469608
1048.000000	8.425166
1047.000000	8.443372
1046.000000	8.461639
1045.000000	8.466447
1044.000000	8.459887
1043.000000	8.417746
1042.000000	8.424724
1041.000000	8.423689
1040.000000	8.436281
1039.000000	8.455567
1038.000000	8.396987
1037.000000	8.396770
1036.000000	8.395398
1035.000000	8.412678
1034.000000	8.378886
1033.000000	8.402150
1032.000000	8.405296
1031.000000	8.416800
1030.000000	8.382290
1029.000000	8.361997
1028.000000	8.378784
1027.000000	8.395831
1026.000000	8.362089
1025.000000	8.362978
1024.000000	8.370445
1023.000000	8.341281
1022.000000	8.341155
1021.000000	8.348937
1020.000000	8.361441
1019.000000	8.334617
1018.000000	8.335115
1017.000000	8.333227
1016.000000	8.308378
1015.000000	8.327145
1014.000000	8.346415
1013.000000	8.343092
1012.000000	8.325511
1011.000000	8.322489
1010.000000	8.301867
1009.000000	8.301771
1008.000000	8.316246
1007.000000	8.321087
1006.000000	8.292667
1005.000000	8.295367
1004.000000	8.277292
1003.000000	8.292320
1002.000000	8.298728
1001.000000	8.289772
1000.000000	8.296197
999.000000	8.299907
998.000000	8.277652
997.000000	8.279901
996.000000	8.273705
995.000000	8.272141
994.000000	8.280397
993.000000	8.278289
992.000000	8.270014
991.000000	8.255095
990.000000	8.257026
989.000000	8.264780
988.000000	8.265126
987.000000	8.269245
986.000000	8.289006
985.000000	8.303878
984.000000	8.313199
983.000000	8.307980
982.000000	8.314925
981.000000	8.319254
980.000000	8.322064
979.000000	8.320377
978.000000	8.319721
977.000000	8.329640
976.000000	8.339647
975.000000	8.332079
974.000000	8.329340
973.000000	8.321897
972.000000	8.319791
971.000000	8.330083
970.000000	8.336646
969.000000	8.334608
968.000000	8.311097
967.000000	8.313599
966.000000	8.309923
965.000000	8.301354
964.000000	8.308441
963.000000	8.315543
962.000000	8.312211
961.000000	8.319032
960.000000	8.308329
959.000000	8.290615
958.000000	8.286563
957.000000	8.300347
956.000000	8.299714
955.000000	8.292374
954.000000	8.298601
953.000000	8.296017
952.000000	8.269750
951.000000	8.267928
950.000000	8.271704
949.000000	8.262582
948.000000	8.259762
947.000000	8.266964
946.000000	8.261769
945.000000	8.250046
944.000000	8.244766
943.000000	8.241509
942.000000	8.236036
941.000000	8.226523
940.000000	8.240037
939.000000	8.245421
938.000000	8.232989
937.000000	8.221440
936.000000	8.221113
935.000000	8.224163
934.000000	8.207077
933.000000	8.212106
932.000000	8.199643
931.000000	8.192500
930.000000	8.200049
929.000000	8.187694
928.000000	8.185094
927.000000	8.198090
926.000000	8.187745
925.000000	8.171680
924.000000	8.161391
923.000000	8.157376
922.000000	8.154971
921.000000	8.142048
920.000000	8.146349
919.000000	8.146745
918.000000	8.122719
917.000000	8.130749
916.000000	8.153596
915.000000	8.152109
914.000000	8.124332
913.000000	8.099143
912.000000	8.092811
911.000000	8.100725
910.000000	8.115104
909.000000	8.135230
908.000000	8.147524
907.000000	8.127537
906.000000	8.085975
905.000000	8.066318
904.000000	8.102719
903.000000	8.105325
902.000000	8.106841
901.000000	8.075199
900.000000	8.088964
899.000000	8.062926
898.000000	8.000044
897.000000	8.032673
896.000000	8.078710
895.000000	8.083345
894.000000	8.119021
893.000000	8.097956
892.000000	8.047024
891.000000	8.028637
890.000000	8.056835
889.000000	8.081084
888.000000	8.059361
887.000000	8.007538
886.000000	7.970260
885.000000	8.041883
884.000000	8.090027
883.000000	8.060864
882.000000	8.010192
881.000000	7.977573
880.000000	8.019172
879.000000	8.020261
878.000000	8.020464
877.000000	8.027177
876.000000	7.910834
875.000000	7.964437
874.000000	7.930950
873.000000	7.950489
872.000000	7.991321
871.000000	8.008812
870.000000	7.977557
869.000000	7.972987
868.000000	7.923138
867.000000	7.876055
866.000000	7.909568
865.000000	7.866985
864.000000	7.984895
863.000000	7.918845
862.000000	7.915998
861.000000	7.911372
860.000000	7.882013
859.000000	7.961626
858.000000	7.979193
857.000000	7.963460
856.000000	7.918565
855.000000	7.998346
854.000000	7.947351
853.000000	7.858628
852.000000	7.936731
851.000000	7.936040
850.000000	7.890199
849.000000	7.855648
848.000000	7.846855
847.000000	7.876450
846.000000	7.887354
845.000000	7.831667
844.000000	7.816516
843.000000	7.827616
842.000000	7.818906
841.000000	7.807744
840.000000	7.846830
839.000000	7.755935
838.000000	7.738764
837.000000	7.730874
836.000000	7.751104
835.000000	7.738160
834.000000	7.751572
833.000000	7.723787
832.000000	7.726147
831.000000	7.725239
830.000000	7.693780
829.000000	7.666373
828.000000	7.682447
827.000000	7.648133
826.000000	7.646454
825.000000	7.642949
824.000000	7.672093
823.000000	7.594980
822.000000	7.629614
821.000000	7.587700
820.000000	7.614494
819.000000	7.610332
818.000000	7.581942
817.000000	7.569114
816.000000	7.558143
815.000000	7.567084
814.000000	7.543968
813.000000	7.530096
812.000000	7.500578
811.000000	7.534957
810.000000	7.516123
809.000000	7.506499
808.000000	7.504532
807.000000	7.515782
806.000000	7.484574
805.000000	7.491399
804.000000	7.472961
803.000000	7.450197
802.000000	7.441049
801.000000	7.437715
800.000000	7.423569
799.000000	7.394666
798.000000	7.393404
797.000000	7.405243
796.000000	7.395806
795.000000	7.366616
794.000000	7.371658
793.000000	7.376913
792.000000	7.352936
791.000000	7.340125
790.000000	7.327915
789.000000	7.322964
788.000000	7.331638
787.000000	7.316840
786.000000	7.312120
785.000000	7.298871
784.000000	7.252381
783.000000	7.263813
782.000000	7.263085
781.000000	7.221515
780.000000	7.238584
779.000000	7.231614
778.000000	7.217301
777.000000	7.197342
776.000000	7.197996
775.000000	7.160536
774.000000	7.162740
773.000000	7.157993
772.000000	7.142156
771.000000	7.131249
770.000000	7.086507
769.000000	7.092745
768.000000	7.105707
767.000000	7.080353
766.000000	7.056724
765.000000	7.064949
764.000000	7.045236
763.000000	7.036939
762.000000	7.042107
761.000000	7.039876
760.000000	6.997836
759.000000	6.985926
758.000000	6.980886
757.000000	6.980850
756.000000	6.950646
755.000000	6.940133
754.000000	6.934899
753.000000	6.907763
752.000000	6.899119
751.000000	6.893617
750.000000	6.884184
749.000000	6.874353
748.000000	6.865943
747.000000	6.848685
746.000000	6.841632
745.000000	6.833486
744.000000	6.818697
743.000000	6.805263
742.000000	6.790858
741.000000	6.770980
740.000000	6.748346
739.000000	6.745117
738.000000	6.735400
737.000000	6.717877
736.000000	6.706999
735.000000	6.694631
734.000000	6.685478
733.000000	6.684664
732.000000	6.662897
731.000000	6.646094
730.000000	6.633837
729.000000	6.616678
728.000000	6.593884
727.000000	6.578573
726.000000	6.569791
725.000000	6.566801
724.000000	6.558598
723.000000	6.529431
722.000000	6.507915
721.000000	6.510511
720.000000	6.499879
719.000000	6.481342
718.000000	6.480091
717.000000	6.471365
716.000000	6.450945
715.000000	6.428741
714.000000	6.405026
713.000000	6.397137
712.000000	6.383103
711.000000	6.366215
710.000000	6.351319
709.000000	6.340086
708.000000	6.326777
707.000000	6.305844
706.000000	6.292998
705.000000	6.287556
704.000000	6.272075
703.000000	6.251939
702.000000	6.242875
701.000000	6.222013
700.000000	6.201118
699.000000	6.195076
698.000000	6.178787
697.000000	6.155236
696.000000	6.131653
695.000000	6.112082
694.000000	6.101948
693.000000	6.087908
692.000000	6.070774
691.000000	6.053145
690.000000	6.044411
689.000000	6.013155
688.000000	5.977236
687.000000	5.969017
686.000000	5.959574
685.000000	5.950582
684.000000	5.929570
683.000000	5.907463
682.000000	5.888563
681.000000	5.872967
680.000000	5.860764
679.000000	5.849052
678.000000	5.835573
677.000000	5.801746
676.000000	5.785411
675.000000	5.778188
674.000000	5.763229
673.000000	5.747620
672.000000	5.722622
671.000000	5.706089
670.000000	5.690161
669.000000	5.674562
668.000000	5.659938
667.000000	5.634873
666.000000	5.614677
665.000000	5.586848
664.000000	5.573922
663.000000	5.559833
662.000000	5.543507
661.000000	5.527252
660.000000	5.515809
659.000000	5.496946
658.000000	5.474036
657.000000	5.452668
656.000000	5.431876
655.000000	5.416611
654.000000	5.400388
653.000000	5.378668
652.000000	5.366799
651.000000	5.352206
650.000000	5.328355
649.000000	5.316610
648.000000	5.288614
647.000000	5.267674
646.000000	5.238247
645.000000	5.224120
644.000000	5.206876
643.000000	5.185994
642.000000	5.170608
641.000000	5.152096
640.000000	5.127351
639.000000	5.102122
638.000000	5.083892
637.000000	5.065219
636.000000	5.041883
635.000000	5.032534
634.000000	5.002728
633.000000	4.978565
632.000000	4.967780
631.000000	4.946683
630.000000	4.924459
629.000000	4.907804
628.000000	4.882381
627.000000	4.866958
626.000000	4.838097
625.000000	4.825447
624.000000	4.806982
623.000000	4.773160
622.000000	4.750003
621.000000	4.738066
620.000000	4.713965
619.000000	4.688916
618.000000	4.674196
617.000000	4.649606
616.000000	4.625527
615.000000	4.608460
614.000000	4.582819
613.000000	4.563286
612.000000	4.537939
611.000000	4.518964
610.000000	4.494138
609.000000	4.476352
608.000000	4.447422
607.000000	4.427628
606.000000	4.402891
605.000000	4.382579
604.000000	4.354543
603.000000	4.331565
602.000000	4.315088
601.000000	4.292945
600.000000	4.269349
599.000000	4.241849
598.000000	4.219534
597.000000	4.190480
596.000000	4.176631
595.000000	4.157554
594.000000	4.128002
593.000000	4.109467
592.000000	4.072798
591.000000	4.053688
590.000000	4.036876
589.000000	4.006763
588.000000	3.981625
587.000000	3.959382
586.000000	3.927944
585.000000	3.908155
584.000000	3.884942
583.000000	3.860626
582.000000	3.834280
581.000000	3.803580
580.000000	3.779225
579.000000	3.765324
578.000000	3.732651
577.000000	3.714454
576.000000	3.685676
575.000000	3.660846
574.000000	3.635105
573.000000	3.603620
572.000000	3.585018
571.000000	3.558246
570.000000	3.536393
569.000000	3.505014
568.000000	3.479023
567.000000	3.448993
566.000000	3.425156
565.000000	3.397216
564.000000	3.372010
563.000000	3.348389
562.000000	3.319302
561.000000	3.312371
560.000000	3.283785
559.000000	3.260985
558.000000	3.228288
557.000000	3.215806
556.000000	3.185774
555.000000	3.153160
554.000000	3.129802
553.000000	3.105095
552.000000	3.075206
551.000000	3.055803
550.000000	3.030958
549.000000	2.997452
548.000000	2.970767
547.000000	2.942532
546.000000	2.923659
545.000000	2.894222
544.000000	2.866052
543.000000	2.832963
542.000000	2.809881
541.000000	2.780690
540.000000	2.756393
539.000000	2.736756
538.000000	2.702657
537.000000	2.675916
536.000000	2.651658
535.000000	2.617021
534.000000	2.586199
533.000000	2.570354
532.000000	2.538678
531.000000	2.510212
530.000000	2.489254
529.000000	2.466997
528.000000	2.435885
527.000000	2.410259
526.000000	2.378489
525.000000	2.344774
524.000000	2.325408
523.000000	2.299401
522.000000	2.276219
521.000000	2.248341
520.000000	2.215075
519.000000	2.193885
518.000000	2.169035
517.000000	2.138395
516.000000	2.114631
515.000000	2.093405
514.000000	2.066129
513.000000	2.043749
512.000000	2.013050
511.000000	1.985449
510.000000	1.962023
509.000000	1.939469
508.000000	1.914638
507.000000	1.885596
506.000000	1.863719
505.000000	1.843354
504.000000	1.820337
503.000000	1.792936
502.000000	1.764677
501.000000	1.741070
500.000000	1.719177
499.000000	1.695363
498.000000	1.676147
497.000000	1.658721
496.000000	1.632415
495.000000	1.607274
494.000000	1.583279
493.000000	1.564118
492.000000	1.543675
491.000000	1.521882
490.000000	1.499083
489.000000	1.478232
488.000000	1.457329
487.000000	1.439761
486.000000	1.424899
485.000000	1.409399
484.000000	1.389552
483.000000	1.372117
482.000000	1.352426
481.000000	1.333059
480.000000	1.311751
479.000000	1.286670
478.000000	1.261018
477.000000	1.239476
476.000000	1.216779
475.000000	1.192473
474.000000	1.176289
473.000000	1.161049
472.000000	1.139220
471.000000	1.119022
470.000000	1.098541
469.000000	1.079506
468.000000	1.064616
467.000000	1.045566
466.000000	1.022955
465.000000	1.003033
464.000000	0.981702
463.000000	0.964381
462.000000	0.949564
461.000000	0.933479
460.000000	0.914328
459.000000	0.893108
458.000000	0.876911
457.000000	0.859978
456.000000	0.842973
455.000000	0.826233
454.000000	0.807179
453.000000	0.791117
452.000000	0.776380
451.000000	0.760584
450.000000	0.745293
449.000000	0.728999
448.000000	0.712879
447.000000	0.694950
446.000000	0.683110
445.000000	0.675397
444.000000	0.664119
443.000000	0.646346
442.000000	0.630542
441.000000	0.615885
440.000000	0.604192
439.000000	0.589119
438.000000	0.578796
437.000000	0.567072
436.000000	0.555512
435.000000	0.542208
434.000000	0.529945
433.000000	0.519479
432.000000	0.510023
431.000000	0.499525
430.000000	0.486608
429.000000	0.475189
428.000000	0.464329
427.000000	0.456061
426.000000	0.447393
425.000000	0.434187
424.000000	0.424651
423.000000	0.413762
422.000000	0.403418
421.000000	0.390433
420.000000	0.386799
419.000000	0.377149
418.000000	0.365851
417.000000	0.358360
416.000000	0.347305
415.000000	0.339418
414.000000	0.335065
413.000000	0.327222
412.000000	0.315434
411.000000	0.305228
410.000000	0.295331
409.000000	0.290583
408.000000	0.280256
407.000000	0.270742
406.000000	0.264219
405.000000	0.252095
404.000000	0.250579
403.000000	0.244615
402.000000	0.239805
401.000000	0.234196
400.000000	0.221701
399.000000	0.217020
398.000000	0.210876
397.000000	0.205594
396.000000	0.202815
395.000000	0.199248
394.000000	0.195432
393.000000	0.188186
392.000000	0.176717
391.000000	0.175024
390.000000	0.177524
389.000000	0.170833
388.000000	0.163660
387.000000	0.158665
386.000000	0.151566
385.000000	0.149286
384.000000	0.148441
383.000000	0.143472
382.000000	0.136552
381.000000	0.133103
380.000000	0.130363
379.000000	0.126218
378.000000	0.118155
377.000000	0.141401
376.000000	0.140683
375.000000	0.133680
374.000000	0.132344
373.000000	0.124208
372.000000	0.117602
371.000000	0.118193
370.000000	0.115848
369.000000	0.109601
368.000000	0.109503
367.000000	0.102677
366.000000	0.098622
365.000000	0.094962
364.000000	0.090597
363.000000	0.087666
362.000000	0.087525
361.000000	0.082198
360.000000	0.084082
359.000000	0.078224
358.000000	0.076107
357.000000	0.076869
356.000000	0.073063
355.000000	0.070421
354.000000	0.067167
353.000000	0.065039
352.000000	0.064795
351.000000	0.060276
350.000000	0.064009
349.000000	0.058342
348.000000	0.058112
347.000000	0.055009
346.000000	0.049516
345.000000	0.052828
344.000000	0.056639
343.000000	0.053303
342.000000	0.051854
341.000000	0.043474
340.000000	0.047023
339.000000	0.042518
338.000000	0.049326
337.000000	0.041231
336.000000	0.043290
335.000000	0.034079
334.000000	0.040960
333.000000	0.038246
332.000000	0.038871
331.000000	0.040019
330.000000	0.033444
329.000000	0.031984
328.000000	0.029401
327.000000	0.025889
326.000000	0.036914
325.000000	0.033765
324.000000	0.026092
323.000000	0.022447
322.000000	0.021552
321.000000	0.020647
320.000000	0.016241
319.000000	0.030002
318.000000	0.030730
317.000000	0.034920
316.000000	0.032572
315.000000	0.030414
314.000000	0.041110
313.000000	0.035988
312.000000	0.032512
311.000000	0.035620
310.000000	0.032223
309.000000	0.030511
308.000000	0.031415
307.000000	0.025124
306.000000	0.028027
305.000000	0.024049
304.000000	0.025082
303.000000	0.028301
302.000000	0.032732
301.000000	0.031279
300.000000	0.029390
299.000000	0.024880
298.000000	0.026557
297.000000	0.027130
296.000000	0.032443
295.000000	0.030984
294.000000	0.029774
293.000000	0.025996
292.000000	0.024225
291.000000	0.024940
290.000000	0.024322
289.000000	0.022540
288.000000	0.022326
287.000000	0.020710
286.000000	0.024075
285.000000	0.018757
284.000000	0.026903
283.000000	0.026985
282.000000	0.027443
281.000000	0.027582
280.000000	0.026419
279.000000	0.029241
278.000000	0.029883
277.000000	0.028478
276.000000	0.021773
275.000000	0.028059
274.000000	0.028369
273.000000	0.032930
272.000000	0.031664
271.000000	0.035018
270.000000	0.031356
269.000000	0.025173
268.000000	0.029086
267.000000	0.038156
266.000000	0.040540
265.000000	0.034535
264.000000	0.030062
263.000000	0.030672
262.000000	0.029881
261.000000	0.033700
260.000000	0.034109
259.000000	0.032689
258.000000	0.027559
257.000000	0.032565
256.000000	0.036522
255.000000	0.039137
254.000000	0.036973
253.000000	0.031357
252.000000	0.030959
251.000000	0.035320
250.000000	0.036977
249.000000	0.032409
248.000000	0.036566
247.000000	0.038248
246.000000	0.032454
245.000000	0.028026
244.000000	0.028871
243.000000	0.031944
242.000000	0.035701
241.000000	0.029047
240.000000	0.023162
239.000000	0.023178
238.000000	0.028175
237.000000	0.030843
236.000000	0.023971
235.000000	0.019728
234.000000	0.017255
233.000000	0.012258
232.000000	0.007852
231.000000	0.013534
230.000000	0.017610
229.000000	0.010271
228.000000	0.001322
227.000000	0.000511
226.000000	0.000715
225.000000	0.002960
224.000000	0.003072
223.000000	-0.002467
222.000000	-0.003504
221.000000	-0.002986
220.000000	-0.002579
219.000000	-0.008194
218.000000	-0.012600
217.000000	-0.008561
216.000000	-0.012144
215.000000	-0.016993
214.000000	-0.013563
213.000000	-0.012251
212.000000	-0.010403
211.000000	-0.007968
210.000000	-0.004482
209.000000	-0.018778
208.000000	-0.021485
207.000000	-0.009636
206.000000	-0.008690
205.000000	-0.026616
204.000000	-0.036311
203.000000	-0.022078
202.000000	-0.028691
201.000000	-0.062953
200.000000	-0.055238
