PE IR       SUBTECH     SPECTRUM    ASCII       PEDS        4.00        
   -1
3C-H10-C037_1.ASC
22/02/24
11:14:59.00
22/02/24
11:18:49.00
uco
Sample 006 By uco Date Thursday, February 24 2022
450.000000
#HDR
-1
-1
#GR
cm-1
A
1.0
0.0
4000.000000
-1.000000
3551
8
0.045075
0.007158
#DATA
4000.000000	0.007541
3999.000000	0.007545
3998.000000	0.007564
3997.000000	0.007591
3996.000000	0.007613
3995.000000	0.007623
3994.000000	0.007621
3993.000000	0.007613
3992.000000	0.007605
3991.000000	0.007596
3990.000000	0.007586
3989.000000	0.007574
3988.000000	0.007562
3987.000000	0.007553
3986.000000	0.007548
3985.000000	0.007551
3984.000000	0.007566
3983.000000	0.007590
3982.000000	0.007617
3981.000000	0.007640
3980.000000	0.007654
3979.000000	0.007658
3978.000000	0.007654
3977.000000	0.007646
3976.000000	0.007635
3975.000000	0.007625
3974.000000	0.007616
3973.000000	0.007609
3972.000000	0.007602
3971.000000	0.007594
3970.000000	0.007587
3969.000000	0.007586
3968.000000	0.007594
3967.000000	0.007611
3966.000000	0.007633
3965.000000	0.007659
3964.000000	0.007686
3963.000000	0.007711
3962.000000	0.007727
3961.000000	0.007728
3960.000000	0.007715
3959.000000	0.007693
3958.000000	0.007677
3957.000000	0.007675
3956.000000	0.007691
3955.000000	0.007715
3954.000000	0.007733
3953.000000	0.007738
3952.000000	0.007733
3951.000000	0.007728
3950.000000	0.007730
3949.000000	0.007738
3948.000000	0.007743
3947.000000	0.007734
3946.000000	0.007708
3945.000000	0.007669
3944.000000	0.007634
3943.000000	0.007621
3942.000000	0.007638
3941.000000	0.007677
3940.000000	0.007718
3939.000000	0.007744
3938.000000	0.007747
3937.000000	0.007735
3936.000000	0.007715
3935.000000	0.007693
3934.000000	0.007673
3933.000000	0.007660
3932.000000	0.007664
3931.000000	0.007689
3930.000000	0.007727
3929.000000	0.007759
3928.000000	0.007771
3927.000000	0.007763
3926.000000	0.007746
3925.000000	0.007729
3924.000000	0.007719
3923.000000	0.007717
3922.000000	0.007722
3921.000000	0.007731
3920.000000	0.007739
3919.000000	0.007739
3918.000000	0.007731
3917.000000	0.007715
3916.000000	0.007702
3915.000000	0.007696
3914.000000	0.007697
3913.000000	0.007699
3912.000000	0.007695
3911.000000	0.007687
3910.000000	0.007679
3909.000000	0.007672
3908.000000	0.007667
3907.000000	0.007660
3906.000000	0.007653
3905.000000	0.007650
3904.000000	0.007658
3903.000000	0.007679
3902.000000	0.007709
3901.000000	0.007736
3900.000000	0.007751
3899.000000	0.007755
3898.000000	0.007758
3897.000000	0.007762
3896.000000	0.007766
3895.000000	0.007766
3894.000000	0.007762
3893.000000	0.007758
3892.000000	0.007755
3891.000000	0.007751
3890.000000	0.007745
3889.000000	0.007736
3888.000000	0.007723
3887.000000	0.007708
3886.000000	0.007696
3885.000000	0.007694
3884.000000	0.007700
3883.000000	0.007706
3882.000000	0.007702
3881.000000	0.007692
3880.000000	0.007686
3879.000000	0.007694
3878.000000	0.007707
3877.000000	0.007713
3876.000000	0.007708
3875.000000	0.007697
3874.000000	0.007690
3873.000000	0.007694
3872.000000	0.007708
3871.000000	0.007721
3870.000000	0.007723
3869.000000	0.007720
3868.000000	0.007724
3867.000000	0.007740
3866.000000	0.007761
3865.000000	0.007771
3864.000000	0.007766
3863.000000	0.007750
3862.000000	0.007738
3861.000000	0.007740
3860.000000	0.007753
3859.000000	0.007762
3858.000000	0.007751
3857.000000	0.007714
3856.000000	0.007666
3855.000000	0.007630
3854.000000	0.007630
3853.000000	0.007669
3852.000000	0.007730
3851.000000	0.007792
3850.000000	0.007841
3849.000000	0.007869
3848.000000	0.007872
3847.000000	0.007849
3846.000000	0.007808
3845.000000	0.007765
3844.000000	0.007736
3843.000000	0.007727
3842.000000	0.007735
3841.000000	0.007749
3840.000000	0.007762
3839.000000	0.007768
3838.000000	0.007767
3837.000000	0.007759
3836.000000	0.007743
3835.000000	0.007723
3834.000000	0.007707
3833.000000	0.007705
3832.000000	0.007713
3831.000000	0.007726
3830.000000	0.007738
3829.000000	0.007747
3828.000000	0.007758
3827.000000	0.007770
3826.000000	0.007777
3825.000000	0.007776
3824.000000	0.007769
3823.000000	0.007758
3822.000000	0.007743
3821.000000	0.007723
3820.000000	0.007710
3819.000000	0.007716
3818.000000	0.007744
3817.000000	0.007784
3816.000000	0.007817
3815.000000	0.007824
3814.000000	0.007809
3813.000000	0.007782
3812.000000	0.007758
3811.000000	0.007743
3810.000000	0.007736
3809.000000	0.007741
3808.000000	0.007764
3807.000000	0.007805
3806.000000	0.007855
3805.000000	0.007898
3804.000000	0.007919
3803.000000	0.007905
3802.000000	0.007857
3801.000000	0.007803
3800.000000	0.007772
3799.000000	0.007763
3798.000000	0.007755
3797.000000	0.007731
3796.000000	0.007693
3795.000000	0.007660
3794.000000	0.007645
3793.000000	0.007647
3792.000000	0.007661
3791.000000	0.007680
3790.000000	0.007698
3789.000000	0.007709
3788.000000	0.007706
3787.000000	0.007691
3786.000000	0.007670
3785.000000	0.007656
3784.000000	0.007655
3783.000000	0.007671
3782.000000	0.007694
3781.000000	0.007710
3780.000000	0.007709
3779.000000	0.007694
3778.000000	0.007681
3777.000000	0.007677
3776.000000	0.007680
3775.000000	0.007683
3774.000000	0.007682
3773.000000	0.007676
3772.000000	0.007666
3771.000000	0.007655
3770.000000	0.007647
3769.000000	0.007649
3768.000000	0.007658
3767.000000	0.007665
3766.000000	0.007666
3765.000000	0.007665
3764.000000	0.007671
3763.000000	0.007683
3762.000000	0.007694
3761.000000	0.007690
3760.000000	0.007671
3759.000000	0.007649
3758.000000	0.007640
3757.000000	0.007644
3756.000000	0.007654
3755.000000	0.007661
3754.000000	0.007666
3753.000000	0.007673
3752.000000	0.007694
3751.000000	0.007733
3750.000000	0.007775
3749.000000	0.007796
3748.000000	0.007785
3747.000000	0.007762
3746.000000	0.007750
3745.000000	0.007753
3744.000000	0.007752
3743.000000	0.007731
3742.000000	0.007686
3741.000000	0.007630
3740.000000	0.007584
3739.000000	0.007566
3738.000000	0.007587
3737.000000	0.007634
3736.000000	0.007669
3735.000000	0.007657
3734.000000	0.007607
3733.000000	0.007559
3732.000000	0.007545
3731.000000	0.007562
3730.000000	0.007590
3729.000000	0.007609
3728.000000	0.007614
3727.000000	0.007611
3726.000000	0.007610
3725.000000	0.007617
3724.000000	0.007625
3723.000000	0.007620
3722.000000	0.007599
3721.000000	0.007570
3720.000000	0.007545
3719.000000	0.007534
3718.000000	0.007535
3717.000000	0.007541
3716.000000	0.007548
3715.000000	0.007557
3714.000000	0.007582
3713.000000	0.007632
3712.000000	0.007693
3711.000000	0.007739
3710.000000	0.007754
3709.000000	0.007741
3708.000000	0.007712
3707.000000	0.007674
3706.000000	0.007633
3705.000000	0.007591
3704.000000	0.007550
3703.000000	0.007514
3702.000000	0.007492
3701.000000	0.007494
3700.000000	0.007518
3699.000000	0.007552
3698.000000	0.007584
3697.000000	0.007608
3696.000000	0.007627
3695.000000	0.007651
3694.000000	0.007678
3693.000000	0.007694
3692.000000	0.007689
3691.000000	0.007661
3690.000000	0.007629
3689.000000	0.007621
3688.000000	0.007645
3687.000000	0.007684
3686.000000	0.007711
3685.000000	0.007714
3684.000000	0.007697
3683.000000	0.007676
3682.000000	0.007678
3681.000000	0.007724
3680.000000	0.007820
3679.000000	0.007953
3678.000000	0.008091
3677.000000	0.008182
3676.000000	0.008182
3675.000000	0.008115
3674.000000	0.008056
3673.000000	0.008043
3672.000000	0.008057
3671.000000	0.008058
3670.000000	0.008022
3669.000000	0.007967
3668.000000	0.007926
3667.000000	0.007912
3666.000000	0.007915
3665.000000	0.007922
3664.000000	0.007921
3663.000000	0.007908
3662.000000	0.007886
3661.000000	0.007863
3660.000000	0.007842
3659.000000	0.007824
3658.000000	0.007811
3657.000000	0.007811
3656.000000	0.007832
3655.000000	0.007879
3654.000000	0.007943
3653.000000	0.008010
3652.000000	0.008068
3651.000000	0.008104
3650.000000	0.008117
3649.000000	0.008122
3648.000000	0.008133
3647.000000	0.008149
3646.000000	0.008167
3645.000000	0.008184
3644.000000	0.008196
3643.000000	0.008201
3642.000000	0.008202
3641.000000	0.008208
3640.000000	0.008225
3639.000000	0.008253
3638.000000	0.008287
3637.000000	0.008318
3636.000000	0.008341
3635.000000	0.008354
3634.000000	0.008362
3633.000000	0.008377
3632.000000	0.008411
3631.000000	0.008465
3630.000000	0.008526
3629.000000	0.008574
3628.000000	0.008603
3627.000000	0.008624
3626.000000	0.008635
3625.000000	0.008636
3624.000000	0.008627
3623.000000	0.008608
3622.000000	0.008585
3621.000000	0.008572
3620.000000	0.008587
3619.000000	0.008636
3618.000000	0.008704
3617.000000	0.008768
3616.000000	0.008814
3615.000000	0.008845
3614.000000	0.008869
3613.000000	0.008898
3612.000000	0.008946
3611.000000	0.009018
3610.000000	0.009102
3609.000000	0.009168
3608.000000	0.009195
3607.000000	0.009190
3606.000000	0.009176
3605.000000	0.009174
3604.000000	0.009189
3603.000000	0.009217
3602.000000	0.009255
3601.000000	0.009299
3600.000000	0.009346
3599.000000	0.009390
3598.000000	0.009427
3597.000000	0.009453
3596.000000	0.009473
3595.000000	0.009492
3594.000000	0.009516
3593.000000	0.009547
3592.000000	0.009585
3591.000000	0.009631
3590.000000	0.009684
3589.000000	0.009735
3588.000000	0.009776
3587.000000	0.009808
3586.000000	0.009840
3585.000000	0.009876
3584.000000	0.009909
3583.000000	0.009939
3582.000000	0.009971
3581.000000	0.010007
3580.000000	0.010052
3579.000000	0.010107
3578.000000	0.010176
3577.000000	0.010252
3576.000000	0.010326
3575.000000	0.010393
3574.000000	0.010447
3573.000000	0.010488
3572.000000	0.010517
3571.000000	0.010540
3570.000000	0.010575
3569.000000	0.010631
3568.000000	0.010694
3567.000000	0.010744
3566.000000	0.010775
3565.000000	0.010801
3564.000000	0.010831
3563.000000	0.010867
3562.000000	0.010909
3561.000000	0.010954
3560.000000	0.010999
3559.000000	0.011046
3558.000000	0.011099
3557.000000	0.011160
3556.000000	0.011231
3555.000000	0.011307
3554.000000	0.011379
3553.000000	0.011437
3552.000000	0.011475
3551.000000	0.011499
3550.000000	0.011519
3549.000000	0.011545
3548.000000	0.011585
3547.000000	0.011646
3546.000000	0.011726
3545.000000	0.011810
3544.000000	0.011878
3543.000000	0.011918
3542.000000	0.011934
3541.000000	0.011942
3540.000000	0.011954
3539.000000	0.011979
3538.000000	0.012023
3537.000000	0.012091
3536.000000	0.012171
3535.000000	0.012247
3534.000000	0.012302
3533.000000	0.012333
3532.000000	0.012349
3531.000000	0.012363
3530.000000	0.012391
3529.000000	0.012445
3528.000000	0.012523
3527.000000	0.012610
3526.000000	0.012684
3525.000000	0.012731
3524.000000	0.012748
3523.000000	0.012752
3522.000000	0.012766
3521.000000	0.012813
3520.000000	0.012895
3519.000000	0.012993
3518.000000	0.013081
3517.000000	0.013136
3516.000000	0.013154
3515.000000	0.013150
3514.000000	0.013144
3513.000000	0.013159
3512.000000	0.013205
3511.000000	0.013278
3510.000000	0.013362
3509.000000	0.013442
3508.000000	0.013507
3507.000000	0.013558
3506.000000	0.013604
3505.000000	0.013648
3504.000000	0.013687
3503.000000	0.013710
3502.000000	0.013717
3501.000000	0.013723
3500.000000	0.013744
3499.000000	0.013785
3498.000000	0.013836
3497.000000	0.013883
3496.000000	0.013923
3495.000000	0.013962
3494.000000	0.014006
3493.000000	0.014052
3492.000000	0.014091
3491.000000	0.014122
3490.000000	0.014152
3489.000000	0.014188
3488.000000	0.014232
3487.000000	0.014285
3486.000000	0.014343
3485.000000	0.014401
3484.000000	0.014450
3483.000000	0.014486
3482.000000	0.014515
3481.000000	0.014547
3480.000000	0.014586
3479.000000	0.014629
3478.000000	0.014671
3477.000000	0.014710
3476.000000	0.014746
3475.000000	0.014781
3474.000000	0.014816
3473.000000	0.014855
3472.000000	0.014898
3471.000000	0.014946
3470.000000	0.015000
3469.000000	0.015061
3468.000000	0.015124
3467.000000	0.015178
3466.000000	0.015222
3465.000000	0.015259
3464.000000	0.015300
3463.000000	0.015348
3462.000000	0.015397
3461.000000	0.015433
3460.000000	0.015452
3459.000000	0.015462
3458.000000	0.015483
3457.000000	0.015527
3456.000000	0.015588
3455.000000	0.015646
3454.000000	0.015685
3453.000000	0.015708
3452.000000	0.015724
3451.000000	0.015746
3450.000000	0.015784
3449.000000	0.015838
3448.000000	0.015899
3447.000000	0.015956
3446.000000	0.016005
3445.000000	0.016052
3444.000000	0.016102
3443.000000	0.016151
3442.000000	0.016189
3441.000000	0.016215
3440.000000	0.016236
3439.000000	0.016259
3438.000000	0.016286
3437.000000	0.016316
3436.000000	0.016352
3435.000000	0.016398
3434.000000	0.016455
3433.000000	0.016516
3432.000000	0.016575
3431.000000	0.016631
3430.000000	0.016686
3429.000000	0.016737
3428.000000	0.016776
3427.000000	0.016797
3426.000000	0.016807
3425.000000	0.016826
3424.000000	0.016868
3423.000000	0.016933
3422.000000	0.017006
3421.000000	0.017074
3420.000000	0.017132
3419.000000	0.017176
3418.000000	0.017206
3417.000000	0.017227
3416.000000	0.017252
3415.000000	0.017286
3414.000000	0.017326
3413.000000	0.017364
3412.000000	0.017396
3411.000000	0.017423
3410.000000	0.017458
3409.000000	0.017506
3408.000000	0.017567
3407.000000	0.017628
3406.000000	0.017677
3405.000000	0.017712
3404.000000	0.017740
3403.000000	0.017770
3402.000000	0.017799
3401.000000	0.017824
3400.000000	0.017852
3399.000000	0.017895
3398.000000	0.017959
3397.000000	0.018031
3396.000000	0.018096
3395.000000	0.018146
3394.000000	0.018183
3393.000000	0.018216
3392.000000	0.018248
3391.000000	0.018282
3390.000000	0.018310
3389.000000	0.018330
3388.000000	0.018345
3387.000000	0.018364
3386.000000	0.018398
3385.000000	0.018452
3384.000000	0.018521
3383.000000	0.018597
3382.000000	0.018663
3381.000000	0.018703
3380.000000	0.018717
3379.000000	0.018724
3378.000000	0.018749
3377.000000	0.018801
3376.000000	0.018871
3375.000000	0.018944
3374.000000	0.019010
3373.000000	0.019071
3372.000000	0.019125
3371.000000	0.019171
3370.000000	0.019211
3369.000000	0.019253
3368.000000	0.019303
3367.000000	0.019358
3366.000000	0.019410
3365.000000	0.019455
3364.000000	0.019494
3363.000000	0.019538
3362.000000	0.019596
3361.000000	0.019672
3360.000000	0.019757
3359.000000	0.019838
3358.000000	0.019903
3357.000000	0.019953
3356.000000	0.019996
3355.000000	0.020042
3354.000000	0.020096
3353.000000	0.020157
3352.000000	0.020218
3351.000000	0.020277
3350.000000	0.020337
3349.000000	0.020403
3348.000000	0.020482
3347.000000	0.020572
3346.000000	0.020664
3345.000000	0.020742
3344.000000	0.020799
3343.000000	0.020841
3342.000000	0.020882
3341.000000	0.020932
3340.000000	0.020995
3339.000000	0.021064
3338.000000	0.021132
3337.000000	0.021190
3336.000000	0.021236
3335.000000	0.021280
3334.000000	0.021334
3333.000000	0.021400
3332.000000	0.021468
3331.000000	0.021529
3330.000000	0.021583
3329.000000	0.021637
3328.000000	0.021692
3327.000000	0.021743
3326.000000	0.021787
3325.000000	0.021831
3324.000000	0.021881
3323.000000	0.021938
3322.000000	0.021993
3321.000000	0.022039
3320.000000	0.022077
3319.000000	0.022118
3318.000000	0.022173
3317.000000	0.022246
3316.000000	0.022329
3315.000000	0.022410
3314.000000	0.022477
3313.000000	0.022524
3312.000000	0.022555
3311.000000	0.022577
3310.000000	0.022590
3309.000000	0.022592
3308.000000	0.022581
3307.000000	0.022572
3306.000000	0.022591
3305.000000	0.022651
3304.000000	0.022743
3303.000000	0.022837
3302.000000	0.022910
3301.000000	0.022952
3300.000000	0.022965
3299.000000	0.022960
3298.000000	0.022949
3297.000000	0.022941
3296.000000	0.022947
3295.000000	0.022970
3294.000000	0.023010
3293.000000	0.023056
3292.000000	0.023095
3291.000000	0.023123
3290.000000	0.023149
3289.000000	0.023176
3288.000000	0.023206
3287.000000	0.023230
3286.000000	0.023241
3285.000000	0.023231
3284.000000	0.023198
3283.000000	0.023151
3282.000000	0.023109
3281.000000	0.023088
3280.000000	0.023085
3279.000000	0.023086
3278.000000	0.023081
3277.000000	0.023069
3276.000000	0.023055
3275.000000	0.023036
3274.000000	0.023005
3273.000000	0.022958
3272.000000	0.022901
3271.000000	0.022848
3270.000000	0.022815
3269.000000	0.022805
3268.000000	0.022806
3267.000000	0.022800
3266.000000	0.022778
3265.000000	0.022749
3264.000000	0.022721
3263.000000	0.022695
3262.000000	0.022660
3261.000000	0.022606
3260.000000	0.022536
3259.000000	0.022464
3258.000000	0.022408
3257.000000	0.022373
3256.000000	0.022353
3255.000000	0.022327
3254.000000	0.022283
3253.000000	0.022223
3252.000000	0.022159
3251.000000	0.022104
3250.000000	0.022057
3249.000000	0.022012
3248.000000	0.021959
3247.000000	0.021898
3246.000000	0.021834
3245.000000	0.021780
3244.000000	0.021744
3243.000000	0.021723
3242.000000	0.021701
3241.000000	0.021661
3240.000000	0.021603
3239.000000	0.021542
3238.000000	0.021496
3237.000000	0.021466
3236.000000	0.021445
3235.000000	0.021423
3234.000000	0.021396
3233.000000	0.021362
3232.000000	0.021321
3231.000000	0.021276
3230.000000	0.021234
3229.000000	0.021198
3228.000000	0.021167
3227.000000	0.021136
3226.000000	0.021105
3225.000000	0.021073
3224.000000	0.021037
3223.000000	0.020999
3222.000000	0.020966
3221.000000	0.020943
3220.000000	0.020929
3219.000000	0.020913
3218.000000	0.020887
3217.000000	0.020850
3216.000000	0.020803
3215.000000	0.020753
3214.000000	0.020709
3213.000000	0.020677
3212.000000	0.020655
3211.000000	0.020635
3210.000000	0.020610
3209.000000	0.020578
3208.000000	0.020545
3207.000000	0.020523
3206.000000	0.020516
3205.000000	0.020519
3204.000000	0.020512
3203.000000	0.020477
3202.000000	0.020413
3201.000000	0.020339
3200.000000	0.020278
3199.000000	0.020234
3198.000000	0.020194
3197.000000	0.020147
3196.000000	0.020089
3195.000000	0.020030
3194.000000	0.019984
3193.000000	0.019959
3192.000000	0.019944
3191.000000	0.019920
3190.000000	0.019873
3189.000000	0.019813
3188.000000	0.019765
3187.000000	0.019745
3186.000000	0.019740
3185.000000	0.019723
3184.000000	0.019679
3183.000000	0.019614
3182.000000	0.019546
3181.000000	0.019488
3180.000000	0.019441
3179.000000	0.019400
3178.000000	0.019351
3177.000000	0.019287
3176.000000	0.019212
3175.000000	0.019140
3174.000000	0.019084
3173.000000	0.019042
3172.000000	0.019009
3171.000000	0.018981
3170.000000	0.018960
3169.000000	0.018942
3168.000000	0.018917
3167.000000	0.018879
3166.000000	0.018825
3165.000000	0.018763
3164.000000	0.018699
3163.000000	0.018639
3162.000000	0.018588
3161.000000	0.018548
3160.000000	0.018518
3159.000000	0.018491
3158.000000	0.018458
3157.000000	0.018409
3156.000000	0.018342
3155.000000	0.018263
3154.000000	0.018190
3153.000000	0.018135
3152.000000	0.018103
3151.000000	0.018084
3150.000000	0.018058
3149.000000	0.018011
3148.000000	0.017941
3147.000000	0.017866
3146.000000	0.017812
3145.000000	0.017786
3144.000000	0.017772
3143.000000	0.017747
3142.000000	0.017707
3141.000000	0.017666
3140.000000	0.017638
3139.000000	0.017621
3138.000000	0.017606
3137.000000	0.017584
3136.000000	0.017555
3135.000000	0.017522
3134.000000	0.017483
3133.000000	0.017435
3132.000000	0.017382
3131.000000	0.017336
3130.000000	0.017309
3129.000000	0.017299
3128.000000	0.017291
3127.000000	0.017273
3126.000000	0.017242
3125.000000	0.017211
3124.000000	0.017186
3123.000000	0.017170
3122.000000	0.017157
3121.000000	0.017148
3120.000000	0.017144
3119.000000	0.017145
3118.000000	0.017142
3117.000000	0.017129
3116.000000	0.017110
3115.000000	0.017093
3114.000000	0.017084
3113.000000	0.017079
3112.000000	0.017075
3111.000000	0.017074
3110.000000	0.017080
3109.000000	0.017091
3108.000000	0.017099
3107.000000	0.017101
3106.000000	0.017100
3105.000000	0.017103
3104.000000	0.017111
3103.000000	0.017118
3102.000000	0.017117
3101.000000	0.017102
3100.000000	0.017080
3099.000000	0.017065
3098.000000	0.017072
3097.000000	0.017103
3096.000000	0.017147
3095.000000	0.017184
3094.000000	0.017205
3093.000000	0.017204
3092.000000	0.017188
3091.000000	0.017171
3090.000000	0.017169
3089.000000	0.017191
3088.000000	0.017229
3087.000000	0.017262
3086.000000	0.017271
3085.000000	0.017253
3084.000000	0.017224
3083.000000	0.017205
3082.000000	0.017207
3081.000000	0.017228
3080.000000	0.017257
3079.000000	0.017287
3078.000000	0.017312
3077.000000	0.017329
3076.000000	0.017334
3075.000000	0.017329
3074.000000	0.017320
3073.000000	0.017313
3072.000000	0.017310
3071.000000	0.017306
3070.000000	0.017298
3069.000000	0.017284
3068.000000	0.017266
3067.000000	0.017249
3066.000000	0.017235
3065.000000	0.017226
3064.000000	0.017219
3063.000000	0.017213
3062.000000	0.017206
3061.000000	0.017192
3060.000000	0.017165
3059.000000	0.017124
3058.000000	0.017079
3057.000000	0.017040
3056.000000	0.017014
3055.000000	0.016998
3054.000000	0.016986
3053.000000	0.016971
3052.000000	0.016948
3051.000000	0.016917
3050.000000	0.016880
3049.000000	0.016834
3048.000000	0.016777
3047.000000	0.016712
3046.000000	0.016649
3045.000000	0.016601
3044.000000	0.016569
3043.000000	0.016541
3042.000000	0.016507
3041.000000	0.016463
3040.000000	0.016416
3039.000000	0.016376
3038.000000	0.016350
3037.000000	0.016331
3036.000000	0.016311
3035.000000	0.016276
3034.000000	0.016221
3033.000000	0.016152
3032.000000	0.016084
3031.000000	0.016036
3030.000000	0.016014
3029.000000	0.016007
3028.000000	0.015996
3027.000000	0.015967
3026.000000	0.015918
3025.000000	0.015861
3024.000000	0.015809
3023.000000	0.015776
3022.000000	0.015763
3021.000000	0.015763
3020.000000	0.015762
3019.000000	0.015748
3018.000000	0.015717
3017.000000	0.015668
3016.000000	0.015610
3015.000000	0.015558
3014.000000	0.015530
3013.000000	0.015528
3012.000000	0.015539
3011.000000	0.015545
3010.000000	0.015541
3009.000000	0.015536
3008.000000	0.015539
3007.000000	0.015549
3006.000000	0.015557
3005.000000	0.015553
3004.000000	0.015542
3003.000000	0.015531
3002.000000	0.015529
3001.000000	0.015538
3000.000000	0.015550
2999.000000	0.015560
2998.000000	0.015568
2997.000000	0.015581
2996.000000	0.015601
2995.000000	0.015630
2994.000000	0.015667
2993.000000	0.015708
2992.000000	0.015750
2991.000000	0.015790
2990.000000	0.015837
2989.000000	0.015897
2988.000000	0.015970
2987.000000	0.016048
2986.000000	0.016124
2985.000000	0.016202
2984.000000	0.016289
2983.000000	0.016385
2982.000000	0.016488
2981.000000	0.016591
2980.000000	0.016693
2979.000000	0.016794
2978.000000	0.016890
2977.000000	0.016982
2976.000000	0.017076
2975.000000	0.017175
2974.000000	0.017283
2973.000000	0.017400
2972.000000	0.017530
2971.000000	0.017679
2970.000000	0.017851
2969.000000	0.018050
2968.000000	0.018270
2967.000000	0.018498
2966.000000	0.018714
2965.000000	0.018908
2964.000000	0.019085
2963.000000	0.019254
2962.000000	0.019418
2961.000000	0.019566
2960.000000	0.019687
2959.000000	0.019784
2958.000000	0.019865
2957.000000	0.019936
2956.000000	0.019991
2955.000000	0.020023
2954.000000	0.020031
2953.000000	0.020025
2952.000000	0.020012
2951.000000	0.019997
2950.000000	0.019986
2949.000000	0.019988
2948.000000	0.020018
2947.000000	0.020081
2946.000000	0.020170
2945.000000	0.020278
2944.000000	0.020412
2943.000000	0.020585
2942.000000	0.020800
2941.000000	0.021041
2940.000000	0.021288
2939.000000	0.021544
2938.000000	0.021824
2937.000000	0.022138
2936.000000	0.022476
2935.000000	0.022824
2934.000000	0.023177
2933.000000	0.023545
2932.000000	0.023941
2931.000000	0.024364
2930.000000	0.024788
2929.000000	0.025185
2928.000000	0.025540
2927.000000	0.025865
2926.000000	0.026183
2925.000000	0.026500
2924.000000	0.026799
2923.000000	0.027052
2922.000000	0.027234
2921.000000	0.027336
2920.000000	0.027355
2919.000000	0.027288
2918.000000	0.027122
2917.000000	0.026837
2916.000000	0.026429
2915.000000	0.025916
2914.000000	0.025339
2913.000000	0.024738
2912.000000	0.024144
2911.000000	0.023582
2910.000000	0.023075
2909.000000	0.022639
2908.000000	0.022272
2907.000000	0.021956
2906.000000	0.021673
2905.000000	0.021412
2904.000000	0.021173
2903.000000	0.020957
2902.000000	0.020760
2901.000000	0.020574
2900.000000	0.020396
2899.000000	0.020232
2898.000000	0.020091
2897.000000	0.019966
2896.000000	0.019843
2895.000000	0.019707
2894.000000	0.019560
2893.000000	0.019413
2892.000000	0.019274
2891.000000	0.019147
2890.000000	0.019027
2889.000000	0.018914
2888.000000	0.018811
2887.000000	0.018725
2886.000000	0.018662
2885.000000	0.018618
2884.000000	0.018585
2883.000000	0.018555
2882.000000	0.018533
2881.000000	0.018522
2880.000000	0.018521
2879.000000	0.018526
2878.000000	0.018539
2877.000000	0.018560
2876.000000	0.018591
2875.000000	0.018627
2874.000000	0.018660
2873.000000	0.018680
2872.000000	0.018682
2871.000000	0.018667
2870.000000	0.018648
2869.000000	0.018635
2868.000000	0.018631
2867.000000	0.018631
2866.000000	0.018635
2865.000000	0.018658
2864.000000	0.018716
2863.000000	0.018823
2862.000000	0.018982
2861.000000	0.019190
2860.000000	0.019438
2859.000000	0.019716
2858.000000	0.020015
2857.000000	0.020331
2856.000000	0.020662
2855.000000	0.021002
2854.000000	0.021337
2853.000000	0.021636
2852.000000	0.021854
2851.000000	0.021936
2850.000000	0.021836
2849.000000	0.021537
2848.000000	0.021066
2847.000000	0.020485
2846.000000	0.019865
2845.000000	0.019265
2844.000000	0.018719
2843.000000	0.018241
2842.000000	0.017832
2841.000000	0.017490
2840.000000	0.017207
2839.000000	0.016972
2838.000000	0.016770
2837.000000	0.016591
2836.000000	0.016431
2835.000000	0.016291
2834.000000	0.016170
2833.000000	0.016068
2832.000000	0.015980
2831.000000	0.015899
2830.000000	0.015817
2829.000000	0.015731
2828.000000	0.015641
2827.000000	0.015554
2826.000000	0.015479
2825.000000	0.015419
2824.000000	0.015374
2823.000000	0.015333
2822.000000	0.015284
2821.000000	0.015223
2820.000000	0.015156
2819.000000	0.015094
2818.000000	0.015042
2817.000000	0.014997
2816.000000	0.014953
2815.000000	0.014906
2814.000000	0.014855
2813.000000	0.014800
2812.000000	0.014749
2811.000000	0.014709
2810.000000	0.014678
2809.000000	0.014650
2808.000000	0.014621
2807.000000	0.014591
2806.000000	0.014561
2805.000000	0.014534
2804.000000	0.014510
2803.000000	0.014491
2802.000000	0.014467
2801.000000	0.014423
2800.000000	0.014363
2799.000000	0.014307
2798.000000	0.014279
2797.000000	0.014278
2796.000000	0.014284
2795.000000	0.014278
2794.000000	0.014257
2793.000000	0.014226
2792.000000	0.014193
2791.000000	0.014165
2790.000000	0.014143
2789.000000	0.014123
2788.000000	0.014098
2787.000000	0.014066
2786.000000	0.014035
2785.000000	0.014012
2784.000000	0.013998
2783.000000	0.013987
2782.000000	0.013974
2781.000000	0.013956
2780.000000	0.013932
2779.000000	0.013907
2778.000000	0.013885
2777.000000	0.013867
2776.000000	0.013848
2775.000000	0.013826
2774.000000	0.013804
2773.000000	0.013785
2772.000000	0.013769
2771.000000	0.013752
2770.000000	0.013730
2769.000000	0.013703
2768.000000	0.013677
2767.000000	0.013655
2766.000000	0.013635
2765.000000	0.013616
2764.000000	0.013595
2763.000000	0.013575
2762.000000	0.013560
2761.000000	0.013544
2760.000000	0.013520
2759.000000	0.013490
2758.000000	0.013471
2757.000000	0.013473
2756.000000	0.013488
2755.000000	0.013496
2754.000000	0.013480
2753.000000	0.013443
2752.000000	0.013400
2751.000000	0.013367
2750.000000	0.013349
2749.000000	0.013345
2748.000000	0.013346
2747.000000	0.013341
2746.000000	0.013322
2745.000000	0.013286
2744.000000	0.013245
2743.000000	0.013215
2742.000000	0.013206
2741.000000	0.013217
2740.000000	0.013238
2739.000000	0.013256
2738.000000	0.013265
2737.000000	0.013264
2736.000000	0.013256
2735.000000	0.013241
2734.000000	0.013216
2733.000000	0.013181
2732.000000	0.013143
2731.000000	0.013115
2730.000000	0.013108
2729.000000	0.013120
2728.000000	0.013136
2727.000000	0.013140
2726.000000	0.013124
2725.000000	0.013093
2724.000000	0.013060
2723.000000	0.013042
2722.000000	0.013038
2721.000000	0.013034
2720.000000	0.013017
2719.000000	0.012987
2718.000000	0.012958
2717.000000	0.012938
2716.000000	0.012927
2715.000000	0.012917
2714.000000	0.012899
2713.000000	0.012874
2712.000000	0.012845
2711.000000	0.012821
2710.000000	0.012808
2709.000000	0.012809
2708.000000	0.012813
2707.000000	0.012810
2706.000000	0.012796
2705.000000	0.012774
2704.000000	0.012752
2703.000000	0.012740
2702.000000	0.012740
2701.000000	0.012744
2700.000000	0.012741
2699.000000	0.012727
2698.000000	0.012709
2697.000000	0.012693
2696.000000	0.012678
2695.000000	0.012665
2694.000000	0.012657
2693.000000	0.012656
2692.000000	0.012658
2691.000000	0.012658
2690.000000	0.012657
2689.000000	0.012657
2688.000000	0.012660
2687.000000	0.012661
2686.000000	0.012660
2685.000000	0.012656
2684.000000	0.012651
2683.000000	0.012646
2682.000000	0.012639
2681.000000	0.012629
2680.000000	0.012619
2679.000000	0.012613
2678.000000	0.012611
2677.000000	0.012609
2676.000000	0.012604
2675.000000	0.012598
2674.000000	0.012587
2673.000000	0.012567
2672.000000	0.012538
2671.000000	0.012516
2670.000000	0.012513
2669.000000	0.012528
2668.000000	0.012540
2667.000000	0.012538
2666.000000	0.012528
2665.000000	0.012520
2664.000000	0.012517
2663.000000	0.012512
2662.000000	0.012503
2661.000000	0.012494
2660.000000	0.012485
2659.000000	0.012474
2658.000000	0.012455
2657.000000	0.012427
2656.000000	0.012394
2655.000000	0.012361
2654.000000	0.012338
2653.000000	0.012325
2652.000000	0.012316
2651.000000	0.012304
2650.000000	0.012291
2649.000000	0.012283
2648.000000	0.012275
2647.000000	0.012257
2646.000000	0.012222
2645.000000	0.012169
2644.000000	0.012109
2643.000000	0.012052
2642.000000	0.012010
2641.000000	0.011986
2640.000000	0.011977
2639.000000	0.011974
2638.000000	0.011966
2637.000000	0.011942
2636.000000	0.011899
2635.000000	0.011852
2634.000000	0.011820
2633.000000	0.011809
2632.000000	0.011804
2631.000000	0.011793
2630.000000	0.011775
2629.000000	0.011764
2628.000000	0.011766
2627.000000	0.011772
2626.000000	0.011766
2625.000000	0.011739
2624.000000	0.011699
2623.000000	0.011655
2622.000000	0.011615
2621.000000	0.011582
2620.000000	0.011557
2619.000000	0.011541
2618.000000	0.011531
2617.000000	0.011515
2616.000000	0.011485
2615.000000	0.011446
2614.000000	0.011416
2613.000000	0.011398
2612.000000	0.011388
2611.000000	0.011381
2610.000000	0.011381
2609.000000	0.011385
2608.000000	0.011381
2607.000000	0.011362
2606.000000	0.011337
2605.000000	0.011315
2604.000000	0.011294
2603.000000	0.011268
2602.000000	0.011245
2601.000000	0.011235
2600.000000	0.011236
2599.000000	0.011231
2598.000000	0.011212
2597.000000	0.011183
2596.000000	0.011161
2595.000000	0.011155
2594.000000	0.011165
2593.000000	0.011175
2592.000000	0.011171
2591.000000	0.011155
2590.000000	0.011142
2589.000000	0.011143
2588.000000	0.011146
2587.000000	0.011133
2586.000000	0.011103
2585.000000	0.011075
2584.000000	0.011063
2583.000000	0.011065
2582.000000	0.011066
2581.000000	0.011056
2580.000000	0.011034
2579.000000	0.011009
2578.000000	0.010994
2577.000000	0.010995
2576.000000	0.011006
2575.000000	0.011012
2574.000000	0.011002
2573.000000	0.010979
2572.000000	0.010955
2571.000000	0.010940
2570.000000	0.010933
2569.000000	0.010924
2568.000000	0.010909
2567.000000	0.010889
2566.000000	0.010869
2565.000000	0.010846
2564.000000	0.010817
2563.000000	0.010789
2562.000000	0.010770
2561.000000	0.010758
2560.000000	0.010743
2559.000000	0.010729
2558.000000	0.010725
2557.000000	0.010731
2556.000000	0.010734
2555.000000	0.010727
2554.000000	0.010723
2553.000000	0.010736
2552.000000	0.010756
2551.000000	0.010763
2550.000000	0.010750
2549.000000	0.010729
2548.000000	0.010703
2547.000000	0.010669
2546.000000	0.010629
2545.000000	0.010598
2544.000000	0.010596
2543.000000	0.010621
2542.000000	0.010654
2541.000000	0.010674
2540.000000	0.010672
2539.000000	0.010666
2538.000000	0.010674
2537.000000	0.010697
2536.000000	0.010710
2535.000000	0.010696
2534.000000	0.010659
2533.000000	0.010621
2532.000000	0.010601
2531.000000	0.010602
2530.000000	0.010613
2529.000000	0.010614
2528.000000	0.010589
2527.000000	0.010549
2526.000000	0.010526
2525.000000	0.010547
2524.000000	0.010607
2523.000000	0.010673
2522.000000	0.010704
2521.000000	0.010682
2520.000000	0.010611
2519.000000	0.010522
2518.000000	0.010452
2517.000000	0.010425
2516.000000	0.010441
2515.000000	0.010483
2514.000000	0.010525
2513.000000	0.010546
2512.000000	0.010545
2511.000000	0.010539
2510.000000	0.010553
2509.000000	0.010587
2508.000000	0.010613
2507.000000	0.010607
2506.000000	0.010572
2505.000000	0.010533
2504.000000	0.010509
2503.000000	0.010505
2502.000000	0.010512
2501.000000	0.010516
2500.000000	0.010508
2499.000000	0.010492
2498.000000	0.010480
2497.000000	0.010475
2496.000000	0.010458
2495.000000	0.010416
2494.000000	0.010359
2493.000000	0.010312
2492.000000	0.010289
2491.000000	0.010291
2490.000000	0.010317
2489.000000	0.010356
2488.000000	0.010390
2487.000000	0.010396
2486.000000	0.010366
2485.000000	0.010319
2484.000000	0.010282
2483.000000	0.010273
2482.000000	0.010286
2481.000000	0.010296
2480.000000	0.010287
2479.000000	0.010268
2478.000000	0.010265
2477.000000	0.010287
2476.000000	0.010325
2475.000000	0.010369
2474.000000	0.010411
2473.000000	0.010436
2472.000000	0.010424
2471.000000	0.010371
2470.000000	0.010302
2469.000000	0.010250
2468.000000	0.010222
2467.000000	0.010213
2466.000000	0.010214
2465.000000	0.010216
2464.000000	0.010205
2463.000000	0.010180
2462.000000	0.010163
2461.000000	0.010172
2460.000000	0.010205
2459.000000	0.010246
2458.000000	0.010286
2457.000000	0.010313
2456.000000	0.010308
2455.000000	0.010263
2454.000000	0.010198
2453.000000	0.010146
2452.000000	0.010124
2451.000000	0.010125
2450.000000	0.010139
2449.000000	0.010161
2448.000000	0.010182
2447.000000	0.010195
2446.000000	0.010200
2445.000000	0.010201
2444.000000	0.010194
2443.000000	0.010177
2442.000000	0.010159
2441.000000	0.010150
2440.000000	0.010142
2439.000000	0.010121
2438.000000	0.010086
2437.000000	0.010052
2436.000000	0.010033
2435.000000	0.010037
2434.000000	0.010065
2433.000000	0.010114
2432.000000	0.010169
2431.000000	0.010207
2430.000000	0.010214
2429.000000	0.010189
2428.000000	0.010142
2427.000000	0.010090
2426.000000	0.010050
2425.000000	0.010025
2424.000000	0.010003
2423.000000	0.009975
2422.000000	0.009949
2421.000000	0.009944
2420.000000	0.009962
2419.000000	0.009989
2418.000000	0.010009
2417.000000	0.010012
2416.000000	0.010001
2415.000000	0.009984
2414.000000	0.009975
2413.000000	0.009981
2412.000000	0.009998
2411.000000	0.010014
2410.000000	0.010022
2409.000000	0.010021
2408.000000	0.010011
2407.000000	0.009993
2406.000000	0.009968
2405.000000	0.009941
2404.000000	0.009918
2403.000000	0.009913
2402.000000	0.009937
2401.000000	0.009984
2400.000000	0.010023
2399.000000	0.010031
2398.000000	0.010012
2397.000000	0.009984
2396.000000	0.009968
2395.000000	0.009976
2394.000000	0.010011
2393.000000	0.010052
2392.000000	0.010068
2391.000000	0.010044
2390.000000	0.010000
2389.000000	0.009970
2388.000000	0.009968
2387.000000	0.009980
2386.000000	0.009986
2385.000000	0.009970
2384.000000	0.009923
2383.000000	0.009850
2382.000000	0.009765
2381.000000	0.009680
2380.000000	0.009598
2379.000000	0.009539
2378.000000	0.009537
2377.000000	0.009601
2376.000000	0.009696
2375.000000	0.009774
2374.000000	0.009815
2373.000000	0.009826
2372.000000	0.009807
2371.000000	0.009758
2370.000000	0.009694
2369.000000	0.009634
2368.000000	0.009590
2367.000000	0.009582
2366.000000	0.009629
2365.000000	0.009724
2364.000000	0.009822
2363.000000	0.009897
2362.000000	0.009957
2361.000000	0.009991
2360.000000	0.009970
2359.000000	0.009888
2358.000000	0.009789
2357.000000	0.009724
2356.000000	0.009725
2355.000000	0.009791
2354.000000	0.009841
2353.000000	0.009804
2352.000000	0.009716
2351.000000	0.009680
2350.000000	0.009733
2349.000000	0.009836
2348.000000	0.009913
2347.000000	0.009902
2346.000000	0.009827
2345.000000	0.009797
2344.000000	0.009857
2343.000000	0.009941
2342.000000	0.009974
2341.000000	0.009952
2340.000000	0.009926
2339.000000	0.009926
2338.000000	0.009932
2337.000000	0.009908
2336.000000	0.009847
2335.000000	0.009759
2334.000000	0.009649
2333.000000	0.009533
2332.000000	0.009465
2331.000000	0.009481
2330.000000	0.009567
2329.000000	0.009678
2328.000000	0.009795
2327.000000	0.009903
2326.000000	0.009976
2325.000000	0.009991
2324.000000	0.009952
2323.000000	0.009886
2322.000000	0.009838
2321.000000	0.009857
2320.000000	0.009960
2319.000000	0.010097
2318.000000	0.010194
2317.000000	0.010208
2316.000000	0.010156
2315.000000	0.010077
2314.000000	0.010003
2313.000000	0.009943
2312.000000	0.009897
2311.000000	0.009851
2310.000000	0.009802
2309.000000	0.009755
2308.000000	0.009719
2307.000000	0.009687
2306.000000	0.009653
2305.000000	0.009621
2304.000000	0.009603
2303.000000	0.009600
2302.000000	0.009608
2301.000000	0.009627
2300.000000	0.009660
2299.000000	0.009692
2298.000000	0.009707
2297.000000	0.009698
2296.000000	0.009683
2295.000000	0.009679
2294.000000	0.009693
2293.000000	0.009714
2292.000000	0.009724
2291.000000	0.009705
2290.000000	0.009669
2289.000000	0.009650
2288.000000	0.009679
2287.000000	0.009744
2286.000000	0.009803
2285.000000	0.009822
2284.000000	0.009806
2283.000000	0.009785
2282.000000	0.009779
2281.000000	0.009791
2280.000000	0.009803
2279.000000	0.009792
2278.000000	0.009744
2277.000000	0.009663
2276.000000	0.009579
2275.000000	0.009530
2274.000000	0.009536
2273.000000	0.009576
2272.000000	0.009601
2271.000000	0.009575
2270.000000	0.009512
2269.000000	0.009462
2268.000000	0.009459
2267.000000	0.009486
2266.000000	0.009505
2265.000000	0.009491
2264.000000	0.009449
2263.000000	0.009384
2262.000000	0.009299
2261.000000	0.009216
2260.000000	0.009168
2259.000000	0.009178
2258.000000	0.009224
2257.000000	0.009263
2256.000000	0.009262
2255.000000	0.009222
2254.000000	0.009171
2253.000000	0.009130
2252.000000	0.009108
2251.000000	0.009101
2250.000000	0.009100
2249.000000	0.009092
2248.000000	0.009066
2247.000000	0.009038
2246.000000	0.009044
2245.000000	0.009099
2244.000000	0.009173
2243.000000	0.009208
2242.000000	0.009174
2241.000000	0.009098
2240.000000	0.009035
2239.000000	0.009035
2238.000000	0.009113
2237.000000	0.009242
2236.000000	0.009349
2235.000000	0.009358
2234.000000	0.009251
2233.000000	0.009086
2232.000000	0.008958
2231.000000	0.008929
2230.000000	0.008993
2229.000000	0.009092
2228.000000	0.009159
2227.000000	0.009157
2226.000000	0.009073
2225.000000	0.008927
2224.000000	0.008768
2223.000000	0.008668
2222.000000	0.008669
2221.000000	0.008736
2220.000000	0.008780
2219.000000	0.008748
2218.000000	0.008672
2217.000000	0.008626
2216.000000	0.008650
2215.000000	0.008743
2214.000000	0.008871
2213.000000	0.008981
2212.000000	0.009009
2211.000000	0.008937
2210.000000	0.008815
2209.000000	0.008715
2208.000000	0.008668
2207.000000	0.008675
2206.000000	0.008744
2205.000000	0.008865
2204.000000	0.008985
2203.000000	0.009032
2202.000000	0.008990
2201.000000	0.008911
2200.000000	0.008854
2199.000000	0.008831
2198.000000	0.008811
2197.000000	0.008759
2196.000000	0.008677
2195.000000	0.008617
2194.000000	0.008642
2193.000000	0.008731
2192.000000	0.008784
2191.000000	0.008731
2190.000000	0.008617
2189.000000	0.008529
2188.000000	0.008495
2187.000000	0.008494
2186.000000	0.008550
2185.000000	0.008696
2184.000000	0.008884
2183.000000	0.008998
2182.000000	0.008980
2181.000000	0.008880
2180.000000	0.008774
2179.000000	0.008703
2178.000000	0.008683
2177.000000	0.008716
2176.000000	0.008746
2175.000000	0.008704
2174.000000	0.008587
2173.000000	0.008470
2172.000000	0.008416
2171.000000	0.008423
2170.000000	0.008467
2169.000000	0.008523
2168.000000	0.008549
2167.000000	0.008504
2166.000000	0.008413
2165.000000	0.008364
2164.000000	0.008412
2163.000000	0.008521
2162.000000	0.008600
2161.000000	0.008557
2160.000000	0.008334
2159.000000	0.007971
2158.000000	0.007626
2157.000000	0.007437
2156.000000	0.007387
2155.000000	0.007382
2154.000000	0.007389
2153.000000	0.007437
2152.000000	0.007526
2151.000000	0.007638
2150.000000	0.007800
2149.000000	0.008053
2148.000000	0.008350
2147.000000	0.008566
2146.000000	0.008624
2145.000000	0.008574
2144.000000	0.008526
2143.000000	0.008541
2142.000000	0.008604
2141.000000	0.008634
2140.000000	0.008553
2139.000000	0.008361
2138.000000	0.008152
2137.000000	0.008031
2136.000000	0.008007
2135.000000	0.008027
2134.000000	0.008078
2133.000000	0.008206
2132.000000	0.008419
2131.000000	0.008649
2130.000000	0.008817
2129.000000	0.008898
2128.000000	0.008910
2127.000000	0.008888
2126.000000	0.008869
2125.000000	0.008884
2124.000000	0.008933
2123.000000	0.008984
2122.000000	0.009012
2121.000000	0.009017
2120.000000	0.009003
2119.000000	0.008972
2118.000000	0.008934
2117.000000	0.008911
2116.000000	0.008909
2115.000000	0.008914
2114.000000	0.008920
2113.000000	0.008939
2112.000000	0.008980
2111.000000	0.009031
2110.000000	0.009079
2109.000000	0.009112
2108.000000	0.009100
2107.000000	0.009025
2106.000000	0.008923
2105.000000	0.008875
2104.000000	0.008920
2103.000000	0.009018
2102.000000	0.009101
2101.000000	0.009148
2100.000000	0.009168
2099.000000	0.009152
2098.000000	0.009089
2097.000000	0.008994
2096.000000	0.008903
2095.000000	0.008842
2094.000000	0.008817
2093.000000	0.008829
2092.000000	0.008870
2091.000000	0.008916
2090.000000	0.008942
2089.000000	0.008935
2088.000000	0.008894
2087.000000	0.008818
2086.000000	0.008730
2085.000000	0.008676
2084.000000	0.008676
2083.000000	0.008705
2082.000000	0.008728
2081.000000	0.008745
2080.000000	0.008777
2079.000000	0.008817
2078.000000	0.008833
2077.000000	0.008815
2076.000000	0.008803
2075.000000	0.008834
2074.000000	0.008907
2073.000000	0.008980
2072.000000	0.009010
2071.000000	0.008983
2070.000000	0.008914
2069.000000	0.008829
2068.000000	0.008743
2067.000000	0.008650
2066.000000	0.008534
2065.000000	0.008395
2064.000000	0.008268
2063.000000	0.008207
2062.000000	0.008242
2061.000000	0.008347
2060.000000	0.008455
2059.000000	0.008519
2058.000000	0.008535
2057.000000	0.008521
2056.000000	0.008494
2055.000000	0.008466
2054.000000	0.008465
2053.000000	0.008509
2052.000000	0.008591
2051.000000	0.008691
2050.000000	0.008786
2049.000000	0.008833
2048.000000	0.008767
2047.000000	0.008563
2046.000000	0.008282
2045.000000	0.008019
2044.000000	0.007826
2043.000000	0.007711
2042.000000	0.007679
2041.000000	0.007709
2040.000000	0.007732
2039.000000	0.007697
2038.000000	0.007651
2037.000000	0.007668
2036.000000	0.007719
2035.000000	0.007701
2034.000000	0.007585
2033.000000	0.007458
2032.000000	0.007400
2031.000000	0.007413
2030.000000	0.007489
2029.000000	0.007631
2028.000000	0.007794
2027.000000	0.007901
2026.000000	0.007936
2025.000000	0.007954
2024.000000	0.007976
2023.000000	0.007955
2022.000000	0.007856
2021.000000	0.007720
2020.000000	0.007606
2019.000000	0.007545
2018.000000	0.007561
2017.000000	0.007683
2016.000000	0.007889
2015.000000	0.008089
2014.000000	0.008203
2013.000000	0.008210
2012.000000	0.008130
2011.000000	0.007985
2010.000000	0.007804
2009.000000	0.007622
2008.000000	0.007465
2007.000000	0.007356
2006.000000	0.007334
2005.000000	0.007415
2004.000000	0.007542
2003.000000	0.007646
2002.000000	0.007726
2001.000000	0.007826
2000.000000	0.007945
1999.000000	0.008009
1998.000000	0.007968
1997.000000	0.007863
1996.000000	0.007775
1995.000000	0.007750
1994.000000	0.007775
1993.000000	0.007821
1992.000000	0.007873
1991.000000	0.007938
1990.000000	0.008023
1989.000000	0.008111
1988.000000	0.008162
1987.000000	0.008157
1986.000000	0.008127
1985.000000	0.008121
1984.000000	0.008168
1983.000000	0.008295
1982.000000	0.008525
1981.000000	0.008800
1980.000000	0.008957
1979.000000	0.008847
1978.000000	0.008519
1977.000000	0.008195
1976.000000	0.008044
1975.000000	0.008061
1974.000000	0.008166
1973.000000	0.008285
1972.000000	0.008339
1971.000000	0.008264
1970.000000	0.008075
1969.000000	0.007870
1968.000000	0.007738
1967.000000	0.007706
1966.000000	0.007758
1965.000000	0.007848
1964.000000	0.007907
1963.000000	0.007894
1962.000000	0.007838
1961.000000	0.007798
1960.000000	0.007782
1959.000000	0.007768
1958.000000	0.007765
1957.000000	0.007804
1956.000000	0.007876
1955.000000	0.007950
1954.000000	0.008032
1953.000000	0.008151
1952.000000	0.008294
1951.000000	0.008400
1950.000000	0.008430
1949.000000	0.008386
1948.000000	0.008287
1947.000000	0.008166
1946.000000	0.008078
1945.000000	0.008065
1944.000000	0.008102
1943.000000	0.008134
1942.000000	0.008142
1941.000000	0.008138
1940.000000	0.008120
1939.000000	0.008083
1938.000000	0.008070
1937.000000	0.008125
1936.000000	0.008223
1935.000000	0.008281
1934.000000	0.008269
1933.000000	0.008226
1932.000000	0.008182
1931.000000	0.008118
1930.000000	0.008031
1929.000000	0.007975
1928.000000	0.007999
1927.000000	0.008086
1926.000000	0.008170
1925.000000	0.008200
1924.000000	0.008174
1923.000000	0.008126
1922.000000	0.008107
1921.000000	0.008144
1920.000000	0.008198
1919.000000	0.008202
1918.000000	0.008128
1917.000000	0.008030
1916.000000	0.007984
1915.000000	0.008006
1914.000000	0.008064
1913.000000	0.008120
1912.000000	0.008159
1911.000000	0.008184
1910.000000	0.008210
1909.000000	0.008250
1908.000000	0.008289
1907.000000	0.008298
1906.000000	0.008272
1905.000000	0.008235
1904.000000	0.008215
1903.000000	0.008209
1902.000000	0.008195
1901.000000	0.008161
1900.000000	0.008117
1899.000000	0.008084
1898.000000	0.008082
1897.000000	0.008115
1896.000000	0.008156
1895.000000	0.008172
1894.000000	0.008160
1893.000000	0.008154
1892.000000	0.008180
1891.000000	0.008226
1890.000000	0.008255
1889.000000	0.008243
1888.000000	0.008199
1887.000000	0.008147
1886.000000	0.008110
1885.000000	0.008108
1884.000000	0.008142
1883.000000	0.008189
1882.000000	0.008216
1881.000000	0.008208
1880.000000	0.008178
1879.000000	0.008149
1878.000000	0.008128
1877.000000	0.008110
1876.000000	0.008093
1875.000000	0.008089
1874.000000	0.008104
1873.000000	0.008124
1872.000000	0.008118
1871.000000	0.008064
1870.000000	0.007974
1869.000000	0.007887
1868.000000	0.007846
1867.000000	0.007868
1866.000000	0.007939
1865.000000	0.008028
1864.000000	0.008105
1863.000000	0.008152
1862.000000	0.008169
1861.000000	0.008160
1860.000000	0.008125
1859.000000	0.008075
1858.000000	0.008033
1857.000000	0.008016
1856.000000	0.008013
1855.000000	0.008007
1854.000000	0.007995
1853.000000	0.007986
1852.000000	0.007983
1851.000000	0.007985
1850.000000	0.007987
1849.000000	0.007980
1848.000000	0.007952
1847.000000	0.007908
1846.000000	0.007873
1845.000000	0.007874
1844.000000	0.007901
1843.000000	0.007926
1842.000000	0.007944
1841.000000	0.007960
1840.000000	0.007967
1839.000000	0.007948
1838.000000	0.007912
1837.000000	0.007896
1836.000000	0.007912
1835.000000	0.007935
1834.000000	0.007936
1833.000000	0.007913
1832.000000	0.007878
1831.000000	0.007842
1830.000000	0.007823
1829.000000	0.007836
1828.000000	0.007871
1827.000000	0.007908
1826.000000	0.007936
1825.000000	0.007951
1824.000000	0.007946
1823.000000	0.007920
1822.000000	0.007886
1821.000000	0.007859
1820.000000	0.007838
1819.000000	0.007823
1818.000000	0.007821
1817.000000	0.007837
1816.000000	0.007856
1815.000000	0.007868
1814.000000	0.007877
1813.000000	0.007889
1812.000000	0.007896
1811.000000	0.007891
1810.000000	0.007888
1809.000000	0.007898
1808.000000	0.007914
1807.000000	0.007922
1806.000000	0.007917
1805.000000	0.007907
1804.000000	0.007906
1803.000000	0.007921
1802.000000	0.007958
1801.000000	0.008003
1800.000000	0.008032
1799.000000	0.008043
1798.000000	0.008046
1797.000000	0.008046
1796.000000	0.008032
1795.000000	0.007998
1794.000000	0.007963
1793.000000	0.007943
1792.000000	0.007930
1791.000000	0.007909
1790.000000	0.007884
1789.000000	0.007868
1788.000000	0.007864
1787.000000	0.007857
1786.000000	0.007829
1785.000000	0.007783
1784.000000	0.007739
1783.000000	0.007712
1782.000000	0.007709
1781.000000	0.007720
1780.000000	0.007724
1779.000000	0.007708
1778.000000	0.007684
1777.000000	0.007661
1776.000000	0.007632
1775.000000	0.007582
1774.000000	0.007521
1773.000000	0.007475
1772.000000	0.007461
1771.000000	0.007480
1770.000000	0.007524
1769.000000	0.007579
1768.000000	0.007613
1767.000000	0.007603
1766.000000	0.007573
1765.000000	0.007563
1764.000000	0.007580
1763.000000	0.007596
1762.000000	0.007600
1761.000000	0.007613
1760.000000	0.007647
1759.000000	0.007693
1758.000000	0.007755
1757.000000	0.007849
1756.000000	0.007976
1755.000000	0.008122
1754.000000	0.008295
1753.000000	0.008518
1752.000000	0.008768
1751.000000	0.008978
1750.000000	0.009130
1749.000000	0.009274
1748.000000	0.009426
1747.000000	0.009559
1746.000000	0.009671
1745.000000	0.009787
1744.000000	0.009896
1743.000000	0.009960
1742.000000	0.009986
1741.000000	0.010017
1740.000000	0.010061
1739.000000	0.010077
1738.000000	0.010060
1737.000000	0.010038
1736.000000	0.010024
1735.000000	0.009993
1734.000000	0.009924
1733.000000	0.009873
1732.000000	0.009858
1731.000000	0.009826
1730.000000	0.009757
1729.000000	0.009685
1728.000000	0.009632
1727.000000	0.009577
1726.000000	0.009511
1725.000000	0.009458
1724.000000	0.009429
1723.000000	0.009403
1722.000000	0.009375
1721.000000	0.009369
1720.000000	0.009382
1719.000000	0.009372
1718.000000	0.009325
1717.000000	0.009312
1716.000000	0.009389
1715.000000	0.009519
1714.000000	0.009653
1713.000000	0.009789
1712.000000	0.009942
1711.000000	0.010106
1710.000000	0.010281
1709.000000	0.010483
1708.000000	0.010720
1707.000000	0.010981
1706.000000	0.011263
1705.000000	0.011571
1704.000000	0.011887
1703.000000	0.012199
1702.000000	0.012554
1701.000000	0.013009
1700.000000	0.013489
1699.000000	0.013900
1698.000000	0.014290
1697.000000	0.014764
1696.000000	0.015371
1695.000000	0.016026
1694.000000	0.016633
1693.000000	0.017200
1692.000000	0.017762
1691.000000	0.018323
1690.000000	0.018872
1689.000000	0.019385
1688.000000	0.019837
1687.000000	0.020245
1686.000000	0.020713
1685.000000	0.021371
1684.000000	0.022178
1683.000000	0.022931
1682.000000	0.023565
1681.000000	0.024179
1680.000000	0.024822
1679.000000	0.025460
1678.000000	0.026079
1677.000000	0.026741
1676.000000	0.027484
1675.000000	0.028228
1674.000000	0.028903
1673.000000	0.029557
1672.000000	0.030261
1671.000000	0.031029
1670.000000	0.031840
1669.000000	0.032665
1668.000000	0.033444
1667.000000	0.034124
1666.000000	0.034740
1665.000000	0.035385
1664.000000	0.036116
1663.000000	0.036887
1662.000000	0.037620
1661.000000	0.038309
1660.000000	0.038983
1659.000000	0.039633
1658.000000	0.040231
1657.000000	0.040767
1656.000000	0.041253
1655.000000	0.041700
1654.000000	0.042129
1653.000000	0.042573
1652.000000	0.043039
1651.000000	0.043474
1650.000000	0.043867
1649.000000	0.044203
1648.000000	0.044456
1647.000000	0.044598
1646.000000	0.044658
1645.000000	0.044729
1644.000000	0.044848
1643.000000	0.044971
1642.000000	0.045047
1641.000000	0.045071
1640.000000	0.045075
1639.000000	0.045073
1638.000000	0.045042
1637.000000	0.044940
1636.000000	0.044732
1635.000000	0.044461
1634.000000	0.044227
1633.000000	0.044071
1632.000000	0.043941
1631.000000	0.043756
1630.000000	0.043457
1629.000000	0.043040
1628.000000	0.042557
1627.000000	0.042066
1626.000000	0.041582
1625.000000	0.041068
1624.000000	0.040460
1623.000000	0.039748
1622.000000	0.039028
1621.000000	0.038397
1620.000000	0.037842
1619.000000	0.037258
1618.000000	0.036527
1617.000000	0.035646
1616.000000	0.034802
1615.000000	0.034159
1614.000000	0.033662
1613.000000	0.033188
1612.000000	0.032675
1611.000000	0.032136
1610.000000	0.031593
1609.000000	0.031047
1608.000000	0.030502
1607.000000	0.029982
1606.000000	0.029510
1605.000000	0.029087
1604.000000	0.028699
1603.000000	0.028341
1602.000000	0.028017
1601.000000	0.027737
1600.000000	0.027503
1599.000000	0.027310
1598.000000	0.027135
1597.000000	0.026955
1596.000000	0.026771
1595.000000	0.026609
1594.000000	0.026485
1593.000000	0.026392
1592.000000	0.026316
1591.000000	0.026261
1590.000000	0.026236
1589.000000	0.026240
1588.000000	0.026265
1587.000000	0.026308
1586.000000	0.026366
1585.000000	0.026437
1584.000000	0.026538
1583.000000	0.026689
1582.000000	0.026887
1581.000000	0.027097
1580.000000	0.027287
1579.000000	0.027450
1578.000000	0.027598
1577.000000	0.027745
1576.000000	0.027917
1575.000000	0.028140
1574.000000	0.028411
1573.000000	0.028699
1572.000000	0.028980
1571.000000	0.029259
1570.000000	0.029543
1569.000000	0.029837
1568.000000	0.030142
1567.000000	0.030476
1566.000000	0.030856
1565.000000	0.031269
1564.000000	0.031669
1563.000000	0.032025
1562.000000	0.032362
1561.000000	0.032746
1560.000000	0.033205
1559.000000	0.033677
1558.000000	0.034151
1557.000000	0.034623
1556.000000	0.035100
1555.000000	0.035576
1554.000000	0.036038
1553.000000	0.036486
1552.000000	0.036930
1551.000000	0.037368
1550.000000	0.037778
1549.000000	0.038139
1548.000000	0.038458
1547.000000	0.038763
1546.000000	0.039069
1545.000000	0.039353
1544.000000	0.039588
1543.000000	0.039767
1542.000000	0.039883
1541.000000	0.039919
1540.000000	0.039896
1539.000000	0.039879
1538.000000	0.039889
1537.000000	0.039907
1536.000000	0.039878
1535.000000	0.039738
1534.000000	0.039459
1533.000000	0.039115
1532.000000	0.038832
1531.000000	0.038637
1530.000000	0.038484
1529.000000	0.038320
1528.000000	0.038117
1527.000000	0.037867
1526.000000	0.037587
1525.000000	0.037307
1524.000000	0.037036
1523.000000	0.036744
1522.000000	0.036402
1521.000000	0.036068
1520.000000	0.035841
1519.000000	0.035719
1518.000000	0.035606
1517.000000	0.035422
1516.000000	0.035170
1515.000000	0.034900
1514.000000	0.034627
1513.000000	0.034322
1512.000000	0.033968
1511.000000	0.033589
1510.000000	0.033219
1509.000000	0.032823
1508.000000	0.032282
1507.000000	0.031544
1506.000000	0.030808
1505.000000	0.030275
1504.000000	0.029937
1503.000000	0.029675
1502.000000	0.029389
1501.000000	0.029048
1500.000000	0.028660
1499.000000	0.028233
1498.000000	0.027773
1497.000000	0.027304
1496.000000	0.026865
1495.000000	0.026501
1494.000000	0.026218
1493.000000	0.025976
1492.000000	0.025712
1491.000000	0.025377
1490.000000	0.025001
1489.000000	0.024682
1488.000000	0.024457
1487.000000	0.024290
1486.000000	0.024151
1485.000000	0.024056
1484.000000	0.024020
1483.000000	0.024030
1482.000000	0.024066
1481.000000	0.024128
1480.000000	0.024227
1479.000000	0.024380
1478.000000	0.024601
1477.000000	0.024884
1476.000000	0.025197
1475.000000	0.025517
1474.000000	0.025881
1473.000000	0.026340
1472.000000	0.026869
1471.000000	0.027386
1470.000000	0.027857
1469.000000	0.028295
1468.000000	0.028697
1467.000000	0.029049
1466.000000	0.029355
1465.000000	0.029630
1464.000000	0.029877
1463.000000	0.030100
1462.000000	0.030324
1461.000000	0.030566
1460.000000	0.030816
1459.000000	0.031064
1458.000000	0.031352
1457.000000	0.031715
1456.000000	0.032081
1455.000000	0.032374
1454.000000	0.032607
1453.000000	0.032791
1452.000000	0.032913
1451.000000	0.032970
1450.000000	0.032995
1449.000000	0.033011
1448.000000	0.033011
1447.000000	0.032988
1446.000000	0.032961
1445.000000	0.032944
1444.000000	0.032922
1443.000000	0.032881
1442.000000	0.032823
1441.000000	0.032759
1440.000000	0.032689
1439.000000	0.032607
1438.000000	0.032507
1437.000000	0.032370
1436.000000	0.032185
1435.000000	0.032003
1434.000000	0.031873
1433.000000	0.031789
1432.000000	0.031704
1431.000000	0.031588
1430.000000	0.031452
1429.000000	0.031327
1428.000000	0.031226
1427.000000	0.031156
1426.000000	0.031128
1425.000000	0.031134
1424.000000	0.031136
1423.000000	0.031102
1422.000000	0.031057
1421.000000	0.031048
1420.000000	0.031084
1419.000000	0.031129
1418.000000	0.031173
1417.000000	0.031221
1416.000000	0.031253
1415.000000	0.031263
1414.000000	0.031267
1413.000000	0.031280
1412.000000	0.031282
1411.000000	0.031256
1410.000000	0.031217
1409.000000	0.031195
1408.000000	0.031183
1407.000000	0.031147
1406.000000	0.031076
1405.000000	0.030983
1404.000000	0.030885
1403.000000	0.030792
1402.000000	0.030721
1401.000000	0.030671
1400.000000	0.030605
1399.000000	0.030483
1398.000000	0.030310
1397.000000	0.030112
1396.000000	0.029889
1395.000000	0.029633
1394.000000	0.029374
1393.000000	0.029153
1392.000000	0.028963
1391.000000	0.028774
1390.000000	0.028569
1389.000000	0.028349
1388.000000	0.028115
1387.000000	0.027868
1386.000000	0.027627
1385.000000	0.027398
1384.000000	0.027166
1383.000000	0.026916
1382.000000	0.026655
1381.000000	0.026402
1380.000000	0.026161
1379.000000	0.025930
1378.000000	0.025704
1377.000000	0.025480
1376.000000	0.025238
1375.000000	0.024958
1374.000000	0.024651
1373.000000	0.024351
1372.000000	0.024078
1371.000000	0.023834
1370.000000	0.023612
1369.000000	0.023397
1368.000000	0.023166
1367.000000	0.022903
1366.000000	0.022620
1365.000000	0.022346
1364.000000	0.022102
1363.000000	0.021893
1362.000000	0.021713
1361.000000	0.021560
1360.000000	0.021432
1359.000000	0.021325
1358.000000	0.021225
1357.000000	0.021125
1356.000000	0.021033
1355.000000	0.020974
1354.000000	0.020965
1353.000000	0.020999
1352.000000	0.021061
1351.000000	0.021140
1350.000000	0.021232
1349.000000	0.021333
1348.000000	0.021441
1347.000000	0.021557
1346.000000	0.021685
1345.000000	0.021829
1344.000000	0.021987
1343.000000	0.022152
1342.000000	0.022315
1341.000000	0.022463
1340.000000	0.022580
1339.000000	0.022657
1338.000000	0.022697
1337.000000	0.022711
1336.000000	0.022698
1335.000000	0.022646
1334.000000	0.022554
1333.000000	0.022437
1332.000000	0.022316
1331.000000	0.022202
1330.000000	0.022095
1329.000000	0.021985
1328.000000	0.021866
1327.000000	0.021740
1326.000000	0.021625
1325.000000	0.021543
1324.000000	0.021506
1323.000000	0.021500
1322.000000	0.021506
1321.000000	0.021511
1320.000000	0.021507
1319.000000	0.021486
1318.000000	0.021444
1317.000000	0.021391
1316.000000	0.021345
1315.000000	0.021308
1314.000000	0.021262
1313.000000	0.021190
1312.000000	0.021090
1311.000000	0.020983
1310.000000	0.020882
1309.000000	0.020789
1308.000000	0.020694
1307.000000	0.020595
1306.000000	0.020501
1305.000000	0.020420
1304.000000	0.020351
1303.000000	0.020282
1302.000000	0.020209
1301.000000	0.020135
1300.000000	0.020067
1299.000000	0.020006
1298.000000	0.019955
1297.000000	0.019919
1296.000000	0.019905
1295.000000	0.019911
1294.000000	0.019930
1293.000000	0.019957
1292.000000	0.019988
1291.000000	0.020027
1290.000000	0.020085
1289.000000	0.020169
1288.000000	0.020275
1287.000000	0.020385
1286.000000	0.020483
1285.000000	0.020564
1284.000000	0.020637
1283.000000	0.020706
1282.000000	0.020776
1281.000000	0.020842
1280.000000	0.020898
1279.000000	0.020943
1278.000000	0.020984
1277.000000	0.021032
1276.000000	0.021087
1275.000000	0.021141
1274.000000	0.021184
1273.000000	0.021221
1272.000000	0.021261
1271.000000	0.021310
1270.000000	0.021379
1269.000000	0.021479
1268.000000	0.021612
1267.000000	0.021761
1266.000000	0.021910
1265.000000	0.022061
1264.000000	0.022224
1263.000000	0.022394
1262.000000	0.022552
1261.000000	0.022689
1260.000000	0.022812
1259.000000	0.022934
1258.000000	0.023063
1257.000000	0.023200
1256.000000	0.023340
1255.000000	0.023470
1254.000000	0.023586
1253.000000	0.023702
1252.000000	0.023836
1251.000000	0.023992
1250.000000	0.024158
1249.000000	0.024320
1248.000000	0.024474
1247.000000	0.024627
1246.000000	0.024786
1245.000000	0.024945
1244.000000	0.025087
1243.000000	0.025195
1242.000000	0.025269
1241.000000	0.025325
1240.000000	0.025367
1239.000000	0.025387
1238.000000	0.025369
1237.000000	0.025316
1236.000000	0.025235
1235.000000	0.025128
1234.000000	0.024989
1233.000000	0.024809
1232.000000	0.024593
1231.000000	0.024350
1230.000000	0.024092
1229.000000	0.023825
1228.000000	0.023547
1227.000000	0.023252
1226.000000	0.022944
1225.000000	0.022625
1224.000000	0.022295
1223.000000	0.021953
1222.000000	0.021598
1221.000000	0.021234
1220.000000	0.020866
1219.000000	0.020508
1218.000000	0.020189
1217.000000	0.019937
1216.000000	0.019769
1215.000000	0.019666
1214.000000	0.019592
1213.000000	0.019517
1212.000000	0.019435
1211.000000	0.019360
1210.000000	0.019311
1209.000000	0.019295
1208.000000	0.019309
1207.000000	0.019342
1206.000000	0.019382
1205.000000	0.019413
1204.000000	0.019419
1203.000000	0.019392
1202.000000	0.019336
1201.000000	0.019258
1200.000000	0.019159
1199.000000	0.019037
1198.000000	0.018897
1197.000000	0.018752
1196.000000	0.018608
1195.000000	0.018461
1194.000000	0.018299
1193.000000	0.018129
1192.000000	0.017971
1191.000000	0.017839
1190.000000	0.017727
1189.000000	0.017618
1188.000000	0.017500
1187.000000	0.017371
1186.000000	0.017233
1185.000000	0.017101
1184.000000	0.017002
1183.000000	0.016958
1182.000000	0.016966
1181.000000	0.016994
1180.000000	0.017015
1179.000000	0.017024
1178.000000	0.017040
1177.000000	0.017078
1176.000000	0.017135
1175.000000	0.017197
1174.000000	0.017253
1173.000000	0.017298
1172.000000	0.017340
1171.000000	0.017396
1170.000000	0.017481
1169.000000	0.017593
1168.000000	0.017714
1167.000000	0.017826
1166.000000	0.017927
1165.000000	0.018031
1164.000000	0.018145
1163.000000	0.018262
1162.000000	0.018365
1161.000000	0.018439
1160.000000	0.018474
1159.000000	0.018466
1158.000000	0.018423
1157.000000	0.018356
1156.000000	0.018275
1155.000000	0.018184
1154.000000	0.018092
1153.000000	0.018003
1152.000000	0.017912
1151.000000	0.017805
1150.000000	0.017678
1149.000000	0.017539
1148.000000	0.017402
1147.000000	0.017272
1146.000000	0.017144
1145.000000	0.017011
1144.000000	0.016870
1143.000000	0.016725
1142.000000	0.016588
1141.000000	0.016474
1140.000000	0.016392
1139.000000	0.016337
1138.000000	0.016292
1137.000000	0.016246
1136.000000	0.016201
1135.000000	0.016165
1134.000000	0.016148
1133.000000	0.016159
1132.000000	0.016202
1131.000000	0.016275
1130.000000	0.016366
1129.000000	0.016463
1128.000000	0.016557
1127.000000	0.016649
1126.000000	0.016742
1125.000000	0.016839
1124.000000	0.016937
1123.000000	0.017027
1122.000000	0.017103
1121.000000	0.017176
1120.000000	0.017266
1119.000000	0.017382
1118.000000	0.017513
1117.000000	0.017635
1116.000000	0.017740
1115.000000	0.017831
1114.000000	0.017916
1113.000000	0.017997
1112.000000	0.018074
1111.000000	0.018151
1110.000000	0.018231
1109.000000	0.018316
1108.000000	0.018400
1107.000000	0.018474
1106.000000	0.018529
1105.000000	0.018568
1104.000000	0.018608
1103.000000	0.018668
1102.000000	0.018744
1101.000000	0.018815
1100.000000	0.018864
1099.000000	0.018896
1098.000000	0.018929
1097.000000	0.018973
1096.000000	0.019024
1095.000000	0.019087
1094.000000	0.019177
1093.000000	0.019299
1092.000000	0.019442
1091.000000	0.019589
1090.000000	0.019743
1089.000000	0.019914
1088.000000	0.020101
1087.000000	0.020297
1086.000000	0.020506
1085.000000	0.020731
1084.000000	0.020959
1083.000000	0.021154
1082.000000	0.021285
1081.000000	0.021346
1080.000000	0.021353
1079.000000	0.021318
1078.000000	0.021248
1077.000000	0.021148
1076.000000	0.021013
1075.000000	0.020839
1074.000000	0.020633
1073.000000	0.020421
1072.000000	0.020236
1071.000000	0.020096
1070.000000	0.020001
1069.000000	0.019939
1068.000000	0.019898
1067.000000	0.019878
1066.000000	0.019884
1065.000000	0.019917
1064.000000	0.019983
1063.000000	0.020084
1062.000000	0.020216
1061.000000	0.020353
1060.000000	0.020452
1059.000000	0.020488
1058.000000	0.020476
1057.000000	0.020468
1056.000000	0.020505
1055.000000	0.020595
1054.000000	0.020720
1053.000000	0.020852
1052.000000	0.020972
1051.000000	0.021081
1050.000000	0.021191
1049.000000	0.021311
1048.000000	0.021423
1047.000000	0.021502
1046.000000	0.021544
1045.000000	0.021570
1044.000000	0.021598
1043.000000	0.021622
1042.000000	0.021641
1041.000000	0.021669
1040.000000	0.021738
1039.000000	0.021868
1038.000000	0.022057
1037.000000	0.022292
1036.000000	0.022545
1035.000000	0.022788
1034.000000	0.023010
1033.000000	0.023220
1032.000000	0.023435
1031.000000	0.023656
1030.000000	0.023867
1029.000000	0.024052
1028.000000	0.024203
1027.000000	0.024327
1026.000000	0.024438
1025.000000	0.024564
1024.000000	0.024741
1023.000000	0.024994
1022.000000	0.025324
1021.000000	0.025691
1020.000000	0.026032
1019.000000	0.026285
1018.000000	0.026419
1017.000000	0.026420
1016.000000	0.026277
1015.000000	0.025973
1014.000000	0.025517
1013.000000	0.024952
1012.000000	0.024339
1011.000000	0.023722
1010.000000	0.023118
1009.000000	0.022530
1008.000000	0.021968
1007.000000	0.021450
1006.000000	0.020991
1005.000000	0.020585
1004.000000	0.020211
1003.000000	0.019858
1002.000000	0.019529
1001.000000	0.019224
1000.000000	0.018936
999.000000	0.018655
998.000000	0.018385
997.000000	0.018134
996.000000	0.017898
995.000000	0.017664
994.000000	0.017421
993.000000	0.017170
992.000000	0.016915
991.000000	0.016656
990.000000	0.016395
989.000000	0.016140
988.000000	0.015897
987.000000	0.015667
986.000000	0.015442
985.000000	0.015219
984.000000	0.015004
983.000000	0.014813
982.000000	0.014650
981.000000	0.014502
980.000000	0.014351
979.000000	0.014191
978.000000	0.014032
977.000000	0.013883
976.000000	0.013741
975.000000	0.013606
974.000000	0.013482
973.000000	0.013372
972.000000	0.013269
971.000000	0.013159
970.000000	0.013033
969.000000	0.012885
968.000000	0.012711
967.000000	0.012518
966.000000	0.012322
965.000000	0.012140
964.000000	0.011977
963.000000	0.011831
962.000000	0.011698
961.000000	0.011574
960.000000	0.011453
959.000000	0.011328
958.000000	0.011207
957.000000	0.011095
956.000000	0.010987
955.000000	0.010874
954.000000	0.010757
953.000000	0.010646
952.000000	0.010540
951.000000	0.010428
950.000000	0.010304
949.000000	0.010178
948.000000	0.010068
947.000000	0.009989
946.000000	0.009947
945.000000	0.009944
944.000000	0.009969
943.000000	0.009991
942.000000	0.009987
941.000000	0.009955
940.000000	0.009915
939.000000	0.009883
938.000000	0.009855
937.000000	0.009819
936.000000	0.009765
935.000000	0.009698
934.000000	0.009636
933.000000	0.009591
932.000000	0.009554
931.000000	0.009498
930.000000	0.009407
929.000000	0.009306
928.000000	0.009237
927.000000	0.009222
926.000000	0.009239
925.000000	0.009255
924.000000	0.009248
923.000000	0.009220
922.000000	0.009177
921.000000	0.009128
920.000000	0.009069
919.000000	0.008992
918.000000	0.008892
917.000000	0.008780
916.000000	0.008675
915.000000	0.008590
914.000000	0.008525
913.000000	0.008464
912.000000	0.008398
911.000000	0.008319
910.000000	0.008235
909.000000	0.008165
908.000000	0.008124
907.000000	0.008114
906.000000	0.008118
905.000000	0.008119
904.000000	0.008104
903.000000	0.008071
902.000000	0.008020
901.000000	0.007962
900.000000	0.007911
899.000000	0.007871
898.000000	0.007831
897.000000	0.007783
896.000000	0.007733
895.000000	0.007686
894.000000	0.007636
893.000000	0.007578
892.000000	0.007516
891.000000	0.007463
890.000000	0.007429
889.000000	0.007418
888.000000	0.007437
887.000000	0.007506
886.000000	0.007640
885.000000	0.007844
884.000000	0.008113
883.000000	0.008439
882.000000	0.008827
881.000000	0.009295
880.000000	0.009844
879.000000	0.010439
878.000000	0.011003
877.000000	0.011448
876.000000	0.011701
875.000000	0.011718
874.000000	0.011497
873.000000	0.011078
872.000000	0.010537
871.000000	0.009960
870.000000	0.009422
869.000000	0.008976
868.000000	0.008649
867.000000	0.008438
866.000000	0.008310
865.000000	0.008227
864.000000	0.008162
863.000000	0.008099
862.000000	0.008025
861.000000	0.007941
860.000000	0.007876
859.000000	0.007859
858.000000	0.007897
857.000000	0.007966
856.000000	0.008026
855.000000	0.008052
854.000000	0.008037
853.000000	0.008001
852.000000	0.007977
851.000000	0.007990
850.000000	0.008025
849.000000	0.008043
848.000000	0.008005
847.000000	0.007914
846.000000	0.007803
845.000000	0.007718
844.000000	0.007683
843.000000	0.007688
842.000000	0.007707
841.000000	0.007714
840.000000	0.007706
839.000000	0.007691
838.000000	0.007670
837.000000	0.007638
836.000000	0.007592
835.000000	0.007547
834.000000	0.007522
833.000000	0.007518
832.000000	0.007525
831.000000	0.007529
830.000000	0.007528
829.000000	0.007528
828.000000	0.007530
827.000000	0.007529
826.000000	0.007523
825.000000	0.007510
824.000000	0.007494
823.000000	0.007484
822.000000	0.007491
821.000000	0.007525
820.000000	0.007575
819.000000	0.007615
818.000000	0.007629
817.000000	0.007627
816.000000	0.007627
815.000000	0.007626
814.000000	0.007607
813.000000	0.007573
812.000000	0.007552
811.000000	0.007556
810.000000	0.007564
809.000000	0.007551
808.000000	0.007525
807.000000	0.007521
806.000000	0.007547
805.000000	0.007570
804.000000	0.007556
803.000000	0.007507
802.000000	0.007466
801.000000	0.007469
800.000000	0.007515
799.000000	0.007580
798.000000	0.007650
797.000000	0.007729
796.000000	0.007815
795.000000	0.007880
794.000000	0.007900
793.000000	0.007883
792.000000	0.007863
791.000000	0.007865
790.000000	0.007885
789.000000	0.007903
788.000000	0.007908
787.000000	0.007907
786.000000	0.007905
785.000000	0.007896
784.000000	0.007868
783.000000	0.007822
782.000000	0.007790
781.000000	0.007796
780.000000	0.007835
779.000000	0.007868
778.000000	0.007869
777.000000	0.007850
776.000000	0.007835
775.000000	0.007828
774.000000	0.007825
773.000000	0.007834
772.000000	0.007862
771.000000	0.007896
770.000000	0.007916
769.000000	0.007923
768.000000	0.007929
767.000000	0.007919
766.000000	0.007869
765.000000	0.007786
764.000000	0.007716
763.000000	0.007694
762.000000	0.007715
761.000000	0.007761
760.000000	0.007831
759.000000	0.007914
758.000000	0.007979
757.000000	0.008007
756.000000	0.008012
755.000000	0.008015
754.000000	0.008009
753.000000	0.007982
752.000000	0.007945
751.000000	0.007922
750.000000	0.007920
749.000000	0.007930
748.000000	0.007945
747.000000	0.007964
746.000000	0.007989
745.000000	0.008024
744.000000	0.008082
743.000000	0.008166
742.000000	0.008260
741.000000	0.008344
740.000000	0.008414
739.000000	0.008473
738.000000	0.008522
737.000000	0.008583
736.000000	0.008691
735.000000	0.008857
734.000000	0.009041
733.000000	0.009198
732.000000	0.009325
731.000000	0.009431
730.000000	0.009501
729.000000	0.009539
728.000000	0.009604
727.000000	0.009767
726.000000	0.010032
725.000000	0.010338
724.000000	0.010618
723.000000	0.010836
722.000000	0.010976
721.000000	0.011037
720.000000	0.011032
719.000000	0.010980
718.000000	0.010897
717.000000	0.010817
716.000000	0.010811
715.000000	0.010922
714.000000	0.011098
713.000000	0.011224
712.000000	0.011239
711.000000	0.011178
710.000000	0.011101
709.000000	0.011046
708.000000	0.011023
707.000000	0.011028
706.000000	0.011052
705.000000	0.011095
704.000000	0.011174
703.000000	0.011289
702.000000	0.011394
701.000000	0.011424
700.000000	0.011381
699.000000	0.011321
698.000000	0.011283
697.000000	0.011253
696.000000	0.011219
695.000000	0.011206
694.000000	0.011220
693.000000	0.011213
692.000000	0.011158
691.000000	0.011089
690.000000	0.011054
689.000000	0.011064
688.000000	0.011105
687.000000	0.011186
686.000000	0.011290
685.000000	0.011353
684.000000	0.011348
683.000000	0.011326
682.000000	0.011345
681.000000	0.011407
680.000000	0.011485
679.000000	0.011558
678.000000	0.011594
677.000000	0.011615
676.000000	0.011701
675.000000	0.011903
674.000000	0.012156
673.000000	0.012324
672.000000	0.012335
671.000000	0.012207
670.000000	0.011949
669.000000	0.011584
668.000000	0.011446
667.000000	0.011811
666.000000	0.012138
665.000000	0.012376
664.000000	0.012608
663.000000	0.012723
662.000000	0.012655
661.000000	0.012494
660.000000	0.012360
659.000000	0.012267
658.000000	0.012170
657.000000	0.012091
656.000000	0.012050
655.000000	0.011988
654.000000	0.011866
653.000000	0.011738
652.000000	0.011659
651.000000	0.011618
650.000000	0.011603
649.000000	0.011640
648.000000	0.011705
647.000000	0.011724
646.000000	0.011697
645.000000	0.011715
644.000000	0.011816
643.000000	0.011941
642.000000	0.012016
641.000000	0.012040
640.000000	0.012039
639.000000	0.012007
638.000000	0.011943
637.000000	0.011869
636.000000	0.011790
635.000000	0.011703
634.000000	0.011649
633.000000	0.011675
632.000000	0.011748
631.000000	0.011787
630.000000	0.011777
629.000000	0.011786
628.000000	0.011846
627.000000	0.011903
626.000000	0.011927
625.000000	0.011960
624.000000	0.012041
623.000000	0.012144
622.000000	0.012224
621.000000	0.012263
620.000000	0.012259
619.000000	0.012223
618.000000	0.012187
617.000000	0.012176
616.000000	0.012168
615.000000	0.012131
614.000000	0.012098
613.000000	0.012127
612.000000	0.012201
611.000000	0.012248
610.000000	0.012251
609.000000	0.012247
608.000000	0.012226
607.000000	0.012120
606.000000	0.011948
605.000000	0.011825
604.000000	0.011813
603.000000	0.011847
602.000000	0.011840
601.000000	0.011784
600.000000	0.011714
599.000000	0.011645
598.000000	0.011589
597.000000	0.011562
596.000000	0.011533
595.000000	0.011431
594.000000	0.011256
593.000000	0.011113
592.000000	0.011091
591.000000	0.011147
590.000000	0.011185
589.000000	0.011178
588.000000	0.011166
587.000000	0.011158
586.000000	0.011138
585.000000	0.011121
584.000000	0.011154
583.000000	0.011248
582.000000	0.011366
581.000000	0.011452
580.000000	0.011455
579.000000	0.011359
578.000000	0.011199
577.000000	0.011048
576.000000	0.010958
575.000000	0.010948
574.000000	0.011031
573.000000	0.011215
572.000000	0.011438
571.000000	0.011572
570.000000	0.011538
569.000000	0.011406
568.000000	0.011310
567.000000	0.011316
566.000000	0.011402
565.000000	0.011528
564.000000	0.011685
563.000000	0.011860
562.000000	0.012016
561.000000	0.012091
560.000000	0.012052
559.000000	0.011939
558.000000	0.011854
557.000000	0.011856
556.000000	0.011898
555.000000	0.011899
554.000000	0.011855
553.000000	0.011809
552.000000	0.011755
551.000000	0.011654
550.000000	0.011529
549.000000	0.011445
548.000000	0.011403
547.000000	0.011363
546.000000	0.011352
545.000000	0.011441
544.000000	0.011604
543.000000	0.011722
542.000000	0.011753
541.000000	0.011772
540.000000	0.011802
539.000000	0.011768
538.000000	0.011674
537.000000	0.011687
536.000000	0.011928
535.000000	0.012269
534.000000	0.012452
533.000000	0.012361
532.000000	0.012084
531.000000	0.011774
530.000000	0.011533
529.000000	0.011382
528.000000	0.011277
527.000000	0.011174
526.000000	0.011091
525.000000	0.011078
524.000000	0.011105
523.000000	0.011078
522.000000	0.010965
521.000000	0.010821
520.000000	0.010667
519.000000	0.010456
518.000000	0.010198
517.000000	0.010006
516.000000	0.009932
515.000000	0.009875
514.000000	0.009720
513.000000	0.009471
512.000000	0.009192
511.000000	0.008944
510.000000	0.008808
509.000000	0.008877
508.000000	0.009113
507.000000	0.009309
506.000000	0.009285
505.000000	0.009074
504.000000	0.008823
503.000000	0.008614
502.000000	0.008468
501.000000	0.008423
500.000000	0.008480
499.000000	0.008540
498.000000	0.008492
497.000000	0.008333
496.000000	0.008140
495.000000	0.007982
494.000000	0.007917
493.000000	0.008000
492.000000	0.008198
491.000000	0.008326
490.000000	0.008191
489.000000	0.007808
488.000000	0.007391
487.000000	0.007158
486.000000	0.007185
485.000000	0.007392
484.000000	0.007605
483.000000	0.007696
482.000000	0.007693
481.000000	0.007728
480.000000	0.007838
479.000000	0.007921
478.000000	0.007925
477.000000	0.007940
476.000000	0.008041
475.000000	0.008154
474.000000	0.008195
473.000000	0.008234
472.000000	0.008380
471.000000	0.008603
470.000000	0.008833
469.000000	0.009122
468.000000	0.009498
467.000000	0.009803
466.000000	0.009868
465.000000	0.009748
464.000000	0.009575
463.000000	0.009309
462.000000	0.008835
461.000000	0.008237
460.000000	0.007759
459.000000	0.007532
458.000000	0.007502
457.000000	0.007566
456.000000	0.007640
455.000000	0.007652
454.000000	0.007594
453.000000	0.007562
452.000000	0.007646
451.000000	0.007750
450.000000	0.007661
