PE IR       SUBTECH     SPECTRUM    ASCII       PEDS        4.00        
   -1
3C-H10-F006_1.ASC
22/02/11
11:43:26.00
22/02/11
11:54:14.00
uco
Sample 006 By uco Date Friday, February 11 2022
450.000000
#HDR
-1
-1
#GR
cm-1
A
1.0
0.0
4000.000000
-1.000000
3551
8
0.013242
-0.000594
#DATA
4000.000000	-0.000323
3999.000000	-0.000329
3998.000000	-0.000337
3997.000000	-0.000346
3996.000000	-0.000353
3995.000000	-0.000358
3994.000000	-0.000363
3993.000000	-0.000365
3992.000000	-0.000361
3991.000000	-0.000349
3990.000000	-0.000328
3989.000000	-0.000302
3988.000000	-0.000278
3987.000000	-0.000261
3986.000000	-0.000253
3985.000000	-0.000253
3984.000000	-0.000259
3983.000000	-0.000269
3982.000000	-0.000279
3981.000000	-0.000286
3980.000000	-0.000293
3979.000000	-0.000302
3978.000000	-0.000318
3977.000000	-0.000337
3976.000000	-0.000353
3975.000000	-0.000360
3974.000000	-0.000354
3973.000000	-0.000342
3972.000000	-0.000330
3971.000000	-0.000324
3970.000000	-0.000319
3969.000000	-0.000310
3968.000000	-0.000296
3967.000000	-0.000284
3966.000000	-0.000279
3965.000000	-0.000282
3964.000000	-0.000286
3963.000000	-0.000283
3962.000000	-0.000270
3961.000000	-0.000251
3960.000000	-0.000230
3959.000000	-0.000211
3958.000000	-0.000197
3957.000000	-0.000191
3956.000000	-0.000197
3955.000000	-0.000212
3954.000000	-0.000233
3953.000000	-0.000250
3952.000000	-0.000260
3951.000000	-0.000265
3950.000000	-0.000271
3949.000000	-0.000286
3948.000000	-0.000309
3947.000000	-0.000331
3946.000000	-0.000339
3945.000000	-0.000326
3944.000000	-0.000295
3943.000000	-0.000257
3942.000000	-0.000225
3941.000000	-0.000209
3940.000000	-0.000207
3939.000000	-0.000213
3938.000000	-0.000222
3937.000000	-0.000231
3936.000000	-0.000240
3935.000000	-0.000248
3934.000000	-0.000253
3933.000000	-0.000251
3932.000000	-0.000240
3931.000000	-0.000226
3930.000000	-0.000217
3929.000000	-0.000216
3928.000000	-0.000219
3927.000000	-0.000217
3926.000000	-0.000205
3925.000000	-0.000187
3924.000000	-0.000173
3923.000000	-0.000167
3922.000000	-0.000166
3921.000000	-0.000169
3920.000000	-0.000172
3919.000000	-0.000174
3918.000000	-0.000169
3917.000000	-0.000154
3916.000000	-0.000134
3915.000000	-0.000120
3914.000000	-0.000118
3913.000000	-0.000128
3912.000000	-0.000146
3911.000000	-0.000167
3910.000000	-0.000191
3909.000000	-0.000216
3908.000000	-0.000232
3907.000000	-0.000230
3906.000000	-0.000207
3905.000000	-0.000175
3904.000000	-0.000150
3903.000000	-0.000145
3902.000000	-0.000157
3901.000000	-0.000174
3900.000000	-0.000185
3899.000000	-0.000189
3898.000000	-0.000188
3897.000000	-0.000184
3896.000000	-0.000175
3895.000000	-0.000163
3894.000000	-0.000153
3893.000000	-0.000153
3892.000000	-0.000166
3891.000000	-0.000177
3890.000000	-0.000173
3889.000000	-0.000152
3888.000000	-0.000133
3887.000000	-0.000140
3886.000000	-0.000176
3885.000000	-0.000215
3884.000000	-0.000228
3883.000000	-0.000202
3882.000000	-0.000152
3881.000000	-0.000111
3880.000000	-0.000105
3879.000000	-0.000134
3878.000000	-0.000177
3877.000000	-0.000216
3876.000000	-0.000245
3875.000000	-0.000262
3874.000000	-0.000266
3873.000000	-0.000257
3872.000000	-0.000238
3871.000000	-0.000218
3870.000000	-0.000208
3869.000000	-0.000215
3868.000000	-0.000231
3867.000000	-0.000244
3866.000000	-0.000250
3865.000000	-0.000243
3864.000000	-0.000228
3863.000000	-0.000214
3862.000000	-0.000212
3861.000000	-0.000219
3860.000000	-0.000222
3859.000000	-0.000210
3858.000000	-0.000185
3857.000000	-0.000163
3856.000000	-0.000166
3855.000000	-0.000207
3854.000000	-0.000278
3853.000000	-0.000341
3852.000000	-0.000359
3851.000000	-0.000329
3850.000000	-0.000278
3849.000000	-0.000236
3848.000000	-0.000213
3847.000000	-0.000209
3846.000000	-0.000218
3845.000000	-0.000234
3844.000000	-0.000250
3843.000000	-0.000260
3842.000000	-0.000263
3841.000000	-0.000261
3840.000000	-0.000256
3839.000000	-0.000248
3838.000000	-0.000236
3837.000000	-0.000215
3836.000000	-0.000185
3835.000000	-0.000153
3834.000000	-0.000130
3833.000000	-0.000126
3832.000000	-0.000139
3831.000000	-0.000163
3830.000000	-0.000186
3829.000000	-0.000197
3828.000000	-0.000200
3827.000000	-0.000203
3826.000000	-0.000211
3825.000000	-0.000221
3824.000000	-0.000223
3823.000000	-0.000213
3822.000000	-0.000197
3821.000000	-0.000187
3820.000000	-0.000189
3819.000000	-0.000198
3818.000000	-0.000210
3817.000000	-0.000229
3816.000000	-0.000255
3815.000000	-0.000278
3814.000000	-0.000281
3813.000000	-0.000260
3812.000000	-0.000225
3811.000000	-0.000194
3810.000000	-0.000177
3809.000000	-0.000180
3808.000000	-0.000198
3807.000000	-0.000222
3806.000000	-0.000245
3805.000000	-0.000260
3804.000000	-0.000269
3803.000000	-0.000275
3802.000000	-0.000286
3801.000000	-0.000308
3800.000000	-0.000329
3799.000000	-0.000335
3798.000000	-0.000323
3797.000000	-0.000300
3796.000000	-0.000268
3795.000000	-0.000223
3794.000000	-0.000165
3793.000000	-0.000102
3792.000000	-0.000056
3791.000000	-0.000042
3790.000000	-0.000056
3789.000000	-0.000080
3788.000000	-0.000099
3787.000000	-0.000107
3786.000000	-0.000108
3785.000000	-0.000107
3784.000000	-0.000108
3783.000000	-0.000111
3782.000000	-0.000117
3781.000000	-0.000123
3780.000000	-0.000124
3779.000000	-0.000120
3778.000000	-0.000116
3777.000000	-0.000118
3776.000000	-0.000123
3775.000000	-0.000125
3774.000000	-0.000114
3773.000000	-0.000089
3772.000000	-0.000061
3771.000000	-0.000047
3770.000000	-0.000058
3769.000000	-0.000086
3768.000000	-0.000114
3767.000000	-0.000127
3766.000000	-0.000130
3765.000000	-0.000132
3764.000000	-0.000142
3763.000000	-0.000160
3762.000000	-0.000183
3761.000000	-0.000207
3760.000000	-0.000226
3759.000000	-0.000234
3758.000000	-0.000229
3757.000000	-0.000218
3756.000000	-0.000214
3755.000000	-0.000223
3754.000000	-0.000242
3753.000000	-0.000253
3752.000000	-0.000246
3751.000000	-0.000231
3750.000000	-0.000229
3749.000000	-0.000242
3748.000000	-0.000253
3747.000000	-0.000252
3746.000000	-0.000236
3745.000000	-0.000219
3744.000000	-0.000225
3743.000000	-0.000253
3742.000000	-0.000279
3741.000000	-0.000295
3740.000000	-0.000310
3739.000000	-0.000329
3738.000000	-0.000347
3737.000000	-0.000359
3736.000000	-0.000362
3735.000000	-0.000358
3734.000000	-0.000352
3733.000000	-0.000343
3732.000000	-0.000330
3731.000000	-0.000316
3730.000000	-0.000302
3729.000000	-0.000292
3728.000000	-0.000292
3727.000000	-0.000302
3726.000000	-0.000321
3725.000000	-0.000340
3724.000000	-0.000346
3723.000000	-0.000332
3722.000000	-0.000306
3721.000000	-0.000286
3720.000000	-0.000282
3719.000000	-0.000292
3718.000000	-0.000302
3717.000000	-0.000300
3716.000000	-0.000290
3715.000000	-0.000281
3714.000000	-0.000280
3713.000000	-0.000289
3712.000000	-0.000306
3711.000000	-0.000333
3710.000000	-0.000362
3709.000000	-0.000379
3708.000000	-0.000375
3707.000000	-0.000349
3706.000000	-0.000311
3705.000000	-0.000273
3704.000000	-0.000248
3703.000000	-0.000243
3702.000000	-0.000255
3701.000000	-0.000274
3700.000000	-0.000289
3699.000000	-0.000294
3698.000000	-0.000294
3697.000000	-0.000294
3696.000000	-0.000296
3695.000000	-0.000299
3694.000000	-0.000303
3693.000000	-0.000314
3692.000000	-0.000336
3691.000000	-0.000359
3690.000000	-0.000371
3689.000000	-0.000366
3688.000000	-0.000352
3687.000000	-0.000335
3686.000000	-0.000317
3685.000000	-0.000299
3684.000000	-0.000285
3683.000000	-0.000274
3682.000000	-0.000264
3681.000000	-0.000260
3680.000000	-0.000271
3679.000000	-0.000297
3678.000000	-0.000328
3677.000000	-0.000342
3676.000000	-0.000329
3675.000000	-0.000305
3674.000000	-0.000291
3673.000000	-0.000282
3672.000000	-0.000267
3671.000000	-0.000238
3670.000000	-0.000202
3669.000000	-0.000175
3668.000000	-0.000165
3667.000000	-0.000166
3666.000000	-0.000180
3665.000000	-0.000204
3664.000000	-0.000236
3663.000000	-0.000266
3662.000000	-0.000281
3661.000000	-0.000276
3660.000000	-0.000255
3659.000000	-0.000232
3658.000000	-0.000221
3657.000000	-0.000227
3656.000000	-0.000245
3655.000000	-0.000263
3654.000000	-0.000268
3653.000000	-0.000257
3652.000000	-0.000241
3651.000000	-0.000227
3650.000000	-0.000221
3649.000000	-0.000215
3648.000000	-0.000198
3647.000000	-0.000167
3646.000000	-0.000133
3645.000000	-0.000106
3644.000000	-0.000088
3643.000000	-0.000072
3642.000000	-0.000051
3641.000000	-0.000027
3640.000000	-0.000007
3639.000000	0.000001
3638.000000	-0.000004
3637.000000	-0.000021
3636.000000	-0.000042
3635.000000	-0.000060
3634.000000	-0.000070
3633.000000	-0.000073
3632.000000	-0.000075
3631.000000	-0.000079
3630.000000	-0.000084
3629.000000	-0.000076
3628.000000	-0.000055
3627.000000	-0.000032
3626.000000	-0.000020
3625.000000	-0.000030
3624.000000	-0.000059
3623.000000	-0.000091
3622.000000	-0.000109
3621.000000	-0.000102
3620.000000	-0.000066
3619.000000	-0.000014
3618.000000	0.000031
3617.000000	0.000053
3616.000000	0.000055
3615.000000	0.000052
3614.000000	0.000064
3613.000000	0.000094
3612.000000	0.000132
3611.000000	0.000165
3610.000000	0.000184
3609.000000	0.000191
3608.000000	0.000193
3607.000000	0.000190
3606.000000	0.000183
3605.000000	0.000168
3604.000000	0.000152
3603.000000	0.000146
3602.000000	0.000160
3601.000000	0.000193
3600.000000	0.000230
3599.000000	0.000253
3598.000000	0.000259
3597.000000	0.000258
3596.000000	0.000266
3595.000000	0.000290
3594.000000	0.000327
3593.000000	0.000361
3592.000000	0.000383
3591.000000	0.000385
3590.000000	0.000372
3589.000000	0.000357
3588.000000	0.000351
3587.000000	0.000357
3586.000000	0.000370
3585.000000	0.000389
3584.000000	0.000409
3583.000000	0.000428
3582.000000	0.000440
3581.000000	0.000448
3580.000000	0.000457
3579.000000	0.000478
3578.000000	0.000513
3577.000000	0.000557
3576.000000	0.000600
3575.000000	0.000631
3574.000000	0.000639
3573.000000	0.000624
3572.000000	0.000594
3571.000000	0.000564
3570.000000	0.000545
3569.000000	0.000544
3568.000000	0.000563
3567.000000	0.000599
3566.000000	0.000643
3565.000000	0.000684
3564.000000	0.000716
3563.000000	0.000738
3562.000000	0.000752
3561.000000	0.000766
3560.000000	0.000789
3559.000000	0.000821
3558.000000	0.000857
3557.000000	0.000889
3556.000000	0.000912
3555.000000	0.000921
3554.000000	0.000920
3553.000000	0.000915
3552.000000	0.000912
3551.000000	0.000915
3550.000000	0.000924
3549.000000	0.000935
3548.000000	0.000946
3547.000000	0.000963
3546.000000	0.000990
3545.000000	0.001025
3544.000000	0.001062
3543.000000	0.001089
3542.000000	0.001103
3541.000000	0.001104
3540.000000	0.001099
3539.000000	0.001100
3538.000000	0.001117
3537.000000	0.001150
3536.000000	0.001187
3535.000000	0.001209
3534.000000	0.001211
3533.000000	0.001202
3532.000000	0.001203
3531.000000	0.001224
3530.000000	0.001262
3529.000000	0.001302
3528.000000	0.001326
3527.000000	0.001328
3526.000000	0.001318
3525.000000	0.001313
3524.000000	0.001324
3523.000000	0.001346
3522.000000	0.001372
3521.000000	0.001402
3520.000000	0.001440
3519.000000	0.001481
3518.000000	0.001511
3517.000000	0.001522
3516.000000	0.001517
3515.000000	0.001507
3514.000000	0.001504
3513.000000	0.001514
3512.000000	0.001539
3511.000000	0.001571
3510.000000	0.001596
3509.000000	0.001606
3508.000000	0.001605
3507.000000	0.001607
3506.000000	0.001616
3505.000000	0.001629
3504.000000	0.001638
3503.000000	0.001645
3502.000000	0.001656
3501.000000	0.001675
3500.000000	0.001700
3499.000000	0.001726
3498.000000	0.001747
3497.000000	0.001760
3496.000000	0.001772
3495.000000	0.001791
3494.000000	0.001821
3493.000000	0.001858
3492.000000	0.001895
3491.000000	0.001924
3490.000000	0.001940
3489.000000	0.001937
3488.000000	0.001919
3487.000000	0.001894
3486.000000	0.001877
3485.000000	0.001882
3484.000000	0.001916
3483.000000	0.001968
3482.000000	0.002013
3481.000000	0.002027
3480.000000	0.002010
3479.000000	0.001981
3478.000000	0.001967
3477.000000	0.001980
3476.000000	0.002015
3475.000000	0.002058
3474.000000	0.002095
3473.000000	0.002121
3472.000000	0.002133
3471.000000	0.002133
3470.000000	0.002123
3469.000000	0.002110
3468.000000	0.002100
3467.000000	0.002095
3466.000000	0.002096
3465.000000	0.002105
3464.000000	0.002125
3463.000000	0.002157
3462.000000	0.002197
3461.000000	0.002235
3460.000000	0.002262
3459.000000	0.002276
3458.000000	0.002282
3457.000000	0.002286
3456.000000	0.002289
3455.000000	0.002291
3454.000000	0.002289
3453.000000	0.002288
3452.000000	0.002294
3451.000000	0.002309
3450.000000	0.002326
3449.000000	0.002337
3448.000000	0.002340
3447.000000	0.002340
3446.000000	0.002346
3445.000000	0.002362
3444.000000	0.002388
3443.000000	0.002422
3442.000000	0.002453
3441.000000	0.002472
3440.000000	0.002472
3439.000000	0.002458
3438.000000	0.002439
3437.000000	0.002426
3436.000000	0.002424
3435.000000	0.002435
3434.000000	0.002454
3433.000000	0.002477
3432.000000	0.002494
3431.000000	0.002500
3430.000000	0.002497
3429.000000	0.002499
3428.000000	0.002518
3427.000000	0.002554
3426.000000	0.002594
3425.000000	0.002619
3424.000000	0.002626
3423.000000	0.002631
3422.000000	0.002648
3421.000000	0.002677
3420.000000	0.002706
3419.000000	0.002722
3418.000000	0.002726
3417.000000	0.002723
3416.000000	0.002716
3415.000000	0.002707
3414.000000	0.002702
3413.000000	0.002710
3412.000000	0.002733
3411.000000	0.002763
3410.000000	0.002786
3409.000000	0.002794
3408.000000	0.002789
3407.000000	0.002780
3406.000000	0.002777
3405.000000	0.002783
3404.000000	0.002792
3403.000000	0.002799
3402.000000	0.002799
3401.000000	0.002792
3400.000000	0.002782
3399.000000	0.002775
3398.000000	0.002772
3397.000000	0.002774
3396.000000	0.002783
3395.000000	0.002801
3394.000000	0.002826
3393.000000	0.002853
3392.000000	0.002878
3391.000000	0.002899
3390.000000	0.002921
3389.000000	0.002952
3388.000000	0.002995
3387.000000	0.003046
3386.000000	0.003093
3385.000000	0.003126
3384.000000	0.003139
3383.000000	0.003132
3382.000000	0.003115
3381.000000	0.003100
3380.000000	0.003094
3379.000000	0.003097
3378.000000	0.003098
3377.000000	0.003096
3376.000000	0.003096
3375.000000	0.003110
3374.000000	0.003141
3373.000000	0.003178
3372.000000	0.003208
3371.000000	0.003225
3370.000000	0.003232
3369.000000	0.003235
3368.000000	0.003239
3367.000000	0.003250
3366.000000	0.003275
3365.000000	0.003314
3364.000000	0.003364
3363.000000	0.003413
3362.000000	0.003451
3361.000000	0.003475
3360.000000	0.003491
3359.000000	0.003505
3358.000000	0.003522
3357.000000	0.003543
3356.000000	0.003565
3355.000000	0.003585
3354.000000	0.003602
3353.000000	0.003618
3352.000000	0.003641
3351.000000	0.003671
3350.000000	0.003707
3349.000000	0.003742
3348.000000	0.003776
3347.000000	0.003811
3346.000000	0.003847
3345.000000	0.003881
3344.000000	0.003910
3343.000000	0.003931
3342.000000	0.003944
3341.000000	0.003953
3340.000000	0.003963
3339.000000	0.003973
3338.000000	0.003979
3337.000000	0.003983
3336.000000	0.003989
3335.000000	0.004004
3334.000000	0.004028
3333.000000	0.004057
3332.000000	0.004089
3331.000000	0.004125
3330.000000	0.004162
3329.000000	0.004197
3328.000000	0.004232
3327.000000	0.004266
3326.000000	0.004300
3325.000000	0.004331
3324.000000	0.004357
3323.000000	0.004378
3322.000000	0.004393
3321.000000	0.004400
3320.000000	0.004392
3319.000000	0.004376
3318.000000	0.004369
3317.000000	0.004381
3316.000000	0.004407
3315.000000	0.004434
3314.000000	0.004453
3313.000000	0.004470
3312.000000	0.004492
3311.000000	0.004519
3310.000000	0.004540
3309.000000	0.004544
3308.000000	0.004530
3307.000000	0.004506
3306.000000	0.004486
3305.000000	0.004481
3304.000000	0.004496
3303.000000	0.004525
3302.000000	0.004557
3301.000000	0.004580
3300.000000	0.004593
3299.000000	0.004598
3298.000000	0.004603
3297.000000	0.004611
3296.000000	0.004622
3295.000000	0.004626
3294.000000	0.004615
3293.000000	0.004592
3292.000000	0.004572
3291.000000	0.004569
3290.000000	0.004585
3289.000000	0.004610
3288.000000	0.004631
3287.000000	0.004643
3286.000000	0.004654
3285.000000	0.004670
3284.000000	0.004686
3283.000000	0.004692
3282.000000	0.004682
3281.000000	0.004660
3280.000000	0.004633
3279.000000	0.004602
3278.000000	0.004567
3277.000000	0.004530
3276.000000	0.004497
3275.000000	0.004476
3274.000000	0.004467
3273.000000	0.004472
3272.000000	0.004487
3271.000000	0.004506
3270.000000	0.004520
3269.000000	0.004523
3268.000000	0.004520
3267.000000	0.004520
3266.000000	0.004528
3265.000000	0.004540
3264.000000	0.004549
3263.000000	0.004549
3262.000000	0.004533
3261.000000	0.004503
3260.000000	0.004469
3259.000000	0.004441
3258.000000	0.004420
3257.000000	0.004402
3256.000000	0.004390
3255.000000	0.004387
3254.000000	0.004397
3253.000000	0.004408
3252.000000	0.004404
3251.000000	0.004377
3250.000000	0.004336
3249.000000	0.004294
3248.000000	0.004262
3247.000000	0.004243
3246.000000	0.004233
3245.000000	0.004229
3244.000000	0.004227
3243.000000	0.004223
3242.000000	0.004220
3241.000000	0.004221
3240.000000	0.004225
3239.000000	0.004226
3238.000000	0.004214
3237.000000	0.004185
3236.000000	0.004145
3235.000000	0.004109
3234.000000	0.004083
3233.000000	0.004071
3232.000000	0.004071
3231.000000	0.004082
3230.000000	0.004100
3229.000000	0.004120
3228.000000	0.004136
3227.000000	0.004144
3226.000000	0.004139
3225.000000	0.004120
3224.000000	0.004092
3223.000000	0.004065
3222.000000	0.004051
3221.000000	0.004057
3220.000000	0.004075
3219.000000	0.004091
3218.000000	0.004093
3217.000000	0.004073
3216.000000	0.004037
3215.000000	0.003997
3214.000000	0.003966
3213.000000	0.003950
3212.000000	0.003952
3211.000000	0.003967
3210.000000	0.003988
3209.000000	0.004005
3208.000000	0.004010
3207.000000	0.003998
3206.000000	0.003977
3205.000000	0.003957
3204.000000	0.003947
3203.000000	0.003939
3202.000000	0.003920
3201.000000	0.003888
3200.000000	0.003854
3199.000000	0.003838
3198.000000	0.003846
3197.000000	0.003866
3196.000000	0.003880
3195.000000	0.003877
3194.000000	0.003859
3193.000000	0.003834
3192.000000	0.003815
3191.000000	0.003802
3190.000000	0.003790
3189.000000	0.003768
3188.000000	0.003734
3187.000000	0.003694
3186.000000	0.003659
3185.000000	0.003635
3184.000000	0.003623
3183.000000	0.003619
3182.000000	0.003618
3181.000000	0.003616
3180.000000	0.003614
3179.000000	0.003611
3178.000000	0.003605
3177.000000	0.003591
3176.000000	0.003570
3175.000000	0.003547
3174.000000	0.003529
3173.000000	0.003522
3172.000000	0.003524
3171.000000	0.003529
3170.000000	0.003531
3169.000000	0.003524
3168.000000	0.003507
3167.000000	0.003483
3166.000000	0.003457
3165.000000	0.003435
3164.000000	0.003419
3163.000000	0.003407
3162.000000	0.003389
3161.000000	0.003360
3160.000000	0.003324
3159.000000	0.003296
3158.000000	0.003285
3157.000000	0.003286
3156.000000	0.003288
3155.000000	0.003286
3154.000000	0.003282
3153.000000	0.003274
3152.000000	0.003254
3151.000000	0.003219
3150.000000	0.003176
3149.000000	0.003141
3148.000000	0.003123
3147.000000	0.003121
3146.000000	0.003126
3145.000000	0.003125
3144.000000	0.003110
3143.000000	0.003086
3142.000000	0.003062
3141.000000	0.003050
3140.000000	0.003053
3139.000000	0.003065
3138.000000	0.003078
3137.000000	0.003084
3136.000000	0.003078
3135.000000	0.003058
3134.000000	0.003025
3133.000000	0.002986
3132.000000	0.002953
3131.000000	0.002933
3130.000000	0.002929
3129.000000	0.002933
3128.000000	0.002938
3127.000000	0.002935
3126.000000	0.002923
3125.000000	0.002905
3124.000000	0.002884
3123.000000	0.002859
3122.000000	0.002836
3121.000000	0.002820
3120.000000	0.002816
3119.000000	0.002824
3118.000000	0.002843
3117.000000	0.002871
3116.000000	0.002906
3115.000000	0.002940
3114.000000	0.002956
3113.000000	0.002949
3112.000000	0.002925
3111.000000	0.002904
3110.000000	0.002897
3109.000000	0.002908
3108.000000	0.002928
3107.000000	0.002947
3106.000000	0.002961
3105.000000	0.002968
3104.000000	0.002972
3103.000000	0.002973
3102.000000	0.002974
3101.000000	0.002983
3100.000000	0.003006
3099.000000	0.003042
3098.000000	0.003077
3097.000000	0.003093
3096.000000	0.003085
3095.000000	0.003063
3094.000000	0.003038
3093.000000	0.003018
3092.000000	0.003008
3091.000000	0.003009
3090.000000	0.003022
3089.000000	0.003038
3088.000000	0.003049
3087.000000	0.003048
3086.000000	0.003039
3085.000000	0.003038
3084.000000	0.003057
3083.000000	0.003090
3082.000000	0.003116
3081.000000	0.003119
3080.000000	0.003103
3079.000000	0.003089
3078.000000	0.003094
3077.000000	0.003110
3076.000000	0.003123
3075.000000	0.003126
3074.000000	0.003129
3073.000000	0.003143
3072.000000	0.003168
3071.000000	0.003189
3070.000000	0.003192
3069.000000	0.003170
3068.000000	0.003129
3067.000000	0.003082
3066.000000	0.003046
3065.000000	0.003034
3064.000000	0.003045
3063.000000	0.003068
3062.000000	0.003087
3061.000000	0.003092
3060.000000	0.003083
3059.000000	0.003067
3058.000000	0.003055
3057.000000	0.003051
3056.000000	0.003056
3055.000000	0.003059
3054.000000	0.003051
3053.000000	0.003029
3052.000000	0.002999
3051.000000	0.002971
3050.000000	0.002951
3049.000000	0.002936
3048.000000	0.002920
3047.000000	0.002897
3046.000000	0.002870
3045.000000	0.002849
3044.000000	0.002843
3043.000000	0.002851
3042.000000	0.002859
3041.000000	0.002858
3040.000000	0.002845
3039.000000	0.002830
3038.000000	0.002816
3037.000000	0.002802
3036.000000	0.002786
3035.000000	0.002763
3034.000000	0.002732
3033.000000	0.002694
3032.000000	0.002659
3031.000000	0.002639
3030.000000	0.002640
3029.000000	0.002653
3028.000000	0.002661
3027.000000	0.002651
3026.000000	0.002623
3025.000000	0.002587
3024.000000	0.002554
3023.000000	0.002530
3022.000000	0.002517
3021.000000	0.002514
3020.000000	0.002517
3019.000000	0.002522
3018.000000	0.002528
3017.000000	0.002532
3016.000000	0.002539
3015.000000	0.002546
3014.000000	0.002554
3013.000000	0.002560
3012.000000	0.002567
3011.000000	0.002576
3010.000000	0.002583
3009.000000	0.002587
3008.000000	0.002586
3007.000000	0.002583
3006.000000	0.002580
3005.000000	0.002574
3004.000000	0.002565
3003.000000	0.002557
3002.000000	0.002556
3001.000000	0.002561
3000.000000	0.002570
2999.000000	0.002578
2998.000000	0.002582
2997.000000	0.002577
2996.000000	0.002564
2995.000000	0.002546
2994.000000	0.002535
2993.000000	0.002540
2992.000000	0.002560
2991.000000	0.002586
2990.000000	0.002608
2989.000000	0.002624
2988.000000	0.002634
2987.000000	0.002638
2986.000000	0.002641
2985.000000	0.002648
2984.000000	0.002665
2983.000000	0.002695
2982.000000	0.002732
2981.000000	0.002769
2980.000000	0.002801
2979.000000	0.002826
2978.000000	0.002845
2977.000000	0.002860
2976.000000	0.002873
2975.000000	0.002889
2974.000000	0.002910
2973.000000	0.002938
2972.000000	0.002975
2971.000000	0.003023
2970.000000	0.003084
2969.000000	0.003155
2968.000000	0.003224
2967.000000	0.003283
2966.000000	0.003337
2965.000000	0.003399
2964.000000	0.003479
2963.000000	0.003572
2962.000000	0.003666
2961.000000	0.003748
2960.000000	0.003812
2959.000000	0.003853
2958.000000	0.003866
2957.000000	0.003853
2956.000000	0.003830
2955.000000	0.003814
2954.000000	0.003814
2953.000000	0.003823
2952.000000	0.003834
2951.000000	0.003847
2950.000000	0.003863
2949.000000	0.003888
2948.000000	0.003920
2947.000000	0.003961
2946.000000	0.004006
2945.000000	0.004052
2944.000000	0.004103
2943.000000	0.004167
2942.000000	0.004256
2941.000000	0.004368
2940.000000	0.004493
2939.000000	0.004612
2938.000000	0.004717
2937.000000	0.004817
2936.000000	0.004927
2935.000000	0.005061
2934.000000	0.005220
2933.000000	0.005392
2932.000000	0.005563
2931.000000	0.005731
2930.000000	0.005889
2929.000000	0.006031
2928.000000	0.006148
2927.000000	0.006244
2926.000000	0.006329
2925.000000	0.006406
2924.000000	0.006467
2923.000000	0.006501
2922.000000	0.006502
2921.000000	0.006468
2920.000000	0.006395
2919.000000	0.006276
2918.000000	0.006119
2917.000000	0.005943
2916.000000	0.005767
2915.000000	0.005599
2914.000000	0.005436
2913.000000	0.005281
2912.000000	0.005138
2911.000000	0.005012
2910.000000	0.004901
2909.000000	0.004796
2908.000000	0.004693
2907.000000	0.004592
2906.000000	0.004499
2905.000000	0.004421
2904.000000	0.004356
2903.000000	0.004297
2902.000000	0.004236
2901.000000	0.004170
2900.000000	0.004102
2899.000000	0.004039
2898.000000	0.003984
2897.000000	0.003939
2896.000000	0.003900
2895.000000	0.003865
2894.000000	0.003829
2893.000000	0.003792
2892.000000	0.003753
2891.000000	0.003717
2890.000000	0.003684
2889.000000	0.003656
2888.000000	0.003628
2887.000000	0.003599
2886.000000	0.003565
2885.000000	0.003529
2884.000000	0.003495
2883.000000	0.003469
2882.000000	0.003453
2881.000000	0.003441
2880.000000	0.003433
2879.000000	0.003432
2878.000000	0.003448
2877.000000	0.003481
2876.000000	0.003523
2875.000000	0.003559
2874.000000	0.003581
2873.000000	0.003593
2872.000000	0.003607
2871.000000	0.003634
2870.000000	0.003671
2869.000000	0.003707
2868.000000	0.003725
2867.000000	0.003721
2866.000000	0.003704
2865.000000	0.003699
2864.000000	0.003724
2863.000000	0.003784
2862.000000	0.003870
2861.000000	0.003971
2860.000000	0.004077
2859.000000	0.004187
2858.000000	0.004297
2857.000000	0.004404
2856.000000	0.004505
2855.000000	0.004595
2854.000000	0.004667
2853.000000	0.004710
2852.000000	0.004715
2851.000000	0.004677
2850.000000	0.004597
2849.000000	0.004481
2848.000000	0.004339
2847.000000	0.004182
2846.000000	0.004015
2845.000000	0.003843
2844.000000	0.003672
2843.000000	0.003515
2842.000000	0.003382
2841.000000	0.003279
2840.000000	0.003199
2839.000000	0.003133
2838.000000	0.003071
2837.000000	0.003013
2836.000000	0.002960
2835.000000	0.002915
2834.000000	0.002878
2833.000000	0.002846
2832.000000	0.002815
2831.000000	0.002787
2830.000000	0.002764
2829.000000	0.002745
2828.000000	0.002725
2827.000000	0.002702
2826.000000	0.002677
2825.000000	0.002652
2824.000000	0.002623
2823.000000	0.002591
2822.000000	0.002556
2821.000000	0.002526
2820.000000	0.002505
2819.000000	0.002497
2818.000000	0.002496
2817.000000	0.002496
2816.000000	0.002491
2815.000000	0.002480
2814.000000	0.002465
2813.000000	0.002450
2812.000000	0.002439
2811.000000	0.002435
2810.000000	0.002439
2809.000000	0.002446
2808.000000	0.002445
2807.000000	0.002434
2806.000000	0.002416
2805.000000	0.002401
2804.000000	0.002396
2803.000000	0.002397
2802.000000	0.002396
2801.000000	0.002390
2800.000000	0.002381
2799.000000	0.002374
2798.000000	0.002370
2797.000000	0.002369
2796.000000	0.002368
2795.000000	0.002368
2794.000000	0.002371
2793.000000	0.002380
2792.000000	0.002389
2791.000000	0.002387
2790.000000	0.002373
2789.000000	0.002351
2788.000000	0.002330
2787.000000	0.002319
2786.000000	0.002320
2785.000000	0.002327
2784.000000	0.002327
2783.000000	0.002310
2782.000000	0.002276
2781.000000	0.002239
2780.000000	0.002214
2779.000000	0.002207
2778.000000	0.002215
2777.000000	0.002226
2776.000000	0.002233
2775.000000	0.002234
2774.000000	0.002230
2773.000000	0.002223
2772.000000	0.002215
2771.000000	0.002208
2770.000000	0.002208
2769.000000	0.002220
2768.000000	0.002237
2767.000000	0.002243
2766.000000	0.002229
2765.000000	0.002199
2764.000000	0.002170
2763.000000	0.002151
2762.000000	0.002142
2761.000000	0.002139
2760.000000	0.002137
2759.000000	0.002139
2758.000000	0.002143
2757.000000	0.002150
2756.000000	0.002157
2755.000000	0.002160
2754.000000	0.002157
2753.000000	0.002148
2752.000000	0.002133
2751.000000	0.002112
2750.000000	0.002090
2749.000000	0.002071
2748.000000	0.002062
2747.000000	0.002064
2746.000000	0.002070
2745.000000	0.002073
2744.000000	0.002065
2743.000000	0.002046
2742.000000	0.002018
2741.000000	0.001993
2740.000000	0.001975
2739.000000	0.001963
2738.000000	0.001953
2737.000000	0.001945
2736.000000	0.001945
2735.000000	0.001958
2734.000000	0.001977
2733.000000	0.001992
2732.000000	0.001998
2731.000000	0.002000
2730.000000	0.002002
2729.000000	0.002006
2728.000000	0.002010
2727.000000	0.002011
2726.000000	0.002011
2725.000000	0.002010
2724.000000	0.002009
2723.000000	0.002007
2722.000000	0.002004
2721.000000	0.001993
2720.000000	0.001972
2719.000000	0.001944
2718.000000	0.001921
2717.000000	0.001911
2716.000000	0.001914
2715.000000	0.001920
2714.000000	0.001921
2713.000000	0.001915
2712.000000	0.001904
2711.000000	0.001893
2710.000000	0.001882
2709.000000	0.001873
2708.000000	0.001866
2707.000000	0.001864
2706.000000	0.001869
2705.000000	0.001882
2704.000000	0.001895
2703.000000	0.001901
2702.000000	0.001897
2701.000000	0.001888
2700.000000	0.001883
2699.000000	0.001884
2698.000000	0.001890
2697.000000	0.001892
2696.000000	0.001886
2695.000000	0.001875
2694.000000	0.001866
2693.000000	0.001867
2692.000000	0.001876
2691.000000	0.001884
2690.000000	0.001883
2689.000000	0.001872
2688.000000	0.001863
2687.000000	0.001861
2686.000000	0.001871
2685.000000	0.001883
2684.000000	0.001886
2683.000000	0.001876
2682.000000	0.001856
2681.000000	0.001839
2680.000000	0.001833
2679.000000	0.001836
2678.000000	0.001843
2677.000000	0.001849
2676.000000	0.001853
2675.000000	0.001853
2674.000000	0.001847
2673.000000	0.001836
2672.000000	0.001827
2671.000000	0.001821
2670.000000	0.001819
2669.000000	0.001820
2668.000000	0.001826
2667.000000	0.001838
2666.000000	0.001854
2665.000000	0.001869
2664.000000	0.001878
2663.000000	0.001880
2662.000000	0.001880
2661.000000	0.001885
2660.000000	0.001897
2659.000000	0.001906
2658.000000	0.001907
2657.000000	0.001900
2656.000000	0.001891
2655.000000	0.001887
2654.000000	0.001885
2653.000000	0.001876
2652.000000	0.001855
2651.000000	0.001825
2650.000000	0.001794
2649.000000	0.001769
2648.000000	0.001748
2647.000000	0.001724
2646.000000	0.001700
2645.000000	0.001682
2644.000000	0.001671
2643.000000	0.001662
2642.000000	0.001652
2641.000000	0.001645
2640.000000	0.001650
2639.000000	0.001663
2638.000000	0.001673
2637.000000	0.001675
2636.000000	0.001669
2635.000000	0.001664
2634.000000	0.001657
2633.000000	0.001642
2632.000000	0.001615
2631.000000	0.001582
2630.000000	0.001555
2629.000000	0.001544
2628.000000	0.001549
2627.000000	0.001560
2626.000000	0.001569
2625.000000	0.001574
2624.000000	0.001574
2623.000000	0.001565
2622.000000	0.001549
2621.000000	0.001528
2620.000000	0.001507
2619.000000	0.001484
2618.000000	0.001454
2617.000000	0.001422
2616.000000	0.001391
2615.000000	0.001365
2614.000000	0.001345
2613.000000	0.001338
2612.000000	0.001350
2611.000000	0.001372
2610.000000	0.001387
2609.000000	0.001377
2608.000000	0.001347
2607.000000	0.001315
2606.000000	0.001303
2605.000000	0.001319
2604.000000	0.001346
2603.000000	0.001357
2602.000000	0.001335
2601.000000	0.001293
2600.000000	0.001262
2599.000000	0.001262
2598.000000	0.001282
2597.000000	0.001300
2596.000000	0.001305
2595.000000	0.001310
2594.000000	0.001329
2593.000000	0.001358
2592.000000	0.001374
2591.000000	0.001364
2590.000000	0.001333
2589.000000	0.001304
2588.000000	0.001290
2587.000000	0.001288
2586.000000	0.001285
2585.000000	0.001273
2584.000000	0.001252
2583.000000	0.001230
2582.000000	0.001213
2581.000000	0.001201
2580.000000	0.001191
2579.000000	0.001177
2578.000000	0.001163
2577.000000	0.001155
2576.000000	0.001155
2575.000000	0.001155
2574.000000	0.001147
2573.000000	0.001137
2572.000000	0.001138
2571.000000	0.001149
2570.000000	0.001162
2569.000000	0.001173
2568.000000	0.001182
2567.000000	0.001183
2566.000000	0.001167
2565.000000	0.001134
2564.000000	0.001108
2563.000000	0.001113
2562.000000	0.001146
2561.000000	0.001186
2560.000000	0.001210
2559.000000	0.001206
2558.000000	0.001179
2557.000000	0.001146
2556.000000	0.001123
2555.000000	0.001116
2554.000000	0.001118
2553.000000	0.001113
2552.000000	0.001099
2551.000000	0.001092
2550.000000	0.001102
2549.000000	0.001124
2548.000000	0.001139
2547.000000	0.001137
2546.000000	0.001125
2545.000000	0.001120
2544.000000	0.001125
2543.000000	0.001126
2542.000000	0.001112
2541.000000	0.001087
2540.000000	0.001066
2539.000000	0.001064
2538.000000	0.001085
2537.000000	0.001122
2536.000000	0.001159
2535.000000	0.001177
2534.000000	0.001167
2533.000000	0.001137
2532.000000	0.001110
2531.000000	0.001101
2530.000000	0.001113
2529.000000	0.001143
2528.000000	0.001187
2527.000000	0.001230
2526.000000	0.001253
2525.000000	0.001243
2524.000000	0.001202
2523.000000	0.001144
2522.000000	0.001087
2521.000000	0.001049
2520.000000	0.001046
2519.000000	0.001075
2518.000000	0.001113
2517.000000	0.001137
2516.000000	0.001140
2515.000000	0.001133
2514.000000	0.001120
2513.000000	0.001092
2512.000000	0.001048
2511.000000	0.001003
2510.000000	0.000986
2509.000000	0.001007
2508.000000	0.001055
2507.000000	0.001105
2506.000000	0.001141
2505.000000	0.001160
2504.000000	0.001161
2503.000000	0.001151
2502.000000	0.001137
2501.000000	0.001126
2500.000000	0.001124
2499.000000	0.001125
2498.000000	0.001123
2497.000000	0.001117
2496.000000	0.001118
2495.000000	0.001133
2494.000000	0.001158
2493.000000	0.001174
2492.000000	0.001165
2491.000000	0.001131
2490.000000	0.001093
2489.000000	0.001073
2488.000000	0.001077
2487.000000	0.001089
2486.000000	0.001092
2485.000000	0.001081
2484.000000	0.001062
2483.000000	0.001039
2482.000000	0.001008
2481.000000	0.000969
2480.000000	0.000939
2479.000000	0.000937
2478.000000	0.000967
2477.000000	0.001009
2476.000000	0.001036
2475.000000	0.001041
2474.000000	0.001033
2473.000000	0.001024
2472.000000	0.001021
2471.000000	0.001028
2470.000000	0.001048
2469.000000	0.001083
2468.000000	0.001123
2467.000000	0.001149
2466.000000	0.001152
2465.000000	0.001133
2464.000000	0.001104
2463.000000	0.001076
2462.000000	0.001052
2461.000000	0.001038
2460.000000	0.001040
2459.000000	0.001064
2458.000000	0.001104
2457.000000	0.001141
2456.000000	0.001160
2455.000000	0.001153
2454.000000	0.001128
2453.000000	0.001100
2452.000000	0.001080
2451.000000	0.001078
2450.000000	0.001086
2449.000000	0.001086
2448.000000	0.001065
2447.000000	0.001024
2446.000000	0.000979
2445.000000	0.000942
2444.000000	0.000919
2443.000000	0.000914
2442.000000	0.000929
2441.000000	0.000959
2440.000000	0.000994
2439.000000	0.001024
2438.000000	0.001048
2437.000000	0.001064
2436.000000	0.001067
2435.000000	0.001053
2434.000000	0.001028
2433.000000	0.001004
2432.000000	0.000988
2431.000000	0.000978
2430.000000	0.000966
2429.000000	0.000940
2428.000000	0.000900
2427.000000	0.000862
2426.000000	0.000850
2425.000000	0.000877
2424.000000	0.000932
2423.000000	0.000984
2422.000000	0.001014
2421.000000	0.001014
2420.000000	0.000994
2419.000000	0.000971
2418.000000	0.000963
2417.000000	0.000972
2416.000000	0.000983
2415.000000	0.000979
2414.000000	0.000965
2413.000000	0.000954
2412.000000	0.000951
2411.000000	0.000946
2410.000000	0.000939
2409.000000	0.000940
2408.000000	0.000957
2407.000000	0.000980
2406.000000	0.000990
2405.000000	0.000976
2404.000000	0.000946
2403.000000	0.000916
2402.000000	0.000898
2401.000000	0.000895
2400.000000	0.000903
2399.000000	0.000920
2398.000000	0.000946
2397.000000	0.000976
2396.000000	0.001002
2395.000000	0.001018
2394.000000	0.001022
2393.000000	0.001012
2392.000000	0.000987
2391.000000	0.000957
2390.000000	0.000939
2389.000000	0.000943
2388.000000	0.000959
2387.000000	0.000968
2386.000000	0.000965
2385.000000	0.000964
2384.000000	0.000968
2383.000000	0.000964
2382.000000	0.000935
2381.000000	0.000886
2380.000000	0.000846
2379.000000	0.000843
2378.000000	0.000886
2377.000000	0.000952
2376.000000	0.001002
2375.000000	0.001012
2374.000000	0.000990
2373.000000	0.000963
2372.000000	0.000952
2371.000000	0.000953
2370.000000	0.000948
2369.000000	0.000923
2368.000000	0.000883
2367.000000	0.000862
2366.000000	0.000895
2365.000000	0.000993
2364.000000	0.001115
2363.000000	0.001201
2362.000000	0.001213
2361.000000	0.001160
2360.000000	0.001095
2359.000000	0.001064
2358.000000	0.001066
2357.000000	0.001071
2356.000000	0.001069
2355.000000	0.001080
2354.000000	0.001100
2353.000000	0.001103
2352.000000	0.001084
2351.000000	0.001063
2350.000000	0.001063
2349.000000	0.001087
2348.000000	0.001118
2347.000000	0.001134
2346.000000	0.001133
2345.000000	0.001136
2344.000000	0.001157
2343.000000	0.001176
2342.000000	0.001175
2341.000000	0.001156
2340.000000	0.001140
2339.000000	0.001143
2338.000000	0.001163
2337.000000	0.001184
2336.000000	0.001193
2335.000000	0.001184
2334.000000	0.001152
2333.000000	0.001105
2332.000000	0.001066
2331.000000	0.001056
2330.000000	0.001081
2329.000000	0.001129
2328.000000	0.001185
2327.000000	0.001230
2326.000000	0.001253
2325.000000	0.001258
2324.000000	0.001254
2323.000000	0.001239
2322.000000	0.001214
2321.000000	0.001194
2320.000000	0.001207
2319.000000	0.001249
2318.000000	0.001289
2317.000000	0.001295
2316.000000	0.001267
2315.000000	0.001226
2314.000000	0.001187
2313.000000	0.001145
2312.000000	0.001090
2311.000000	0.001021
2310.000000	0.000962
2309.000000	0.000934
2308.000000	0.000940
2307.000000	0.000952
2306.000000	0.000946
2305.000000	0.000929
2304.000000	0.000929
2303.000000	0.000955
2302.000000	0.000983
2301.000000	0.000981
2300.000000	0.000940
2299.000000	0.000887
2298.000000	0.000856
2297.000000	0.000858
2296.000000	0.000885
2295.000000	0.000914
2294.000000	0.000931
2293.000000	0.000927
2292.000000	0.000905
2291.000000	0.000877
2290.000000	0.000863
2289.000000	0.000882
2288.000000	0.000932
2287.000000	0.000992
2286.000000	0.001037
2285.000000	0.001052
2284.000000	0.001035
2283.000000	0.000992
2282.000000	0.000947
2281.000000	0.000924
2280.000000	0.000934
2279.000000	0.000962
2278.000000	0.000986
2277.000000	0.000996
2276.000000	0.000985
2275.000000	0.000951
2274.000000	0.000900
2273.000000	0.000859
2272.000000	0.000861
2271.000000	0.000908
2270.000000	0.000965
2269.000000	0.000992
2268.000000	0.000970
2267.000000	0.000915
2266.000000	0.000850
2265.000000	0.000784
2264.000000	0.000718
2263.000000	0.000664
2262.000000	0.000652
2261.000000	0.000706
2260.000000	0.000807
2259.000000	0.000905
2258.000000	0.000961
2257.000000	0.000970
2256.000000	0.000947
2255.000000	0.000917
2254.000000	0.000900
2253.000000	0.000904
2252.000000	0.000916
2251.000000	0.000922
2250.000000	0.000922
2249.000000	0.000927
2248.000000	0.000932
2247.000000	0.000917
2246.000000	0.000871
2245.000000	0.000804
2244.000000	0.000729
2243.000000	0.000657
2242.000000	0.000617
2241.000000	0.000638
2240.000000	0.000706
2239.000000	0.000760
2238.000000	0.000756
2237.000000	0.000717
2236.000000	0.000703
2235.000000	0.000742
2234.000000	0.000816
2233.000000	0.000883
2232.000000	0.000910
2231.000000	0.000887
2230.000000	0.000836
2229.000000	0.000795
2228.000000	0.000770
2227.000000	0.000731
2226.000000	0.000655
2225.000000	0.000568
2224.000000	0.000513
2223.000000	0.000511
2222.000000	0.000551
2221.000000	0.000617
2220.000000	0.000669
2219.000000	0.000658
2218.000000	0.000576
2217.000000	0.000494
2216.000000	0.000501
2215.000000	0.000611
2214.000000	0.000748
2213.000000	0.000834
2212.000000	0.000842
2211.000000	0.000788
2210.000000	0.000703
2209.000000	0.000630
2208.000000	0.000602
2207.000000	0.000612
2206.000000	0.000626
2205.000000	0.000623
2204.000000	0.000613
2203.000000	0.000602
2202.000000	0.000572
2201.000000	0.000511
2200.000000	0.000448
2199.000000	0.000439
2198.000000	0.000521
2197.000000	0.000673
2196.000000	0.000824
2195.000000	0.000900
2194.000000	0.000877
2193.000000	0.000798
2192.000000	0.000735
2191.000000	0.000730
2190.000000	0.000770
2189.000000	0.000810
2188.000000	0.000824
2187.000000	0.000828
2186.000000	0.000864
2185.000000	0.000951
2184.000000	0.001043
2183.000000	0.001067
2182.000000	0.001001
2181.000000	0.000887
2180.000000	0.000778
2179.000000	0.000684
2178.000000	0.000609
2177.000000	0.000583
2176.000000	0.000630
2175.000000	0.000722
2174.000000	0.000799
2173.000000	0.000826
2172.000000	0.000799
2171.000000	0.000731
2170.000000	0.000667
2169.000000	0.000680
2168.000000	0.000793
2167.000000	0.000898
2166.000000	0.000845
2165.000000	0.000607
2164.000000	0.000345
2163.000000	0.000251
2162.000000	0.000381
2161.000000	0.000637
2160.000000	0.000865
2159.000000	0.000945
2158.000000	0.000836
2157.000000	0.000585
2156.000000	0.000280
2155.000000	-0.000003
2154.000000	-0.000200
2153.000000	-0.000258
2152.000000	-0.000181
2151.000000	-0.000057
2150.000000	0.000011
2149.000000	0.000015
2148.000000	0.000056
2147.000000	0.000200
2146.000000	0.000379
2145.000000	0.000453
2144.000000	0.000378
2143.000000	0.000239
2142.000000	0.000155
2141.000000	0.000171
2140.000000	0.000254
2139.000000	0.000354
2138.000000	0.000427
2137.000000	0.000434
2136.000000	0.000364
2135.000000	0.000259
2134.000000	0.000198
2133.000000	0.000228
2132.000000	0.000329
2131.000000	0.000430
2130.000000	0.000468
2129.000000	0.000430
2128.000000	0.000356
2127.000000	0.000315
2126.000000	0.000349
2125.000000	0.000436
2124.000000	0.000516
2123.000000	0.000546
2122.000000	0.000533
2121.000000	0.000505
2120.000000	0.000479
2119.000000	0.000462
2118.000000	0.000466
2117.000000	0.000511
2116.000000	0.000598
2115.000000	0.000702
2114.000000	0.000789
2113.000000	0.000831
2112.000000	0.000820
2111.000000	0.000775
2110.000000	0.000731
2109.000000	0.000721
2108.000000	0.000741
2107.000000	0.000759
2106.000000	0.000744
2105.000000	0.000694
2104.000000	0.000642
2103.000000	0.000621
2102.000000	0.000639
2101.000000	0.000671
2100.000000	0.000682
2099.000000	0.000663
2098.000000	0.000629
2097.000000	0.000591
2096.000000	0.000547
2095.000000	0.000490
2094.000000	0.000424
2093.000000	0.000343
2092.000000	0.000250
2091.000000	0.000179
2090.000000	0.000182
2089.000000	0.000274
2088.000000	0.000395
2087.000000	0.000468
2086.000000	0.000473
2085.000000	0.000447
2084.000000	0.000430
2083.000000	0.000435
2082.000000	0.000471
2081.000000	0.000538
2080.000000	0.000609
2079.000000	0.000641
2078.000000	0.000610
2077.000000	0.000535
2076.000000	0.000462
2075.000000	0.000435
2074.000000	0.000480
2073.000000	0.000585
2072.000000	0.000694
2071.000000	0.000748
2070.000000	0.000737
2069.000000	0.000684
2068.000000	0.000602
2067.000000	0.000498
2066.000000	0.000412
2065.000000	0.000402
2064.000000	0.000469
2063.000000	0.000542
2062.000000	0.000556
2061.000000	0.000505
2060.000000	0.000431
2059.000000	0.000375
2058.000000	0.000368
2057.000000	0.000415
2056.000000	0.000485
2055.000000	0.000521
2054.000000	0.000505
2053.000000	0.000477
2052.000000	0.000487
2051.000000	0.000546
2050.000000	0.000617
2049.000000	0.000639
2048.000000	0.000571
2047.000000	0.000432
2046.000000	0.000319
2045.000000	0.000314
2044.000000	0.000401
2043.000000	0.000482
2042.000000	0.000499
2041.000000	0.000456
2040.000000	0.000365
2039.000000	0.000218
2038.000000	0.000065
2037.000000	0.000005
2036.000000	0.000082
2035.000000	0.000212
2034.000000	0.000287
2033.000000	0.000269
2032.000000	0.000171
2031.000000	0.000005
2030.000000	-0.000188
2029.000000	-0.000324
2028.000000	-0.000337
2027.000000	-0.000246
2026.000000	-0.000112
2025.000000	0.000007
2024.000000	0.000061
2023.000000	0.000018
2022.000000	-0.000091
2021.000000	-0.000193
2020.000000	-0.000241
2019.000000	-0.000223
2018.000000	-0.000118
2017.000000	0.000083
2016.000000	0.000275
2015.000000	0.000295
2014.000000	0.000111
2013.000000	-0.000118
2012.000000	-0.000208
2011.000000	-0.000121
2010.000000	0.000069
2009.000000	0.000291
2008.000000	0.000483
2007.000000	0.000566
2006.000000	0.000512
2005.000000	0.000397
2004.000000	0.000332
2003.000000	0.000341
2002.000000	0.000361
2001.000000	0.000336
2000.000000	0.000263
1999.000000	0.000171
1998.000000	0.000094
1997.000000	0.000062
1996.000000	0.000078
1995.000000	0.000115
1994.000000	0.000137
1993.000000	0.000127
1992.000000	0.000085
1991.000000	0.000025
1990.000000	-0.000017
1989.000000	-0.000002
1988.000000	0.000064
1987.000000	0.000143
1986.000000	0.000223
1985.000000	0.000334
1984.000000	0.000480
1983.000000	0.000600
1982.000000	0.000627
1981.000000	0.000549
1980.000000	0.000392
1979.000000	0.000189
1978.000000	0.000001
1977.000000	-0.000101
1976.000000	-0.000129
1975.000000	-0.000193
1974.000000	-0.000355
1973.000000	-0.000534
1972.000000	-0.000591
1971.000000	-0.000487
1970.000000	-0.000308
1969.000000	-0.000168
1968.000000	-0.000132
1967.000000	-0.000193
1966.000000	-0.000273
1965.000000	-0.000280
1964.000000	-0.000194
1963.000000	-0.000091
1962.000000	-0.000062
1961.000000	-0.000121
1960.000000	-0.000204
1959.000000	-0.000246
1958.000000	-0.000219
1957.000000	-0.000126
1956.000000	0.000009
1955.000000	0.000135
1954.000000	0.000197
1953.000000	0.000179
1952.000000	0.000112
1951.000000	0.000041
1950.000000	-0.000009
1949.000000	-0.000054
1948.000000	-0.000106
1947.000000	-0.000154
1946.000000	-0.000177
1945.000000	-0.000185
1944.000000	-0.000210
1943.000000	-0.000246
1942.000000	-0.000230
1941.000000	-0.000125
1940.000000	0.000022
1939.000000	0.000144
1938.000000	0.000227
1937.000000	0.000289
1936.000000	0.000314
1935.000000	0.000258
1934.000000	0.000121
1933.000000	-0.000030
1932.000000	-0.000128
1931.000000	-0.000153
1930.000000	-0.000107
1929.000000	0.000004
1928.000000	0.000150
1927.000000	0.000265
1926.000000	0.000308
1925.000000	0.000297
1924.000000	0.000267
1923.000000	0.000236
1922.000000	0.000204
1921.000000	0.000180
1920.000000	0.000164
1919.000000	0.000140
1918.000000	0.000096
1917.000000	0.000056
1916.000000	0.000046
1915.000000	0.000065
1914.000000	0.000096
1913.000000	0.000128
1912.000000	0.000153
1911.000000	0.000168
1910.000000	0.000173
1909.000000	0.000170
1908.000000	0.000158
1907.000000	0.000135
1906.000000	0.000108
1905.000000	0.000096
1904.000000	0.000101
1903.000000	0.000103
1902.000000	0.000083
1901.000000	0.000048
1900.000000	0.000018
1899.000000	0.000005
1898.000000	0.000013
1897.000000	0.000037
1896.000000	0.000066
1895.000000	0.000085
1894.000000	0.000090
1893.000000	0.000080
1892.000000	0.000051
1891.000000	0.000007
1890.000000	-0.000021
1889.000000	0.000001
1888.000000	0.000061
1887.000000	0.000100
1886.000000	0.000085
1885.000000	0.000031
1884.000000	-0.000020
1883.000000	-0.000044
1882.000000	-0.000042
1881.000000	-0.000030
1880.000000	-0.000024
1879.000000	-0.000034
1878.000000	-0.000050
1877.000000	-0.000054
1876.000000	-0.000041
1875.000000	-0.000025
1874.000000	-0.000013
1873.000000	-0.000000
1872.000000	0.000007
1871.000000	-0.000012
1870.000000	-0.000068
1869.000000	-0.000131
1868.000000	-0.000160
1867.000000	-0.000150
1866.000000	-0.000124
1865.000000	-0.000101
1864.000000	-0.000097
1863.000000	-0.000117
1862.000000	-0.000143
1861.000000	-0.000144
1860.000000	-0.000113
1859.000000	-0.000065
1858.000000	-0.000020
1857.000000	0.000012
1856.000000	0.000026
1855.000000	0.000023
1854.000000	0.000020
1853.000000	0.000038
1852.000000	0.000069
1851.000000	0.000074
1850.000000	0.000030
1849.000000	-0.000046
1848.000000	-0.000113
1847.000000	-0.000133
1846.000000	-0.000088
1845.000000	0.000012
1844.000000	0.000120
1843.000000	0.000161
1842.000000	0.000116
1841.000000	0.000036
1840.000000	-0.000022
1839.000000	-0.000050
1838.000000	-0.000062
1837.000000	-0.000072
1836.000000	-0.000081
1835.000000	-0.000093
1834.000000	-0.000114
1833.000000	-0.000151
1832.000000	-0.000204
1831.000000	-0.000259
1830.000000	-0.000283
1829.000000	-0.000259
1828.000000	-0.000229
1827.000000	-0.000228
1826.000000	-0.000239
1825.000000	-0.000222
1824.000000	-0.000181
1823.000000	-0.000162
1822.000000	-0.000177
1821.000000	-0.000192
1820.000000	-0.000179
1819.000000	-0.000152
1818.000000	-0.000136
1817.000000	-0.000131
1816.000000	-0.000126
1815.000000	-0.000131
1814.000000	-0.000153
1813.000000	-0.000176
1812.000000	-0.000181
1811.000000	-0.000169
1810.000000	-0.000154
1809.000000	-0.000139
1808.000000	-0.000115
1807.000000	-0.000090
1806.000000	-0.000083
1805.000000	-0.000103
1804.000000	-0.000147
1803.000000	-0.000200
1802.000000	-0.000238
1801.000000	-0.000238
1800.000000	-0.000202
1799.000000	-0.000162
1798.000000	-0.000145
1797.000000	-0.000146
1796.000000	-0.000153
1795.000000	-0.000162
1794.000000	-0.000172
1793.000000	-0.000172
1792.000000	-0.000155
1791.000000	-0.000143
1790.000000	-0.000166
1789.000000	-0.000207
1788.000000	-0.000230
1787.000000	-0.000225
1786.000000	-0.000205
1785.000000	-0.000190
1784.000000	-0.000202
1783.000000	-0.000250
1782.000000	-0.000318
1781.000000	-0.000366
1780.000000	-0.000369
1779.000000	-0.000349
1778.000000	-0.000338
1777.000000	-0.000342
1776.000000	-0.000345
1775.000000	-0.000342
1774.000000	-0.000346
1773.000000	-0.000359
1772.000000	-0.000356
1771.000000	-0.000331
1770.000000	-0.000309
1769.000000	-0.000295
1768.000000	-0.000280
1767.000000	-0.000268
1766.000000	-0.000265
1765.000000	-0.000256
1764.000000	-0.000229
1763.000000	-0.000193
1762.000000	-0.000166
1761.000000	-0.000148
1760.000000	-0.000138
1759.000000	-0.000122
1758.000000	-0.000075
1757.000000	0.000028
1756.000000	0.000179
1755.000000	0.000326
1754.000000	0.000438
1753.000000	0.000526
1752.000000	0.000613
1751.000000	0.000702
1750.000000	0.000780
1749.000000	0.000852
1748.000000	0.000937
1747.000000	0.001028
1746.000000	0.001090
1745.000000	0.001107
1744.000000	0.001092
1743.000000	0.001066
1742.000000	0.001033
1741.000000	0.000973
1740.000000	0.000878
1739.000000	0.000778
1738.000000	0.000707
1737.000000	0.000676
1736.000000	0.000648
1735.000000	0.000559
1734.000000	0.000424
1733.000000	0.000307
1732.000000	0.000211
1731.000000	0.000134
1730.000000	0.000091
1729.000000	0.000079
1728.000000	0.000067
1727.000000	0.000024
1726.000000	-0.000047
1725.000000	-0.000119
1724.000000	-0.000167
1723.000000	-0.000196
1722.000000	-0.000217
1721.000000	-0.000225
1720.000000	-0.000229
1719.000000	-0.000262
1718.000000	-0.000318
1717.000000	-0.000324
1716.000000	-0.000269
1715.000000	-0.000209
1714.000000	-0.000167
1713.000000	-0.000139
1712.000000	-0.000119
1711.000000	-0.000105
1710.000000	-0.000083
1709.000000	-0.000039
1708.000000	0.000023
1707.000000	0.000080
1706.000000	0.000139
1705.000000	0.000248
1704.000000	0.000419
1703.000000	0.000621
1702.000000	0.000824
1701.000000	0.001017
1700.000000	0.001204
1699.000000	0.001336
1698.000000	0.001411
1697.000000	0.001531
1696.000000	0.001771
1695.000000	0.002072
1694.000000	0.002307
1693.000000	0.002467
1692.000000	0.002599
1691.000000	0.002717
1690.000000	0.002830
1689.000000	0.002969
1688.000000	0.003151
1687.000000	0.003354
1686.000000	0.003545
1685.000000	0.003717
1684.000000	0.003941
1683.000000	0.004218
1682.000000	0.004450
1681.000000	0.004666
1680.000000	0.004924
1679.000000	0.005213
1678.000000	0.005504
1677.000000	0.005793
1676.000000	0.006094
1675.000000	0.006406
1674.000000	0.006697
1673.000000	0.006955
1672.000000	0.007204
1671.000000	0.007457
1670.000000	0.007731
1669.000000	0.008051
1668.000000	0.008397
1667.000000	0.008721
1666.000000	0.009019
1665.000000	0.009304
1664.000000	0.009577
1663.000000	0.009839
1662.000000	0.010102
1661.000000	0.010363
1660.000000	0.010607
1659.000000	0.010830
1658.000000	0.011046
1657.000000	0.011291
1656.000000	0.011577
1655.000000	0.011843
1654.000000	0.011997
1653.000000	0.012108
1652.000000	0.012215
1651.000000	0.012219
1650.000000	0.012206
1649.000000	0.012222
1648.000000	0.012249
1647.000000	0.012304
1646.000000	0.012425
1645.000000	0.012560
1644.000000	0.012661
1643.000000	0.012742
1642.000000	0.012820
1641.000000	0.012900
1640.000000	0.012985
1639.000000	0.013067
1638.000000	0.013130
1637.000000	0.013155
1636.000000	0.013166
1635.000000	0.013208
1634.000000	0.013242
1633.000000	0.013241
1632.000000	0.013233
1631.000000	0.013218
1630.000000	0.013163
1629.000000	0.013050
1628.000000	0.012900
1627.000000	0.012747
1626.000000	0.012588
1625.000000	0.012381
1624.000000	0.012095
1623.000000	0.011768
1622.000000	0.011479
1621.000000	0.011256
1620.000000	0.011075
1619.000000	0.010880
1618.000000	0.010600
1617.000000	0.010217
1616.000000	0.009824
1615.000000	0.009505
1614.000000	0.009258
1613.000000	0.009034
1612.000000	0.008781
1611.000000	0.008486
1610.000000	0.008178
1609.000000	0.007892
1608.000000	0.007644
1607.000000	0.007438
1606.000000	0.007265
1605.000000	0.007102
1604.000000	0.006935
1603.000000	0.006774
1602.000000	0.006635
1601.000000	0.006516
1600.000000	0.006404
1599.000000	0.006298
1598.000000	0.006200
1597.000000	0.006105
1596.000000	0.006004
1595.000000	0.005912
1594.000000	0.005853
1593.000000	0.005829
1592.000000	0.005820
1591.000000	0.005808
1590.000000	0.005790
1589.000000	0.005770
1588.000000	0.005762
1587.000000	0.005785
1586.000000	0.005849
1585.000000	0.005936
1584.000000	0.006024
1583.000000	0.006108
1582.000000	0.006198
1581.000000	0.006296
1580.000000	0.006392
1579.000000	0.006482
1578.000000	0.006557
1577.000000	0.006608
1576.000000	0.006675
1575.000000	0.006794
1574.000000	0.006939
1573.000000	0.007085
1572.000000	0.007220
1571.000000	0.007343
1570.000000	0.007477
1569.000000	0.007651
1568.000000	0.007833
1567.000000	0.007997
1566.000000	0.008162
1565.000000	0.008346
1564.000000	0.008558
1563.000000	0.008801
1562.000000	0.009077
1561.000000	0.009325
1560.000000	0.009412
1559.000000	0.009421
1558.000000	0.009621
1557.000000	0.009820
1556.000000	0.009928
1555.000000	0.010022
1554.000000	0.010130
1553.000000	0.010238
1552.000000	0.010329
1551.000000	0.010402
1550.000000	0.010474
1549.000000	0.010568
1548.000000	0.010677
1547.000000	0.010770
1546.000000	0.010820
1545.000000	0.010829
1544.000000	0.010837
1543.000000	0.010860
1542.000000	0.010843
1541.000000	0.010732
1540.000000	0.010612
1539.000000	0.010594
1538.000000	0.010607
1537.000000	0.010607
1536.000000	0.010596
1535.000000	0.010534
1534.000000	0.010403
1533.000000	0.010278
1532.000000	0.010207
1531.000000	0.010138
1530.000000	0.010035
1529.000000	0.009907
1528.000000	0.009775
1527.000000	0.009646
1526.000000	0.009520
1525.000000	0.009402
1524.000000	0.009291
1523.000000	0.009163
1522.000000	0.009004
1521.000000	0.008869
1520.000000	0.008776
1519.000000	0.008670
1518.000000	0.008529
1517.000000	0.008387
1516.000000	0.008296
1515.000000	0.008236
1514.000000	0.008151
1513.000000	0.008022
1512.000000	0.007867
1511.000000	0.007716
1510.000000	0.007579
1509.000000	0.007424
1508.000000	0.007203
1507.000000	0.006987
1506.000000	0.006904
1505.000000	0.006833
1504.000000	0.006697
1503.000000	0.006552
1502.000000	0.006422
1501.000000	0.006299
1500.000000	0.006181
1499.000000	0.006062
1498.000000	0.005925
1497.000000	0.005773
1496.000000	0.005620
1495.000000	0.005464
1494.000000	0.005307
1493.000000	0.005159
1492.000000	0.005001
1491.000000	0.004807
1490.000000	0.004613
1489.000000	0.004506
1488.000000	0.004496
1487.000000	0.004515
1486.000000	0.004521
1485.000000	0.004518
1484.000000	0.004517
1483.000000	0.004513
1482.000000	0.004509
1481.000000	0.004522
1480.000000	0.004562
1479.000000	0.004612
1478.000000	0.004658
1477.000000	0.004711
1476.000000	0.004789
1475.000000	0.004882
1474.000000	0.004965
1473.000000	0.005070
1472.000000	0.005246
1471.000000	0.005459
1470.000000	0.005650
1469.000000	0.005826
1468.000000	0.006001
1467.000000	0.006159
1466.000000	0.006281
1465.000000	0.006384
1464.000000	0.006498
1463.000000	0.006612
1462.000000	0.006707
1461.000000	0.006793
1460.000000	0.006878
1459.000000	0.006955
1458.000000	0.007029
1457.000000	0.007155
1456.000000	0.007317
1455.000000	0.007418
1454.000000	0.007474
1453.000000	0.007535
1452.000000	0.007604
1451.000000	0.007657
1450.000000	0.007678
1449.000000	0.007669
1448.000000	0.007649
1447.000000	0.007631
1446.000000	0.007608
1445.000000	0.007568
1444.000000	0.007507
1443.000000	0.007428
1442.000000	0.007336
1441.000000	0.007250
1440.000000	0.007199
1439.000000	0.007178
1438.000000	0.007130
1437.000000	0.006998
1436.000000	0.006822
1435.000000	0.006667
1434.000000	0.006553
1433.000000	0.006466
1432.000000	0.006391
1431.000000	0.006317
1430.000000	0.006253
1429.000000	0.006209
1428.000000	0.006178
1427.000000	0.006141
1426.000000	0.006080
1425.000000	0.006002
1424.000000	0.005951
1423.000000	0.005969
1422.000000	0.006035
1421.000000	0.006083
1420.000000	0.006056
1419.000000	0.005978
1418.000000	0.005928
1417.000000	0.005930
1416.000000	0.005965
1415.000000	0.006006
1414.000000	0.006029
1413.000000	0.006027
1412.000000	0.006024
1411.000000	0.006043
1410.000000	0.006084
1409.000000	0.006124
1408.000000	0.006150
1407.000000	0.006165
1406.000000	0.006179
1405.000000	0.006207
1404.000000	0.006264
1403.000000	0.006337
1402.000000	0.006395
1401.000000	0.006405
1400.000000	0.006356
1399.000000	0.006277
1398.000000	0.006213
1397.000000	0.006180
1396.000000	0.006166
1395.000000	0.006160
1394.000000	0.006146
1393.000000	0.006112
1392.000000	0.006066
1391.000000	0.006027
1390.000000	0.005993
1389.000000	0.005942
1388.000000	0.005862
1387.000000	0.005777
1386.000000	0.005713
1385.000000	0.005663
1384.000000	0.005607
1383.000000	0.005543
1382.000000	0.005482
1381.000000	0.005436
1380.000000	0.005395
1379.000000	0.005343
1378.000000	0.005275
1377.000000	0.005196
1376.000000	0.005107
1375.000000	0.005006
1374.000000	0.004903
1373.000000	0.004805
1372.000000	0.004709
1371.000000	0.004610
1370.000000	0.004514
1369.000000	0.004434
1368.000000	0.004377
1367.000000	0.004331
1366.000000	0.004273
1365.000000	0.004181
1364.000000	0.004059
1363.000000	0.003944
1362.000000	0.003879
1361.000000	0.003869
1360.000000	0.003880
1359.000000	0.003885
1358.000000	0.003875
1357.000000	0.003852
1356.000000	0.003831
1355.000000	0.003823
1354.000000	0.003837
1353.000000	0.003873
1352.000000	0.003929
1351.000000	0.003998
1350.000000	0.004078
1349.000000	0.004169
1348.000000	0.004264
1347.000000	0.004354
1346.000000	0.004432
1345.000000	0.004503
1344.000000	0.004573
1343.000000	0.004638
1342.000000	0.004679
1341.000000	0.004693
1340.000000	0.004702
1339.000000	0.004739
1338.000000	0.004801
1337.000000	0.004859
1336.000000	0.004886
1335.000000	0.004880
1334.000000	0.004847
1333.000000	0.004797
1332.000000	0.004741
1331.000000	0.004686
1330.000000	0.004631
1329.000000	0.004567
1328.000000	0.004492
1327.000000	0.004419
1326.000000	0.004361
1325.000000	0.004324
1324.000000	0.004303
1323.000000	0.004290
1322.000000	0.004282
1321.000000	0.004280
1320.000000	0.004284
1319.000000	0.004291
1318.000000	0.004290
1317.000000	0.004277
1316.000000	0.004257
1315.000000	0.004234
1314.000000	0.004210
1313.000000	0.004180
1312.000000	0.004140
1311.000000	0.004095
1310.000000	0.004051
1309.000000	0.004012
1308.000000	0.003979
1307.000000	0.003953
1306.000000	0.003926
1305.000000	0.003897
1304.000000	0.003867
1303.000000	0.003842
1302.000000	0.003820
1301.000000	0.003798
1300.000000	0.003778
1299.000000	0.003763
1298.000000	0.003747
1297.000000	0.003722
1296.000000	0.003696
1295.000000	0.003687
1294.000000	0.003708
1293.000000	0.003745
1292.000000	0.003784
1291.000000	0.003821
1290.000000	0.003864
1289.000000	0.003917
1288.000000	0.003973
1287.000000	0.004029
1286.000000	0.004086
1285.000000	0.004142
1284.000000	0.004192
1283.000000	0.004235
1282.000000	0.004268
1281.000000	0.004290
1280.000000	0.004296
1279.000000	0.004288
1278.000000	0.004277
1277.000000	0.004269
1276.000000	0.004257
1275.000000	0.004227
1274.000000	0.004181
1273.000000	0.004139
1272.000000	0.004120
1271.000000	0.004124
1270.000000	0.004140
1269.000000	0.004164
1268.000000	0.004205
1267.000000	0.004264
1266.000000	0.004329
1265.000000	0.004380
1264.000000	0.004410
1263.000000	0.004431
1262.000000	0.004457
1261.000000	0.004498
1260.000000	0.004553
1259.000000	0.004617
1258.000000	0.004690
1257.000000	0.004768
1256.000000	0.004840
1255.000000	0.004896
1254.000000	0.004939
1253.000000	0.004983
1252.000000	0.005040
1251.000000	0.005114
1250.000000	0.005196
1249.000000	0.005283
1248.000000	0.005381
1247.000000	0.005487
1246.000000	0.005592
1245.000000	0.005685
1244.000000	0.005765
1243.000000	0.005838
1242.000000	0.005907
1241.000000	0.005969
1240.000000	0.006020
1239.000000	0.006054
1238.000000	0.006069
1237.000000	0.006061
1236.000000	0.006032
1235.000000	0.005994
1234.000000	0.005956
1233.000000	0.005918
1232.000000	0.005865
1231.000000	0.005787
1230.000000	0.005686
1229.000000	0.005577
1228.000000	0.005468
1227.000000	0.005349
1226.000000	0.005212
1225.000000	0.005067
1224.000000	0.004932
1223.000000	0.004809
1222.000000	0.004682
1221.000000	0.004539
1220.000000	0.004390
1219.000000	0.004254
1218.000000	0.004143
1217.000000	0.004058
1216.000000	0.003998
1215.000000	0.003966
1214.000000	0.003959
1213.000000	0.003961
1212.000000	0.003963
1211.000000	0.003965
1210.000000	0.003974
1209.000000	0.003991
1208.000000	0.004014
1207.000000	0.004037
1206.000000	0.004056
1205.000000	0.004067
1204.000000	0.004068
1203.000000	0.004060
1202.000000	0.004046
1201.000000	0.004027
1200.000000	0.004005
1199.000000	0.003974
1198.000000	0.003924
1197.000000	0.003849
1196.000000	0.003761
1195.000000	0.003681
1194.000000	0.003618
1193.000000	0.003563
1192.000000	0.003499
1191.000000	0.003418
1190.000000	0.003331
1189.000000	0.003254
1188.000000	0.003201
1187.000000	0.003173
1186.000000	0.003166
1185.000000	0.003168
1184.000000	0.003171
1183.000000	0.003170
1182.000000	0.003159
1181.000000	0.003134
1180.000000	0.003103
1179.000000	0.003084
1178.000000	0.003090
1177.000000	0.003116
1176.000000	0.003151
1175.000000	0.003184
1174.000000	0.003210
1173.000000	0.003229
1172.000000	0.003243
1171.000000	0.003259
1170.000000	0.003280
1169.000000	0.003300
1168.000000	0.003318
1167.000000	0.003347
1166.000000	0.003396
1165.000000	0.003457
1164.000000	0.003510
1163.000000	0.003544
1162.000000	0.003561
1161.000000	0.003563
1160.000000	0.003545
1159.000000	0.003508
1158.000000	0.003466
1157.000000	0.003431
1156.000000	0.003400
1155.000000	0.003362
1154.000000	0.003311
1153.000000	0.003254
1152.000000	0.003192
1151.000000	0.003132
1150.000000	0.003084
1149.000000	0.003052
1148.000000	0.003026
1147.000000	0.002991
1146.000000	0.002944
1145.000000	0.002894
1144.000000	0.002844
1143.000000	0.002782
1142.000000	0.002704
1141.000000	0.002622
1140.000000	0.002551
1139.000000	0.002496
1138.000000	0.002448
1137.000000	0.002391
1136.000000	0.002322
1135.000000	0.002252
1134.000000	0.002201
1133.000000	0.002177
1132.000000	0.002167
1131.000000	0.002154
1130.000000	0.002136
1129.000000	0.002130
1128.000000	0.002147
1127.000000	0.002179
1126.000000	0.002210
1125.000000	0.002234
1124.000000	0.002249
1123.000000	0.002247
1122.000000	0.002227
1121.000000	0.002203
1120.000000	0.002200
1119.000000	0.002226
1118.000000	0.002266
1117.000000	0.002300
1116.000000	0.002322
1115.000000	0.002343
1114.000000	0.002365
1113.000000	0.002379
1112.000000	0.002374
1111.000000	0.002357
1110.000000	0.002352
1109.000000	0.002378
1108.000000	0.002427
1107.000000	0.002472
1106.000000	0.002494
1105.000000	0.002498
1104.000000	0.002507
1103.000000	0.002533
1102.000000	0.002570
1101.000000	0.002602
1100.000000	0.002623
1099.000000	0.002631
1098.000000	0.002629
1097.000000	0.002621
1096.000000	0.002617
1095.000000	0.002633
1094.000000	0.002676
1093.000000	0.002742
1092.000000	0.002823
1091.000000	0.002914
1090.000000	0.003017
1089.000000	0.003127
1088.000000	0.003227
1087.000000	0.003307
1086.000000	0.003375
1085.000000	0.003449
1084.000000	0.003521
1083.000000	0.003570
1082.000000	0.003586
1081.000000	0.003590
1080.000000	0.003599
1079.000000	0.003601
1078.000000	0.003568
1077.000000	0.003496
1076.000000	0.003408
1075.000000	0.003326
1074.000000	0.003250
1073.000000	0.003173
1072.000000	0.003102
1071.000000	0.003051
1070.000000	0.003026
1069.000000	0.003022
1068.000000	0.003032
1067.000000	0.003052
1066.000000	0.003071
1065.000000	0.003078
1064.000000	0.003066
1063.000000	0.003047
1062.000000	0.003038
1061.000000	0.003042
1060.000000	0.003045
1059.000000	0.003031
1058.000000	0.003003
1057.000000	0.002980
1056.000000	0.002975
1055.000000	0.002985
1054.000000	0.002992
1053.000000	0.002984
1052.000000	0.002960
1051.000000	0.002935
1050.000000	0.002918
1049.000000	0.002914
1048.000000	0.002924
1047.000000	0.002948
1046.000000	0.002980
1045.000000	0.003014
1044.000000	0.003045
1043.000000	0.003076
1042.000000	0.003111
1041.000000	0.003145
1040.000000	0.003165
1039.000000	0.003177
1038.000000	0.003198
1037.000000	0.003229
1036.000000	0.003251
1035.000000	0.003250
1034.000000	0.003248
1033.000000	0.003273
1032.000000	0.003323
1031.000000	0.003363
1030.000000	0.003374
1029.000000	0.003364
1028.000000	0.003345
1027.000000	0.003312
1026.000000	0.003263
1025.000000	0.003216
1024.000000	0.003183
1023.000000	0.003163
1022.000000	0.003150
1021.000000	0.003141
1020.000000	0.003132
1019.000000	0.003108
1018.000000	0.003062
1017.000000	0.003006
1016.000000	0.002960
1015.000000	0.002925
1014.000000	0.002885
1013.000000	0.002832
1012.000000	0.002769
1011.000000	0.002699
1010.000000	0.002619
1009.000000	0.002536
1008.000000	0.002469
1007.000000	0.002433
1006.000000	0.002418
1005.000000	0.002397
1004.000000	0.002342
1003.000000	0.002246
1002.000000	0.002133
1001.000000	0.002038
1000.000000	0.001980
999.000000	0.001948
998.000000	0.001917
997.000000	0.001870
996.000000	0.001807
995.000000	0.001742
994.000000	0.001690
993.000000	0.001654
992.000000	0.001621
991.000000	0.001573
990.000000	0.001509
989.000000	0.001444
988.000000	0.001391
987.000000	0.001345
986.000000	0.001303
985.000000	0.001270
984.000000	0.001250
983.000000	0.001238
982.000000	0.001237
981.000000	0.001255
980.000000	0.001287
979.000000	0.001300
978.000000	0.001269
977.000000	0.001204
976.000000	0.001146
975.000000	0.001115
974.000000	0.001109
973.000000	0.001113
972.000000	0.001114
971.000000	0.001101
970.000000	0.001074
969.000000	0.001054
968.000000	0.001060
967.000000	0.001079
966.000000	0.001070
965.000000	0.001014
964.000000	0.000928
963.000000	0.000841
962.000000	0.000770
961.000000	0.000723
960.000000	0.000700
959.000000	0.000681
958.000000	0.000635
957.000000	0.000552
956.000000	0.000457
955.000000	0.000384
954.000000	0.000350
953.000000	0.000354
952.000000	0.000383
951.000000	0.000413
950.000000	0.000419
949.000000	0.000393
948.000000	0.000356
947.000000	0.000334
946.000000	0.000328
945.000000	0.000327
944.000000	0.000319
943.000000	0.000302
942.000000	0.000280
941.000000	0.000258
940.000000	0.000244
939.000000	0.000239
938.000000	0.000237
937.000000	0.000238
936.000000	0.000246
935.000000	0.000256
934.000000	0.000248
933.000000	0.000210
932.000000	0.000158
931.000000	0.000115
930.000000	0.000094
929.000000	0.000097
928.000000	0.000122
927.000000	0.000157
926.000000	0.000174
925.000000	0.000154
924.000000	0.000104
923.000000	0.000059
922.000000	0.000042
921.000000	0.000053
920.000000	0.000076
919.000000	0.000090
918.000000	0.000077
917.000000	0.000039
916.000000	-0.000002
915.000000	-0.000026
914.000000	-0.000039
913.000000	-0.000065
912.000000	-0.000114
911.000000	-0.000168
910.000000	-0.000200
909.000000	-0.000206
908.000000	-0.000205
907.000000	-0.000217
906.000000	-0.000244
905.000000	-0.000273
904.000000	-0.000288
903.000000	-0.000286
902.000000	-0.000279
901.000000	-0.000283
900.000000	-0.000300
899.000000	-0.000319
898.000000	-0.000333
897.000000	-0.000335
896.000000	-0.000319
895.000000	-0.000283
894.000000	-0.000245
893.000000	-0.000233
892.000000	-0.000260
891.000000	-0.000307
890.000000	-0.000339
889.000000	-0.000336
888.000000	-0.000306
887.000000	-0.000269
886.000000	-0.000233
885.000000	-0.000194
884.000000	-0.000143
883.000000	-0.000085
882.000000	-0.000028
881.000000	0.000026
880.000000	0.000088
879.000000	0.000171
878.000000	0.000271
877.000000	0.000359
876.000000	0.000410
875.000000	0.000415
874.000000	0.000380
873.000000	0.000314
872.000000	0.000222
871.000000	0.000114
870.000000	0.000014
869.000000	-0.000054
868.000000	-0.000085
867.000000	-0.000096
866.000000	-0.000107
865.000000	-0.000122
864.000000	-0.000132
863.000000	-0.000137
862.000000	-0.000145
861.000000	-0.000160
860.000000	-0.000167
859.000000	-0.000156
858.000000	-0.000139
857.000000	-0.000134
856.000000	-0.000147
855.000000	-0.000164
854.000000	-0.000179
853.000000	-0.000200
852.000000	-0.000226
851.000000	-0.000240
850.000000	-0.000225
849.000000	-0.000183
848.000000	-0.000138
847.000000	-0.000115
846.000000	-0.000115
845.000000	-0.000113
844.000000	-0.000085
843.000000	-0.000037
842.000000	-0.000007
841.000000	-0.000033
840.000000	-0.000108
839.000000	-0.000180
838.000000	-0.000207
837.000000	-0.000202
836.000000	-0.000216
835.000000	-0.000276
834.000000	-0.000360
833.000000	-0.000426
832.000000	-0.000450
831.000000	-0.000437
830.000000	-0.000407
829.000000	-0.000374
828.000000	-0.000345
827.000000	-0.000316
826.000000	-0.000276
825.000000	-0.000228
824.000000	-0.000192
823.000000	-0.000190
822.000000	-0.000227
821.000000	-0.000276
820.000000	-0.000302
819.000000	-0.000278
818.000000	-0.000206
817.000000	-0.000125
816.000000	-0.000081
815.000000	-0.000090
814.000000	-0.000124
813.000000	-0.000152
812.000000	-0.000176
811.000000	-0.000212
810.000000	-0.000251
809.000000	-0.000259
808.000000	-0.000224
807.000000	-0.000184
806.000000	-0.000185
805.000000	-0.000226
804.000000	-0.000270
803.000000	-0.000285
802.000000	-0.000273
801.000000	-0.000264
800.000000	-0.000284
799.000000	-0.000335
798.000000	-0.000395
797.000000	-0.000427
796.000000	-0.000402
795.000000	-0.000329
794.000000	-0.000245
793.000000	-0.000191
792.000000	-0.000183
791.000000	-0.000203
790.000000	-0.000220
789.000000	-0.000209
788.000000	-0.000169
787.000000	-0.000122
786.000000	-0.000087
785.000000	-0.000062
784.000000	-0.000041
783.000000	-0.000030
782.000000	-0.000045
781.000000	-0.000086
780.000000	-0.000129
779.000000	-0.000136
778.000000	-0.000091
777.000000	-0.000018
776.000000	0.000043
775.000000	0.000067
774.000000	0.000064
773.000000	0.000063
772.000000	0.000074
771.000000	0.000084
770.000000	0.000076
769.000000	0.000052
768.000000	0.000024
767.000000	0.000006
766.000000	0.000004
765.000000	0.000021
764.000000	0.000048
763.000000	0.000068
762.000000	0.000077
761.000000	0.000093
760.000000	0.000128
759.000000	0.000160
758.000000	0.000150
757.000000	0.000087
756.000000	0.000005
755.000000	-0.000048
754.000000	-0.000050
753.000000	-0.000014
752.000000	0.000035
751.000000	0.000082
750.000000	0.000116
749.000000	0.000132
748.000000	0.000138
747.000000	0.000153
746.000000	0.000193
745.000000	0.000256
744.000000	0.000320
743.000000	0.000356
742.000000	0.000356
741.000000	0.000341
740.000000	0.000353
739.000000	0.000412
738.000000	0.000504
737.000000	0.000596
736.000000	0.000665
735.000000	0.000711
734.000000	0.000749
733.000000	0.000786
732.000000	0.000822
731.000000	0.000848
730.000000	0.000862
729.000000	0.000872
728.000000	0.000896
727.000000	0.000942
726.000000	0.001006
725.000000	0.001076
724.000000	0.001141
723.000000	0.001188
722.000000	0.001213
721.000000	0.001223
720.000000	0.001234
719.000000	0.001257
718.000000	0.001291
717.000000	0.001333
716.000000	0.001373
715.000000	0.001398
714.000000	0.001403
713.000000	0.001394
712.000000	0.001383
711.000000	0.001374
710.000000	0.001363
709.000000	0.001351
708.000000	0.001353
707.000000	0.001377
706.000000	0.001425
705.000000	0.001491
704.000000	0.001565
703.000000	0.001628
702.000000	0.001670
701.000000	0.001694
700.000000	0.001716
699.000000	0.001732
698.000000	0.001723
697.000000	0.001688
696.000000	0.001648
695.000000	0.001623
694.000000	0.001609
693.000000	0.001590
692.000000	0.001575
691.000000	0.001576
690.000000	0.001586
689.000000	0.001595
688.000000	0.001621
687.000000	0.001685
686.000000	0.001767
685.000000	0.001818
684.000000	0.001835
683.000000	0.001867
682.000000	0.001944
681.000000	0.002046
680.000000	0.002140
679.000000	0.002207
678.000000	0.002222
677.000000	0.002171
676.000000	0.002088
675.000000	0.002029
674.000000	0.002011
673.000000	0.001996
672.000000	0.001943
671.000000	0.001835
670.000000	0.001659
669.000000	0.001458
668.000000	0.001453
667.000000	0.001723
666.000000	0.001984
665.000000	0.002182
664.000000	0.002303
663.000000	0.002319
662.000000	0.002260
661.000000	0.002189
660.000000	0.002132
659.000000	0.002092
658.000000	0.002091
657.000000	0.002158
656.000000	0.002261
655.000000	0.002314
654.000000	0.002295
653.000000	0.002262
652.000000	0.002254
651.000000	0.002250
650.000000	0.002240
649.000000	0.002259
648.000000	0.002317
647.000000	0.002380
646.000000	0.002435
645.000000	0.002498
644.000000	0.002556
643.000000	0.002566
642.000000	0.002515
641.000000	0.002446
640.000000	0.002392
639.000000	0.002341
638.000000	0.002290
637.000000	0.002277
636.000000	0.002315
635.000000	0.002364
634.000000	0.002385
633.000000	0.002374
632.000000	0.002337
631.000000	0.002282
630.000000	0.002244
629.000000	0.002270
628.000000	0.002344
627.000000	0.002391
626.000000	0.002376
625.000000	0.002357
624.000000	0.002404
623.000000	0.002509
622.000000	0.002615
621.000000	0.002685
620.000000	0.002716
619.000000	0.002702
618.000000	0.002639
617.000000	0.002547
616.000000	0.002454
615.000000	0.002377
614.000000	0.002329
613.000000	0.002327
612.000000	0.002363
611.000000	0.002397
610.000000	0.002401
609.000000	0.002396
608.000000	0.002414
607.000000	0.002449
606.000000	0.002476
605.000000	0.002499
604.000000	0.002542
603.000000	0.002599
602.000000	0.002613
601.000000	0.002537
600.000000	0.002397
599.000000	0.002279
598.000000	0.002252
597.000000	0.002302
596.000000	0.002370
595.000000	0.002426
594.000000	0.002496
593.000000	0.002607
592.000000	0.002734
591.000000	0.002821
590.000000	0.002841
589.000000	0.002788
588.000000	0.002669
587.000000	0.002523
586.000000	0.002433
585.000000	0.002450
584.000000	0.002506
583.000000	0.002487
582.000000	0.002378
581.000000	0.002280
580.000000	0.002278
579.000000	0.002353
578.000000	0.002438
577.000000	0.002502
576.000000	0.002542
575.000000	0.002557
574.000000	0.002564
573.000000	0.002599
572.000000	0.002665
571.000000	0.002707
570.000000	0.002685
569.000000	0.002630
568.000000	0.002597
567.000000	0.002594
566.000000	0.002596
565.000000	0.002607
564.000000	0.002643
563.000000	0.002685
562.000000	0.002706
561.000000	0.002744
560.000000	0.002875
559.000000	0.003106
558.000000	0.003311
557.000000	0.003338
556.000000	0.003165
555.000000	0.002939
554.000000	0.002846
553.000000	0.002927
552.000000	0.003051
551.000000	0.003046
550.000000	0.002867
549.000000	0.002608
548.000000	0.002388
547.000000	0.002261
546.000000	0.002216
545.000000	0.002224
544.000000	0.002259
543.000000	0.002300
542.000000	0.002334
541.000000	0.002338
540.000000	0.002298
539.000000	0.002239
538.000000	0.002233
537.000000	0.002326
536.000000	0.002470
535.000000	0.002569
534.000000	0.002582
533.000000	0.002557
532.000000	0.002554
531.000000	0.002587
530.000000	0.002612
529.000000	0.002556
528.000000	0.002340
527.000000	0.001978
526.000000	0.001648
525.000000	0.001580
524.000000	0.001825
523.000000	0.002204
522.000000	0.002493
521.000000	0.002571
520.000000	0.002442
519.000000	0.002176
518.000000	0.001883
517.000000	0.001673
516.000000	0.001592
515.000000	0.001596
514.000000	0.001615
513.000000	0.001620
512.000000	0.001614
511.000000	0.001604
510.000000	0.001598
509.000000	0.001591
508.000000	0.001556
507.000000	0.001478
506.000000	0.001401
505.000000	0.001391
504.000000	0.001454
503.000000	0.001529
502.000000	0.001558
501.000000	0.001524
500.000000	0.001409
499.000000	0.001200
498.000000	0.000948
497.000000	0.000775
496.000000	0.000758
495.000000	0.000850
494.000000	0.000937
493.000000	0.000961
492.000000	0.000946
491.000000	0.000948
490.000000	0.000988
489.000000	0.001015
488.000000	0.000944
487.000000	0.000758
486.000000	0.000554
485.000000	0.000454
484.000000	0.000451
483.000000	0.000444
482.000000	0.000414
481.000000	0.000451
480.000000	0.000585
479.000000	0.000710
478.000000	0.000738
477.000000	0.000726
476.000000	0.000781
475.000000	0.000880
474.000000	0.000892
473.000000	0.000744
472.000000	0.000519
471.000000	0.000362
470.000000	0.000362
469.000000	0.000527
468.000000	0.000791
467.000000	0.001026
466.000000	0.001110
465.000000	0.001041
464.000000	0.000919
463.000000	0.000823
462.000000	0.000747
461.000000	0.000631
460.000000	0.000425
459.000000	0.000123
458.000000	-0.000214
457.000000	-0.000478
456.000000	-0.000594
455.000000	-0.000568
454.000000	-0.000459
453.000000	-0.000365
452.000000	-0.000351
451.000000	-0.000351
450.000000	-0.000208
