PE IR       SUBTECH     SPECTRUM    ASCII       PEDS        4.00        
   -1
3C-H10-F043_1.ASC
22/02/24
15:36:40.00
22/02/24
15:42:20.00
uco
Sample 043 By uco Date Thursday, February 24 2022
450.000000
#HDR
-1
-1
#GR
cm-1
A
1.0
0.0
4000.000000
-1.000000
3551
8
0.090141
0.009906
#DATA
4000.000000	0.010254
3999.000000	0.010252
3998.000000	0.010241
3997.000000	0.010230
3996.000000	0.010228
3995.000000	0.010236
3994.000000	0.010251
3993.000000	0.010264
3992.000000	0.010276
3991.000000	0.010288
3990.000000	0.010301
3989.000000	0.010311
3988.000000	0.010316
3987.000000	0.010315
3986.000000	0.010314
3985.000000	0.010319
3984.000000	0.010331
3983.000000	0.010342
3982.000000	0.010349
3981.000000	0.010348
3980.000000	0.010342
3979.000000	0.010337
3978.000000	0.010333
3977.000000	0.010334
3976.000000	0.010341
3975.000000	0.010358
3974.000000	0.010386
3973.000000	0.010415
3972.000000	0.010432
3971.000000	0.010429
3970.000000	0.010410
3969.000000	0.010388
3968.000000	0.010373
3967.000000	0.010368
3966.000000	0.010373
3965.000000	0.010387
3964.000000	0.010409
3963.000000	0.010426
3962.000000	0.010428
3961.000000	0.010414
3960.000000	0.010401
3959.000000	0.010407
3958.000000	0.010435
3957.000000	0.010471
3956.000000	0.010495
3955.000000	0.010496
3954.000000	0.010481
3953.000000	0.010465
3952.000000	0.010461
3951.000000	0.010471
3950.000000	0.010491
3949.000000	0.010514
3948.000000	0.010539
3947.000000	0.010566
3946.000000	0.010591
3945.000000	0.010601
3944.000000	0.010590
3943.000000	0.010561
3942.000000	0.010532
3941.000000	0.010513
3940.000000	0.010506
3939.000000	0.010508
3938.000000	0.010520
3937.000000	0.010543
3936.000000	0.010570
3935.000000	0.010590
3934.000000	0.010595
3933.000000	0.010585
3932.000000	0.010574
3931.000000	0.010570
3930.000000	0.010578
3929.000000	0.010592
3928.000000	0.010604
3927.000000	0.010607
3926.000000	0.010602
3925.000000	0.010596
3924.000000	0.010600
3923.000000	0.010622
3922.000000	0.010658
3921.000000	0.010695
3920.000000	0.010719
3919.000000	0.010720
3918.000000	0.010700
3917.000000	0.010675
3916.000000	0.010658
3915.000000	0.010649
3914.000000	0.010641
3913.000000	0.010631
3912.000000	0.010619
3911.000000	0.010609
3910.000000	0.010607
3909.000000	0.010614
3908.000000	0.010632
3907.000000	0.010651
3906.000000	0.010659
3905.000000	0.010652
3904.000000	0.010638
3903.000000	0.010627
3902.000000	0.010617
3901.000000	0.010599
3900.000000	0.010573
3899.000000	0.010556
3898.000000	0.010559
3897.000000	0.010579
3896.000000	0.010604
3895.000000	0.010622
3894.000000	0.010625
3893.000000	0.010610
3892.000000	0.010589
3891.000000	0.010585
3890.000000	0.010617
3889.000000	0.010671
3888.000000	0.010720
3887.000000	0.010737
3886.000000	0.010715
3885.000000	0.010681
3884.000000	0.010664
3883.000000	0.010665
3882.000000	0.010672
3881.000000	0.010680
3880.000000	0.010696
3879.000000	0.010729
3878.000000	0.010769
3877.000000	0.010799
3876.000000	0.010805
3875.000000	0.010792
3874.000000	0.010782
3873.000000	0.010791
3872.000000	0.010813
3871.000000	0.010828
3870.000000	0.010831
3869.000000	0.010833
3868.000000	0.010834
3867.000000	0.010828
3866.000000	0.010809
3865.000000	0.010781
3864.000000	0.010753
3863.000000	0.010732
3862.000000	0.010721
3861.000000	0.010728
3860.000000	0.010751
3859.000000	0.010783
3858.000000	0.010810
3857.000000	0.010828
3856.000000	0.010844
3855.000000	0.010858
3854.000000	0.010861
3853.000000	0.010850
3852.000000	0.010834
3851.000000	0.010805
3850.000000	0.010763
3849.000000	0.010718
3848.000000	0.010687
3847.000000	0.010677
3846.000000	0.010685
3845.000000	0.010706
3844.000000	0.010738
3843.000000	0.010780
3842.000000	0.010827
3841.000000	0.010867
3840.000000	0.010886
3839.000000	0.010879
3838.000000	0.010854
3837.000000	0.010823
3836.000000	0.010798
3835.000000	0.010779
3834.000000	0.010764
3833.000000	0.010749
3832.000000	0.010732
3831.000000	0.010712
3830.000000	0.010689
3829.000000	0.010659
3828.000000	0.010624
3827.000000	0.010599
3826.000000	0.010612
3825.000000	0.010674
3824.000000	0.010772
3823.000000	0.010866
3822.000000	0.010907
3821.000000	0.010887
3820.000000	0.010845
3819.000000	0.010807
3818.000000	0.010769
3817.000000	0.010721
3816.000000	0.010666
3815.000000	0.010619
3814.000000	0.010589
3813.000000	0.010574
3812.000000	0.010573
3811.000000	0.010591
3810.000000	0.010627
3809.000000	0.010673
3808.000000	0.010720
3807.000000	0.010762
3806.000000	0.010802
3805.000000	0.010839
3804.000000	0.010861
3803.000000	0.010860
3802.000000	0.010837
3801.000000	0.010802
3800.000000	0.010764
3799.000000	0.010711
3798.000000	0.010640
3797.000000	0.010571
3796.000000	0.010526
3795.000000	0.010513
3794.000000	0.010518
3793.000000	0.010526
3792.000000	0.010527
3791.000000	0.010520
3790.000000	0.010508
3789.000000	0.010497
3788.000000	0.010491
3787.000000	0.010494
3786.000000	0.010502
3785.000000	0.010517
3784.000000	0.010536
3783.000000	0.010557
3782.000000	0.010572
3781.000000	0.010579
3780.000000	0.010579
3779.000000	0.010580
3778.000000	0.010583
3777.000000	0.010582
3776.000000	0.010572
3775.000000	0.010558
3774.000000	0.010549
3773.000000	0.010550
3772.000000	0.010556
3771.000000	0.010559
3770.000000	0.010556
3769.000000	0.010548
3768.000000	0.010535
3767.000000	0.010511
3766.000000	0.010478
3765.000000	0.010448
3764.000000	0.010439
3763.000000	0.010456
3762.000000	0.010489
3761.000000	0.010521
3760.000000	0.010535
3759.000000	0.010522
3758.000000	0.010495
3757.000000	0.010474
3756.000000	0.010474
3755.000000	0.010499
3754.000000	0.010546
3753.000000	0.010603
3752.000000	0.010650
3751.000000	0.010677
3750.000000	0.010696
3749.000000	0.010714
3748.000000	0.010712
3747.000000	0.010670
3746.000000	0.010585
3745.000000	0.010489
3744.000000	0.010438
3743.000000	0.010444
3742.000000	0.010471
3741.000000	0.010490
3740.000000	0.010505
3739.000000	0.010525
3738.000000	0.010551
3737.000000	0.010568
3736.000000	0.010565
3735.000000	0.010549
3734.000000	0.010525
3733.000000	0.010494
3732.000000	0.010458
3731.000000	0.010425
3730.000000	0.010400
3729.000000	0.010379
3728.000000	0.010357
3727.000000	0.010338
3726.000000	0.010324
3725.000000	0.010317
3724.000000	0.010306
3723.000000	0.010284
3722.000000	0.010256
3721.000000	0.010237
3720.000000	0.010239
3719.000000	0.010259
3718.000000	0.010281
3717.000000	0.010294
3716.000000	0.010296
3715.000000	0.010295
3714.000000	0.010304
3713.000000	0.010324
3712.000000	0.010342
3711.000000	0.010350
3710.000000	0.010353
3709.000000	0.010357
3708.000000	0.010364
3707.000000	0.010372
3706.000000	0.010376
3705.000000	0.010373
3704.000000	0.010359
3703.000000	0.010331
3702.000000	0.010290
3701.000000	0.010246
3700.000000	0.010214
3699.000000	0.010203
3698.000000	0.010210
3697.000000	0.010221
3696.000000	0.010225
3695.000000	0.010221
3694.000000	0.010223
3693.000000	0.010245
3692.000000	0.010291
3691.000000	0.010343
3690.000000	0.010380
3689.000000	0.010390
3688.000000	0.010381
3687.000000	0.010366
3686.000000	0.010347
3685.000000	0.010325
3684.000000	0.010303
3683.000000	0.010292
3682.000000	0.010300
3681.000000	0.010335
3680.000000	0.010402
3679.000000	0.010499
3678.000000	0.010612
3677.000000	0.010712
3676.000000	0.010766
3675.000000	0.010772
3674.000000	0.010746
3673.000000	0.010698
3672.000000	0.010638
3671.000000	0.010591
3670.000000	0.010575
3669.000000	0.010591
3668.000000	0.010615
3667.000000	0.010620
3666.000000	0.010606
3665.000000	0.010591
3664.000000	0.010593
3663.000000	0.010619
3662.000000	0.010662
3661.000000	0.010707
3660.000000	0.010748
3659.000000	0.010791
3658.000000	0.010845
3657.000000	0.010914
3656.000000	0.010987
3655.000000	0.011049
3654.000000	0.011091
3653.000000	0.011121
3652.000000	0.011158
3651.000000	0.011209
3650.000000	0.011261
3649.000000	0.011295
3648.000000	0.011308
3647.000000	0.011313
3646.000000	0.011330
3645.000000	0.011362
3644.000000	0.011394
3643.000000	0.011408
3642.000000	0.011402
3641.000000	0.011392
3640.000000	0.011400
3639.000000	0.011437
3638.000000	0.011495
3637.000000	0.011558
3636.000000	0.011615
3635.000000	0.011672
3634.000000	0.011742
3633.000000	0.011832
3632.000000	0.011926
3631.000000	0.012004
3630.000000	0.012055
3629.000000	0.012092
3628.000000	0.012140
3627.000000	0.012198
3626.000000	0.012244
3625.000000	0.012277
3624.000000	0.012309
3623.000000	0.012350
3622.000000	0.012398
3621.000000	0.012442
3620.000000	0.012474
3619.000000	0.012499
3618.000000	0.012531
3617.000000	0.012579
3616.000000	0.012645
3615.000000	0.012726
3614.000000	0.012817
3613.000000	0.012908
3612.000000	0.012989
3611.000000	0.013056
3610.000000	0.013106
3609.000000	0.013142
3608.000000	0.013166
3607.000000	0.013188
3606.000000	0.013220
3605.000000	0.013271
3604.000000	0.013342
3603.000000	0.013425
3602.000000	0.013507
3601.000000	0.013574
3600.000000	0.013623
3599.000000	0.013659
3598.000000	0.013690
3597.000000	0.013731
3596.000000	0.013790
3595.000000	0.013865
3594.000000	0.013948
3593.000000	0.014032
3592.000000	0.014112
3591.000000	0.014193
3590.000000	0.014275
3589.000000	0.014356
3588.000000	0.014434
3587.000000	0.014510
3586.000000	0.014587
3585.000000	0.014657
3584.000000	0.014717
3583.000000	0.014773
3582.000000	0.014838
3581.000000	0.014918
3580.000000	0.015014
3579.000000	0.015117
3578.000000	0.015218
3577.000000	0.015308
3576.000000	0.015386
3575.000000	0.015458
3574.000000	0.015534
3573.000000	0.015618
3572.000000	0.015711
3571.000000	0.015809
3570.000000	0.015914
3569.000000	0.016028
3568.000000	0.016148
3567.000000	0.016269
3566.000000	0.016391
3565.000000	0.016510
3564.000000	0.016618
3563.000000	0.016706
3562.000000	0.016770
3561.000000	0.016816
3560.000000	0.016865
3559.000000	0.016936
3558.000000	0.017039
3557.000000	0.017166
3556.000000	0.017300
3555.000000	0.017419
3554.000000	0.017509
3553.000000	0.017573
3552.000000	0.017633
3551.000000	0.017715
3550.000000	0.017827
3549.000000	0.017956
3548.000000	0.018080
3547.000000	0.018183
3546.000000	0.018267
3545.000000	0.018346
3544.000000	0.018434
3543.000000	0.018534
3542.000000	0.018636
3541.000000	0.018731
3540.000000	0.018819
3539.000000	0.018903
3538.000000	0.018991
3537.000000	0.019085
3536.000000	0.019182
3535.000000	0.019280
3534.000000	0.019374
3533.000000	0.019465
3532.000000	0.019560
3531.000000	0.019669
3530.000000	0.019792
3529.000000	0.019911
3528.000000	0.020013
3527.000000	0.020100
3526.000000	0.020186
3525.000000	0.020274
3524.000000	0.020353
3523.000000	0.020419
3522.000000	0.020482
3521.000000	0.020559
3520.000000	0.020651
3519.000000	0.020750
3518.000000	0.020849
3517.000000	0.020942
3516.000000	0.021031
3515.000000	0.021120
3514.000000	0.021214
3513.000000	0.021311
3512.000000	0.021409
3511.000000	0.021502
3510.000000	0.021593
3509.000000	0.021680
3508.000000	0.021759
3507.000000	0.021827
3506.000000	0.021888
3505.000000	0.021954
3504.000000	0.022031
3503.000000	0.022121
3502.000000	0.022224
3501.000000	0.022335
3500.000000	0.022449
3499.000000	0.022550
3498.000000	0.022630
3497.000000	0.022689
3496.000000	0.022739
3495.000000	0.022795
3494.000000	0.022860
3493.000000	0.022928
3492.000000	0.022995
3491.000000	0.023065
3490.000000	0.023144
3489.000000	0.023232
3488.000000	0.023318
3487.000000	0.023399
3486.000000	0.023475
3485.000000	0.023552
3484.000000	0.023630
3483.000000	0.023707
3482.000000	0.023784
3481.000000	0.023865
3480.000000	0.023955
3479.000000	0.024051
3478.000000	0.024144
3477.000000	0.024223
3476.000000	0.024283
3475.000000	0.024331
3474.000000	0.024381
3473.000000	0.024441
3472.000000	0.024510
3471.000000	0.024582
3470.000000	0.024657
3469.000000	0.024730
3468.000000	0.024796
3467.000000	0.024855
3466.000000	0.024913
3465.000000	0.024980
3464.000000	0.025053
3463.000000	0.025122
3462.000000	0.025183
3461.000000	0.025238
3460.000000	0.025295
3459.000000	0.025361
3458.000000	0.025432
3457.000000	0.025502
3456.000000	0.025565
3455.000000	0.025624
3454.000000	0.025688
3453.000000	0.025763
3452.000000	0.025848
3451.000000	0.025939
3450.000000	0.026030
3449.000000	0.026117
3448.000000	0.026194
3447.000000	0.026259
3446.000000	0.026320
3445.000000	0.026384
3444.000000	0.026450
3443.000000	0.026514
3442.000000	0.026576
3441.000000	0.026639
3440.000000	0.026709
3439.000000	0.026787
3438.000000	0.026871
3437.000000	0.026960
3436.000000	0.027051
3435.000000	0.027145
3434.000000	0.027241
3433.000000	0.027337
3432.000000	0.027426
3431.000000	0.027503
3430.000000	0.027569
3429.000000	0.027627
3428.000000	0.027682
3427.000000	0.027735
3426.000000	0.027789
3425.000000	0.027851
3424.000000	0.027923
3423.000000	0.028004
3422.000000	0.028087
3421.000000	0.028170
3420.000000	0.028249
3419.000000	0.028322
3418.000000	0.028390
3417.000000	0.028454
3416.000000	0.028523
3415.000000	0.028604
3414.000000	0.028699
3413.000000	0.028796
3412.000000	0.028880
3411.000000	0.028944
3410.000000	0.028999
3409.000000	0.029058
3408.000000	0.029127
3407.000000	0.029207
3406.000000	0.029296
3405.000000	0.029391
3404.000000	0.029487
3403.000000	0.029576
3402.000000	0.029657
3401.000000	0.029731
3400.000000	0.029808
3399.000000	0.029893
3398.000000	0.029988
3397.000000	0.030084
3396.000000	0.030165
3395.000000	0.030227
3394.000000	0.030277
3393.000000	0.030331
3392.000000	0.030397
3391.000000	0.030470
3390.000000	0.030545
3389.000000	0.030616
3388.000000	0.030684
3387.000000	0.030752
3386.000000	0.030828
3385.000000	0.030914
3384.000000	0.031009
3383.000000	0.031107
3382.000000	0.031203
3381.000000	0.031295
3380.000000	0.031388
3379.000000	0.031483
3378.000000	0.031587
3377.000000	0.031702
3376.000000	0.031826
3375.000000	0.031952
3374.000000	0.032068
3373.000000	0.032165
3372.000000	0.032245
3371.000000	0.032318
3370.000000	0.032398
3369.000000	0.032497
3368.000000	0.032613
3367.000000	0.032741
3366.000000	0.032872
3365.000000	0.033003
3364.000000	0.033135
3363.000000	0.033271
3362.000000	0.033412
3361.000000	0.033555
3360.000000	0.033688
3359.000000	0.033812
3358.000000	0.033938
3357.000000	0.034079
3356.000000	0.034238
3355.000000	0.034409
3354.000000	0.034583
3353.000000	0.034755
3352.000000	0.034922
3351.000000	0.035084
3350.000000	0.035243
3349.000000	0.035402
3348.000000	0.035562
3347.000000	0.035725
3346.000000	0.035889
3345.000000	0.036049
3344.000000	0.036195
3343.000000	0.036325
3342.000000	0.036445
3341.000000	0.036567
3340.000000	0.036700
3339.000000	0.036847
3338.000000	0.036998
3337.000000	0.037141
3336.000000	0.037265
3335.000000	0.037370
3334.000000	0.037469
3333.000000	0.037579
3332.000000	0.037708
3331.000000	0.037856
3330.000000	0.038013
3329.000000	0.038164
3328.000000	0.038296
3327.000000	0.038405
3326.000000	0.038500
3325.000000	0.038591
3324.000000	0.038684
3323.000000	0.038780
3322.000000	0.038876
3321.000000	0.038969
3320.000000	0.039058
3319.000000	0.039146
3318.000000	0.039237
3317.000000	0.039329
3316.000000	0.039414
3315.000000	0.039486
3314.000000	0.039548
3313.000000	0.039612
3312.000000	0.039679
3311.000000	0.039742
3310.000000	0.039794
3309.000000	0.039839
3308.000000	0.039890
3307.000000	0.039957
3306.000000	0.040043
3305.000000	0.040135
3304.000000	0.040218
3303.000000	0.040281
3302.000000	0.040324
3301.000000	0.040357
3300.000000	0.040391
3299.000000	0.040430
3298.000000	0.040472
3297.000000	0.040509
3296.000000	0.040533
3295.000000	0.040545
3294.000000	0.040555
3293.000000	0.040577
3292.000000	0.040613
3291.000000	0.040656
3290.000000	0.040692
3289.000000	0.040708
3288.000000	0.040703
3287.000000	0.040686
3286.000000	0.040666
3285.000000	0.040646
3284.000000	0.040628
3283.000000	0.040616
3282.000000	0.040613
3281.000000	0.040606
3280.000000	0.040582
3279.000000	0.040538
3278.000000	0.040489
3277.000000	0.040450
3276.000000	0.040418
3275.000000	0.040374
3274.000000	0.040306
3273.000000	0.040215
3272.000000	0.040116
3271.000000	0.040028
3270.000000	0.039963
3269.000000	0.039923
3268.000000	0.039901
3267.000000	0.039884
3266.000000	0.039859
3265.000000	0.039814
3264.000000	0.039745
3263.000000	0.039660
3262.000000	0.039572
3261.000000	0.039483
3260.000000	0.039387
3259.000000	0.039281
3258.000000	0.039175
3257.000000	0.039083
3256.000000	0.039006
3255.000000	0.038934
3254.000000	0.038852
3253.000000	0.038758
3252.000000	0.038659
3251.000000	0.038569
3250.000000	0.038490
3249.000000	0.038418
3248.000000	0.038343
3247.000000	0.038262
3246.000000	0.038178
3245.000000	0.038099
3244.000000	0.038027
3243.000000	0.037957
3242.000000	0.037880
3241.000000	0.037793
3240.000000	0.037704
3239.000000	0.037627
3238.000000	0.037563
3237.000000	0.037501
3236.000000	0.037429
3235.000000	0.037348
3234.000000	0.037270
3233.000000	0.037198
3232.000000	0.037129
3231.000000	0.037058
3230.000000	0.036990
3229.000000	0.036931
3228.000000	0.036879
3227.000000	0.036830
3226.000000	0.036777
3225.000000	0.036718
3224.000000	0.036653
3223.000000	0.036581
3222.000000	0.036504
3221.000000	0.036426
3220.000000	0.036353
3219.000000	0.036294
3218.000000	0.036252
3217.000000	0.036213
3216.000000	0.036163
3215.000000	0.036094
3214.000000	0.036019
3213.000000	0.035956
3212.000000	0.035908
3211.000000	0.035867
3210.000000	0.035816
3209.000000	0.035746
3208.000000	0.035659
3207.000000	0.035570
3206.000000	0.035489
3205.000000	0.035416
3204.000000	0.035343
3203.000000	0.035267
3202.000000	0.035196
3201.000000	0.035135
3200.000000	0.035078
3199.000000	0.035014
3198.000000	0.034934
3197.000000	0.034835
3196.000000	0.034724
3195.000000	0.034610
3194.000000	0.034504
3193.000000	0.034409
3192.000000	0.034321
3191.000000	0.034231
3190.000000	0.034137
3189.000000	0.034041
3188.000000	0.033950
3187.000000	0.033871
3186.000000	0.033804
3185.000000	0.033741
3184.000000	0.033669
3183.000000	0.033582
3182.000000	0.033484
3181.000000	0.033378
3180.000000	0.033266
3179.000000	0.033149
3178.000000	0.033035
3177.000000	0.032933
3176.000000	0.032842
3175.000000	0.032757
3174.000000	0.032673
3173.000000	0.032585
3172.000000	0.032489
3171.000000	0.032379
3170.000000	0.032257
3169.000000	0.032128
3168.000000	0.032000
3167.000000	0.031881
3166.000000	0.031777
3165.000000	0.031683
3164.000000	0.031588
3163.000000	0.031485
3162.000000	0.031382
3161.000000	0.031295
3160.000000	0.031230
3159.000000	0.031177
3158.000000	0.031120
3157.000000	0.031049
3156.000000	0.030964
3155.000000	0.030870
3154.000000	0.030772
3153.000000	0.030672
3152.000000	0.030573
3151.000000	0.030477
3150.000000	0.030389
3149.000000	0.030305
3148.000000	0.030222
3147.000000	0.030137
3146.000000	0.030055
3145.000000	0.029979
3144.000000	0.029907
3143.000000	0.029837
3142.000000	0.029767
3141.000000	0.029694
3140.000000	0.029615
3139.000000	0.029536
3138.000000	0.029461
3137.000000	0.029395
3136.000000	0.029332
3135.000000	0.029271
3134.000000	0.029215
3133.000000	0.029172
3132.000000	0.029140
3131.000000	0.029118
3130.000000	0.029103
3129.000000	0.029088
3128.000000	0.029059
3127.000000	0.029012
3126.000000	0.028956
3125.000000	0.028905
3124.000000	0.028864
3123.000000	0.028829
3122.000000	0.028800
3121.000000	0.028781
3120.000000	0.028772
3119.000000	0.028762
3118.000000	0.028746
3117.000000	0.028726
3116.000000	0.028714
3115.000000	0.028712
3114.000000	0.028714
3113.000000	0.028715
3112.000000	0.028714
3111.000000	0.028717
3110.000000	0.028727
3109.000000	0.028745
3108.000000	0.028768
3107.000000	0.028793
3106.000000	0.028817
3105.000000	0.028842
3104.000000	0.028869
3103.000000	0.028900
3102.000000	0.028937
3101.000000	0.028978
3100.000000	0.029021
3099.000000	0.029063
3098.000000	0.029102
3097.000000	0.029138
3096.000000	0.029173
3095.000000	0.029207
3094.000000	0.029237
3093.000000	0.029258
3092.000000	0.029275
3091.000000	0.029296
3090.000000	0.029331
3089.000000	0.029377
3088.000000	0.029422
3087.000000	0.029456
3086.000000	0.029474
3085.000000	0.029484
3084.000000	0.029500
3083.000000	0.029533
3082.000000	0.029581
3081.000000	0.029629
3080.000000	0.029661
3079.000000	0.029681
3078.000000	0.029701
3077.000000	0.029729
3076.000000	0.029759
3075.000000	0.029777
3074.000000	0.029780
3073.000000	0.029774
3072.000000	0.029766
3071.000000	0.029759
3070.000000	0.029749
3069.000000	0.029728
3068.000000	0.029691
3067.000000	0.029641
3066.000000	0.029587
3065.000000	0.029539
3064.000000	0.029504
3063.000000	0.029480
3062.000000	0.029465
3061.000000	0.029448
3060.000000	0.029414
3059.000000	0.029352
3058.000000	0.029262
3057.000000	0.029156
3056.000000	0.029051
3055.000000	0.028958
3054.000000	0.028876
3053.000000	0.028796
3052.000000	0.028712
3051.000000	0.028627
3050.000000	0.028552
3049.000000	0.028495
3048.000000	0.028442
3047.000000	0.028373
3046.000000	0.028274
3045.000000	0.028150
3044.000000	0.028018
3043.000000	0.027892
3042.000000	0.027784
3041.000000	0.027695
3040.000000	0.027617
3039.000000	0.027538
3038.000000	0.027451
3037.000000	0.027359
3036.000000	0.027274
3035.000000	0.027202
3034.000000	0.027137
3033.000000	0.027070
3032.000000	0.026995
3031.000000	0.026923
3030.000000	0.026865
3029.000000	0.026821
3028.000000	0.026772
3027.000000	0.026704
3026.000000	0.026615
3025.000000	0.026520
3024.000000	0.026434
3023.000000	0.026357
3022.000000	0.026282
3021.000000	0.026205
3020.000000	0.026130
3019.000000	0.026067
3018.000000	0.026021
3017.000000	0.025982
3016.000000	0.025940
3015.000000	0.025891
3014.000000	0.025840
3013.000000	0.025793
3012.000000	0.025751
3011.000000	0.025717
3010.000000	0.025693
3009.000000	0.025678
3008.000000	0.025668
3007.000000	0.025661
3006.000000	0.025659
3005.000000	0.025664
3004.000000	0.025668
3003.000000	0.025665
3002.000000	0.025656
3001.000000	0.025651
3000.000000	0.025658
2999.000000	0.025683
2998.000000	0.025724
2997.000000	0.025777
2996.000000	0.025834
2995.000000	0.025890
2994.000000	0.025944
2993.000000	0.026000
2992.000000	0.026062
2991.000000	0.026131
2990.000000	0.026208
2989.000000	0.026292
2988.000000	0.026389
2987.000000	0.026502
2986.000000	0.026633
2985.000000	0.026773
2984.000000	0.026904
2983.000000	0.027011
2982.000000	0.027094
2981.000000	0.027167
2980.000000	0.027246
2979.000000	0.027346
2978.000000	0.027467
2977.000000	0.027595
2976.000000	0.027717
2975.000000	0.027828
2974.000000	0.027939
2973.000000	0.028063
2972.000000	0.028204
2971.000000	0.028355
2970.000000	0.028513
2969.000000	0.028683
2968.000000	0.028865
2967.000000	0.029055
2966.000000	0.029239
2965.000000	0.029413
2964.000000	0.029581
2963.000000	0.029753
2962.000000	0.029927
2961.000000	0.030095
2960.000000	0.030244
2959.000000	0.030374
2958.000000	0.030487
2957.000000	0.030582
2956.000000	0.030653
2955.000000	0.030698
2954.000000	0.030724
2953.000000	0.030740
2952.000000	0.030748
2951.000000	0.030753
2950.000000	0.030762
2949.000000	0.030781
2948.000000	0.030815
2947.000000	0.030869
2946.000000	0.030961
2945.000000	0.031101
2944.000000	0.031289
2943.000000	0.031513
2942.000000	0.031762
2941.000000	0.032021
2940.000000	0.032280
2939.000000	0.032532
2938.000000	0.032790
2937.000000	0.033067
2936.000000	0.033364
2935.000000	0.033669
2934.000000	0.033971
2933.000000	0.034266
2932.000000	0.034554
2931.000000	0.034832
2930.000000	0.035100
2929.000000	0.035363
2928.000000	0.035620
2927.000000	0.035856
2926.000000	0.036053
2925.000000	0.036205
2924.000000	0.036309
2923.000000	0.036365
2922.000000	0.036364
2921.000000	0.036301
2920.000000	0.036173
2919.000000	0.035976
2918.000000	0.035699
2917.000000	0.035336
2916.000000	0.034889
2915.000000	0.034372
2914.000000	0.033806
2913.000000	0.033231
2912.000000	0.032688
2911.000000	0.032211
2910.000000	0.031807
2909.000000	0.031464
2908.000000	0.031159
2907.000000	0.030870
2906.000000	0.030585
2905.000000	0.030307
2904.000000	0.030046
2903.000000	0.029817
2902.000000	0.029625
2901.000000	0.029461
2900.000000	0.029312
2899.000000	0.029164
2898.000000	0.029009
2897.000000	0.028847
2896.000000	0.028687
2895.000000	0.028538
2894.000000	0.028405
2893.000000	0.028283
2892.000000	0.028172
2891.000000	0.028077
2890.000000	0.027999
2889.000000	0.027928
2888.000000	0.027852
2887.000000	0.027776
2886.000000	0.027714
2885.000000	0.027673
2884.000000	0.027651
2883.000000	0.027643
2882.000000	0.027653
2881.000000	0.027686
2880.000000	0.027730
2879.000000	0.027769
2878.000000	0.027795
2877.000000	0.027808
2876.000000	0.027811
2875.000000	0.027808
2874.000000	0.027800
2873.000000	0.027787
2872.000000	0.027769
2871.000000	0.027744
2870.000000	0.027707
2869.000000	0.027658
2868.000000	0.027602
2867.000000	0.027550
2866.000000	0.027515
2865.000000	0.027499
2864.000000	0.027498
2863.000000	0.027517
2862.000000	0.027574
2861.000000	0.027690
2860.000000	0.027864
2859.000000	0.028078
2858.000000	0.028310
2857.000000	0.028542
2856.000000	0.028758
2855.000000	0.028947
2854.000000	0.029105
2853.000000	0.029232
2852.000000	0.029308
2851.000000	0.029287
2850.000000	0.029125
2849.000000	0.028812
2848.000000	0.028375
2847.000000	0.027863
2846.000000	0.027324
2845.000000	0.026805
2844.000000	0.026336
2843.000000	0.025933
2842.000000	0.025586
2841.000000	0.025280
2840.000000	0.025008
2839.000000	0.024769
2838.000000	0.024570
2837.000000	0.024414
2836.000000	0.024291
2835.000000	0.024186
2834.000000	0.024081
2833.000000	0.023971
2832.000000	0.023865
2831.000000	0.023771
2830.000000	0.023684
2829.000000	0.023595
2828.000000	0.023496
2827.000000	0.023395
2826.000000	0.023301
2825.000000	0.023223
2824.000000	0.023167
2823.000000	0.023133
2822.000000	0.023112
2821.000000	0.023082
2820.000000	0.023028
2819.000000	0.022948
2818.000000	0.022854
2817.000000	0.022757
2816.000000	0.022670
2815.000000	0.022605
2814.000000	0.022569
2813.000000	0.022555
2812.000000	0.022547
2811.000000	0.022534
2810.000000	0.022508
2809.000000	0.022458
2808.000000	0.022375
2807.000000	0.022272
2806.000000	0.022177
2805.000000	0.022123
2804.000000	0.022118
2803.000000	0.022145
2802.000000	0.022175
2801.000000	0.022175
2800.000000	0.022129
2799.000000	0.022047
2798.000000	0.021955
2797.000000	0.021880
2796.000000	0.021831
2795.000000	0.021807
2794.000000	0.021809
2793.000000	0.021831
2792.000000	0.021852
2791.000000	0.021851
2790.000000	0.021815
2789.000000	0.021746
2788.000000	0.021657
2787.000000	0.021564
2786.000000	0.021491
2785.000000	0.021449
2784.000000	0.021436
2783.000000	0.021436
2782.000000	0.021438
2781.000000	0.021437
2780.000000	0.021422
2779.000000	0.021378
2778.000000	0.021306
2777.000000	0.021226
2776.000000	0.021162
2775.000000	0.021126
2774.000000	0.021116
2773.000000	0.021127
2772.000000	0.021142
2771.000000	0.021143
2770.000000	0.021113
2769.000000	0.021050
2768.000000	0.020965
2767.000000	0.020873
2766.000000	0.020788
2765.000000	0.020728
2764.000000	0.020706
2763.000000	0.020716
2762.000000	0.020736
2761.000000	0.020741
2760.000000	0.020723
2759.000000	0.020686
2758.000000	0.020634
2757.000000	0.020572
2756.000000	0.020508
2755.000000	0.020454
2754.000000	0.020424
2753.000000	0.020420
2752.000000	0.020431
2751.000000	0.020439
2750.000000	0.020425
2749.000000	0.020385
2748.000000	0.020332
2747.000000	0.020284
2746.000000	0.020249
2745.000000	0.020222
2744.000000	0.020198
2743.000000	0.020177
2742.000000	0.020162
2741.000000	0.020147
2740.000000	0.020127
2739.000000	0.020103
2738.000000	0.020082
2737.000000	0.020061
2736.000000	0.020035
2735.000000	0.020005
2734.000000	0.019973
2733.000000	0.019942
2732.000000	0.019909
2731.000000	0.019875
2730.000000	0.019848
2729.000000	0.019829
2728.000000	0.019812
2727.000000	0.019788
2726.000000	0.019755
2725.000000	0.019714
2724.000000	0.019668
2723.000000	0.019625
2722.000000	0.019590
2721.000000	0.019564
2720.000000	0.019541
2719.000000	0.019521
2718.000000	0.019509
2717.000000	0.019512
2716.000000	0.019519
2715.000000	0.019514
2714.000000	0.019491
2713.000000	0.019456
2712.000000	0.019419
2711.000000	0.019388
2710.000000	0.019370
2709.000000	0.019365
2708.000000	0.019369
2707.000000	0.019369
2706.000000	0.019354
2705.000000	0.019324
2704.000000	0.019287
2703.000000	0.019250
2702.000000	0.019218
2701.000000	0.019193
2700.000000	0.019177
2699.000000	0.019173
2698.000000	0.019180
2697.000000	0.019191
2696.000000	0.019196
2695.000000	0.019186
2694.000000	0.019162
2693.000000	0.019130
2692.000000	0.019093
2691.000000	0.019052
2690.000000	0.019011
2689.000000	0.018979
2688.000000	0.018964
2687.000000	0.018968
2686.000000	0.018984
2685.000000	0.018999
2684.000000	0.019006
2683.000000	0.018998
2682.000000	0.018978
2681.000000	0.018950
2680.000000	0.018920
2679.000000	0.018899
2678.000000	0.018891
2677.000000	0.018897
2676.000000	0.018908
2675.000000	0.018915
2674.000000	0.018910
2673.000000	0.018892
2672.000000	0.018861
2671.000000	0.018824
2670.000000	0.018787
2669.000000	0.018759
2668.000000	0.018744
2667.000000	0.018747
2666.000000	0.018764
2665.000000	0.018785
2664.000000	0.018795
2663.000000	0.018784
2662.000000	0.018749
2661.000000	0.018694
2660.000000	0.018632
2659.000000	0.018576
2658.000000	0.018535
2657.000000	0.018506
2656.000000	0.018474
2655.000000	0.018430
2654.000000	0.018377
2653.000000	0.018324
2652.000000	0.018269
2651.000000	0.018209
2650.000000	0.018148
2649.000000	0.018093
2648.000000	0.018044
2647.000000	0.018000
2646.000000	0.017960
2645.000000	0.017923
2644.000000	0.017886
2643.000000	0.017847
2642.000000	0.017805
2641.000000	0.017762
2640.000000	0.017715
2639.000000	0.017658
2638.000000	0.017595
2637.000000	0.017533
2636.000000	0.017482
2635.000000	0.017440
2634.000000	0.017401
2633.000000	0.017359
2632.000000	0.017313
2631.000000	0.017267
2630.000000	0.017221
2629.000000	0.017178
2628.000000	0.017134
2627.000000	0.017086
2626.000000	0.017037
2625.000000	0.016996
2624.000000	0.016968
2623.000000	0.016951
2622.000000	0.016940
2621.000000	0.016931
2620.000000	0.016913
2619.000000	0.016878
2618.000000	0.016821
2617.000000	0.016746
2616.000000	0.016662
2615.000000	0.016580
2614.000000	0.016507
2613.000000	0.016451
2612.000000	0.016418
2611.000000	0.016415
2610.000000	0.016434
2609.000000	0.016452
2608.000000	0.016443
2607.000000	0.016399
2606.000000	0.016342
2605.000000	0.016295
2604.000000	0.016268
2603.000000	0.016251
2602.000000	0.016239
2601.000000	0.016233
2600.000000	0.016233
2599.000000	0.016225
2598.000000	0.016202
2597.000000	0.016165
2596.000000	0.016121
2595.000000	0.016076
2594.000000	0.016043
2593.000000	0.016041
2592.000000	0.016072
2591.000000	0.016112
2590.000000	0.016127
2589.000000	0.016105
2588.000000	0.016063
2587.000000	0.016024
2586.000000	0.015998
2585.000000	0.015976
2584.000000	0.015951
2583.000000	0.015924
2582.000000	0.015897
2581.000000	0.015868
2580.000000	0.015842
2579.000000	0.015825
2578.000000	0.015819
2577.000000	0.015816
2576.000000	0.015806
2575.000000	0.015786
2574.000000	0.015764
2573.000000	0.015749
2572.000000	0.015748
2571.000000	0.015761
2570.000000	0.015776
2569.000000	0.015776
2568.000000	0.015750
2567.000000	0.015704
2566.000000	0.015659
2565.000000	0.015623
2564.000000	0.015594
2563.000000	0.015568
2562.000000	0.015551
2561.000000	0.015550
2560.000000	0.015564
2559.000000	0.015579
2558.000000	0.015582
2557.000000	0.015565
2556.000000	0.015531
2555.000000	0.015498
2554.000000	0.015479
2553.000000	0.015471
2552.000000	0.015461
2551.000000	0.015448
2550.000000	0.015442
2549.000000	0.015440
2548.000000	0.015428
2547.000000	0.015405
2546.000000	0.015394
2545.000000	0.015412
2544.000000	0.015439
2543.000000	0.015445
2542.000000	0.015415
2541.000000	0.015363
2540.000000	0.015310
2539.000000	0.015271
2538.000000	0.015261
2537.000000	0.015283
2536.000000	0.015324
2535.000000	0.015361
2534.000000	0.015377
2533.000000	0.015367
2532.000000	0.015332
2531.000000	0.015290
2530.000000	0.015264
2529.000000	0.015261
2528.000000	0.015263
2527.000000	0.015247
2526.000000	0.015220
2525.000000	0.015212
2524.000000	0.015234
2523.000000	0.015263
2522.000000	0.015276
2521.000000	0.015267
2520.000000	0.015247
2519.000000	0.015223
2518.000000	0.015196
2517.000000	0.015172
2516.000000	0.015155
2515.000000	0.015146
2514.000000	0.015142
2513.000000	0.015130
2512.000000	0.015101
2511.000000	0.015058
2510.000000	0.015017
2509.000000	0.014992
2508.000000	0.014984
2507.000000	0.014988
2506.000000	0.015006
2505.000000	0.015039
2504.000000	0.015072
2503.000000	0.015077
2502.000000	0.015043
2501.000000	0.014980
2500.000000	0.014914
2499.000000	0.014866
2498.000000	0.014847
2497.000000	0.014860
2496.000000	0.014888
2495.000000	0.014906
2494.000000	0.014901
2493.000000	0.014881
2492.000000	0.014860
2491.000000	0.014848
2490.000000	0.014841
2489.000000	0.014831
2488.000000	0.014814
2487.000000	0.014788
2486.000000	0.014757
2485.000000	0.014730
2484.000000	0.014712
2483.000000	0.014707
2482.000000	0.014712
2481.000000	0.014723
2480.000000	0.014732
2479.000000	0.014736
2478.000000	0.014736
2477.000000	0.014733
2476.000000	0.014720
2475.000000	0.014693
2474.000000	0.014655
2473.000000	0.014617
2472.000000	0.014580
2471.000000	0.014545
2470.000000	0.014516
2469.000000	0.014509
2468.000000	0.014531
2467.000000	0.014572
2466.000000	0.014607
2465.000000	0.014615
2464.000000	0.014592
2463.000000	0.014552
2462.000000	0.014518
2461.000000	0.014507
2460.000000	0.014517
2459.000000	0.014535
2458.000000	0.014545
2457.000000	0.014540
2456.000000	0.014527
2455.000000	0.014522
2454.000000	0.014532
2453.000000	0.014546
2452.000000	0.014541
2451.000000	0.014509
2450.000000	0.014465
2449.000000	0.014433
2448.000000	0.014422
2447.000000	0.014422
2446.000000	0.014422
2445.000000	0.014412
2444.000000	0.014392
2443.000000	0.014364
2442.000000	0.014331
2441.000000	0.014305
2440.000000	0.014298
2439.000000	0.014316
2438.000000	0.014349
2437.000000	0.014372
2436.000000	0.014372
2435.000000	0.014359
2434.000000	0.014355
2433.000000	0.014372
2432.000000	0.014399
2431.000000	0.014429
2430.000000	0.014457
2429.000000	0.014476
2428.000000	0.014476
2427.000000	0.014458
2426.000000	0.014433
2425.000000	0.014407
2424.000000	0.014377
2423.000000	0.014352
2422.000000	0.014355
2421.000000	0.014391
2420.000000	0.014431
2419.000000	0.014446
2418.000000	0.014435
2417.000000	0.014419
2416.000000	0.014411
2415.000000	0.014411
2414.000000	0.014412
2413.000000	0.014408
2412.000000	0.014390
2411.000000	0.014354
2410.000000	0.014314
2409.000000	0.014288
2408.000000	0.014279
2407.000000	0.014279
2406.000000	0.014282
2405.000000	0.014290
2404.000000	0.014300
2403.000000	0.014313
2402.000000	0.014327
2401.000000	0.014337
2400.000000	0.014335
2399.000000	0.014316
2398.000000	0.014298
2397.000000	0.014293
2396.000000	0.014297
2395.000000	0.014298
2394.000000	0.014291
2393.000000	0.014287
2392.000000	0.014290
2391.000000	0.014298
2390.000000	0.014305
2389.000000	0.014308
2388.000000	0.014299
2387.000000	0.014276
2386.000000	0.014249
2385.000000	0.014226
2384.000000	0.014207
2383.000000	0.014190
2382.000000	0.014184
2381.000000	0.014197
2380.000000	0.014224
2379.000000	0.014249
2378.000000	0.014251
2377.000000	0.014215
2376.000000	0.014141
2375.000000	0.014062
2374.000000	0.014035
2373.000000	0.014091
2372.000000	0.014192
2371.000000	0.014265
2370.000000	0.014272
2369.000000	0.014233
2368.000000	0.014187
2367.000000	0.014152
2366.000000	0.014130
2365.000000	0.014129
2364.000000	0.014154
2363.000000	0.014214
2362.000000	0.014304
2361.000000	0.014393
2360.000000	0.014441
2359.000000	0.014430
2358.000000	0.014379
2357.000000	0.014332
2356.000000	0.014301
2355.000000	0.014298
2354.000000	0.014317
2353.000000	0.014337
2352.000000	0.014327
2351.000000	0.014296
2350.000000	0.014295
2349.000000	0.014351
2348.000000	0.014450
2347.000000	0.014543
2346.000000	0.014575
2345.000000	0.014539
2344.000000	0.014469
2343.000000	0.014416
2342.000000	0.014380
2341.000000	0.014348
2340.000000	0.014326
2339.000000	0.014320
2338.000000	0.014329
2337.000000	0.014341
2336.000000	0.014349
2335.000000	0.014345
2334.000000	0.014333
2333.000000	0.014310
2332.000000	0.014284
2331.000000	0.014255
2330.000000	0.014247
2329.000000	0.014263
2328.000000	0.014309
2327.000000	0.014362
2326.000000	0.014408
2325.000000	0.014431
2324.000000	0.014419
2323.000000	0.014373
2322.000000	0.014307
2321.000000	0.014238
2320.000000	0.014177
2319.000000	0.014123
2318.000000	0.014085
2317.000000	0.014063
2316.000000	0.014060
2315.000000	0.014061
2314.000000	0.014059
2313.000000	0.014033
2312.000000	0.013982
2311.000000	0.013907
2310.000000	0.013833
2309.000000	0.013771
2308.000000	0.013718
2307.000000	0.013661
2306.000000	0.013609
2305.000000	0.013575
2304.000000	0.013567
2303.000000	0.013581
2302.000000	0.013615
2301.000000	0.013658
2300.000000	0.013692
2299.000000	0.013699
2298.000000	0.013699
2297.000000	0.013718
2296.000000	0.013763
2295.000000	0.013806
2294.000000	0.013827
2293.000000	0.013825
2292.000000	0.013810
2291.000000	0.013785
2290.000000	0.013757
2289.000000	0.013744
2288.000000	0.013748
2287.000000	0.013750
2286.000000	0.013730
2285.000000	0.013689
2284.000000	0.013641
2283.000000	0.013601
2282.000000	0.013577
2281.000000	0.013566
2280.000000	0.013558
2279.000000	0.013538
2278.000000	0.013502
2277.000000	0.013450
2276.000000	0.013386
2275.000000	0.013328
2274.000000	0.013299
2273.000000	0.013297
2272.000000	0.013293
2271.000000	0.013267
2270.000000	0.013244
2269.000000	0.013263
2268.000000	0.013322
2267.000000	0.013382
2266.000000	0.013420
2265.000000	0.013451
2264.000000	0.013495
2263.000000	0.013545
2262.000000	0.013570
2261.000000	0.013538
2260.000000	0.013434
2259.000000	0.013286
2258.000000	0.013155
2257.000000	0.013088
2256.000000	0.013074
2255.000000	0.013073
2254.000000	0.013070
2253.000000	0.013079
2252.000000	0.013109
2251.000000	0.013142
2250.000000	0.013160
2249.000000	0.013145
2248.000000	0.013083
2247.000000	0.012984
2246.000000	0.012895
2245.000000	0.012868
2244.000000	0.012909
2243.000000	0.012982
2242.000000	0.013053
2241.000000	0.013095
2240.000000	0.013090
2239.000000	0.013059
2238.000000	0.013058
2237.000000	0.013109
2236.000000	0.013158
2235.000000	0.013146
2234.000000	0.013102
2233.000000	0.013099
2232.000000	0.013144
2231.000000	0.013163
2230.000000	0.013118
2229.000000	0.013044
2228.000000	0.012985
2227.000000	0.012941
2226.000000	0.012906
2225.000000	0.012887
2224.000000	0.012880
2223.000000	0.012865
2222.000000	0.012851
2221.000000	0.012874
2220.000000	0.012927
2219.000000	0.012953
2218.000000	0.012909
2217.000000	0.012819
2216.000000	0.012737
2215.000000	0.012706
2214.000000	0.012750
2213.000000	0.012857
2212.000000	0.012959
2211.000000	0.012966
2210.000000	0.012863
2209.000000	0.012733
2208.000000	0.012683
2207.000000	0.012749
2206.000000	0.012881
2205.000000	0.012980
2204.000000	0.012955
2203.000000	0.012797
2202.000000	0.012590
2201.000000	0.012427
2200.000000	0.012323
2199.000000	0.012252
2198.000000	0.012227
2197.000000	0.012276
2196.000000	0.012366
2195.000000	0.012435
2194.000000	0.012488
2193.000000	0.012594
2192.000000	0.012752
2191.000000	0.012864
2190.000000	0.012872
2189.000000	0.012816
2188.000000	0.012740
2187.000000	0.012614
2186.000000	0.012416
2185.000000	0.012220
2184.000000	0.012121
2183.000000	0.012107
2182.000000	0.012089
2181.000000	0.012033
2180.000000	0.011995
2179.000000	0.012027
2178.000000	0.012099
2177.000000	0.012124
2176.000000	0.012045
2175.000000	0.011899
2174.000000	0.011788
2173.000000	0.011779
2172.000000	0.011852
2171.000000	0.011960
2170.000000	0.012093
2169.000000	0.012247
2168.000000	0.012359
2167.000000	0.012343
2166.000000	0.012197
2165.000000	0.012006
2164.000000	0.011824
2163.000000	0.011605
2162.000000	0.011293
2161.000000	0.010939
2160.000000	0.010690
2159.000000	0.010672
2158.000000	0.010872
2157.000000	0.011138
2156.000000	0.011310
2155.000000	0.011356
2154.000000	0.011361
2153.000000	0.011407
2152.000000	0.011495
2151.000000	0.011593
2150.000000	0.011703
2149.000000	0.011839
2148.000000	0.011971
2147.000000	0.012051
2146.000000	0.012057
2145.000000	0.011996
2144.000000	0.011884
2143.000000	0.011764
2142.000000	0.011701
2141.000000	0.011725
2140.000000	0.011795
2139.000000	0.011856
2138.000000	0.011896
2137.000000	0.011922
2136.000000	0.011920
2135.000000	0.011888
2134.000000	0.011867
2133.000000	0.011890
2132.000000	0.011934
2131.000000	0.011975
2130.000000	0.012044
2129.000000	0.012184
2128.000000	0.012363
2127.000000	0.012497
2126.000000	0.012537
2125.000000	0.012506
2124.000000	0.012453
2123.000000	0.012423
2122.000000	0.012450
2121.000000	0.012539
2120.000000	0.012648
2119.000000	0.012723
2118.000000	0.012757
2117.000000	0.012781
2116.000000	0.012811
2115.000000	0.012840
2114.000000	0.012855
2113.000000	0.012852
2112.000000	0.012824
2111.000000	0.012771
2110.000000	0.012731
2109.000000	0.012740
2108.000000	0.012789
2107.000000	0.012836
2106.000000	0.012859
2105.000000	0.012867
2104.000000	0.012856
2103.000000	0.012810
2102.000000	0.012733
2101.000000	0.012655
2100.000000	0.012589
2099.000000	0.012531
2098.000000	0.012504
2097.000000	0.012543
2096.000000	0.012640
2095.000000	0.012733
2094.000000	0.012764
2093.000000	0.012724
2092.000000	0.012640
2091.000000	0.012562
2090.000000	0.012542
2089.000000	0.012589
2088.000000	0.012653
2087.000000	0.012674
2086.000000	0.012640
2085.000000	0.012581
2084.000000	0.012512
2083.000000	0.012440
2082.000000	0.012402
2081.000000	0.012426
2080.000000	0.012467
2079.000000	0.012438
2078.000000	0.012324
2077.000000	0.012210
2076.000000	0.012170
2075.000000	0.012190
2074.000000	0.012197
2073.000000	0.012143
2072.000000	0.012029
2071.000000	0.011899
2070.000000	0.011831
2069.000000	0.011872
2068.000000	0.011987
2067.000000	0.012084
2066.000000	0.012114
2065.000000	0.012103
2064.000000	0.012093
2063.000000	0.012089
2062.000000	0.012074
2061.000000	0.012028
2060.000000	0.011929
2059.000000	0.011781
2058.000000	0.011644
2057.000000	0.011580
2056.000000	0.011581
2055.000000	0.011592
2054.000000	0.011604
2053.000000	0.011662
2052.000000	0.011760
2051.000000	0.011814
2050.000000	0.011755
2049.000000	0.011598
2048.000000	0.011405
2047.000000	0.011215
2046.000000	0.011042
2045.000000	0.010899
2044.000000	0.010787
2043.000000	0.010718
2042.000000	0.010741
2041.000000	0.010877
2040.000000	0.011056
2039.000000	0.011168
2038.000000	0.011195
2037.000000	0.011175
2036.000000	0.011091
2035.000000	0.010879
2034.000000	0.010579
2033.000000	0.010341
2032.000000	0.010252
2031.000000	0.010246
2030.000000	0.010233
2029.000000	0.010192
2028.000000	0.010136
2027.000000	0.010097
2026.000000	0.010152
2025.000000	0.010343
2024.000000	0.010549
2023.000000	0.010561
2022.000000	0.010327
2021.000000	0.010033
2020.000000	0.009906
2019.000000	0.010013
2018.000000	0.010262
2017.000000	0.010514
2016.000000	0.010658
2015.000000	0.010674
2014.000000	0.010628
2013.000000	0.010587
2012.000000	0.010546
2011.000000	0.010480
2010.000000	0.010432
2009.000000	0.010465
2008.000000	0.010553
2007.000000	0.010608
2006.000000	0.010604
2005.000000	0.010566
2004.000000	0.010489
2003.000000	0.010365
2002.000000	0.010267
2001.000000	0.010293
2000.000000	0.010437
1999.000000	0.010599
1998.000000	0.010722
1997.000000	0.010825
1996.000000	0.010913
1995.000000	0.010962
1994.000000	0.011008
1993.000000	0.011118
1992.000000	0.011263
1991.000000	0.011304
1990.000000	0.011162
1989.000000	0.010938
1988.000000	0.010817
1987.000000	0.010894
1986.000000	0.011101
1985.000000	0.011266
1984.000000	0.011238
1983.000000	0.011012
1982.000000	0.010728
1981.000000	0.010519
1980.000000	0.010397
1979.000000	0.010331
1978.000000	0.010371
1977.000000	0.010558
1976.000000	0.010753
1975.000000	0.010759
1974.000000	0.010577
1973.000000	0.010395
1972.000000	0.010336
1971.000000	0.010353
1970.000000	0.010359
1969.000000	0.010330
1968.000000	0.010285
1967.000000	0.010258
1966.000000	0.010314
1965.000000	0.010484
1964.000000	0.010697
1963.000000	0.010838
1962.000000	0.010878
1961.000000	0.010872
1960.000000	0.010875
1959.000000	0.010904
1958.000000	0.010962
1957.000000	0.011022
1956.000000	0.011024
1955.000000	0.010958
1954.000000	0.010911
1953.000000	0.010954
1952.000000	0.011040
1951.000000	0.011067
1950.000000	0.011021
1949.000000	0.010967
1948.000000	0.010936
1947.000000	0.010913
1946.000000	0.010900
1945.000000	0.010917
1944.000000	0.010940
1943.000000	0.010932
1942.000000	0.010921
1941.000000	0.010965
1940.000000	0.011044
1939.000000	0.011084
1938.000000	0.011066
1937.000000	0.011038
1936.000000	0.011034
1935.000000	0.011036
1934.000000	0.011024
1933.000000	0.010997
1932.000000	0.010948
1931.000000	0.010886
1930.000000	0.010846
1929.000000	0.010865
1928.000000	0.010924
1927.000000	0.010971
1926.000000	0.010993
1925.000000	0.011008
1924.000000	0.011012
1923.000000	0.010980
1922.000000	0.010925
1921.000000	0.010889
1920.000000	0.010890
1919.000000	0.010904
1918.000000	0.010908
1917.000000	0.010914
1916.000000	0.010929
1915.000000	0.010945
1914.000000	0.010964
1913.000000	0.010985
1912.000000	0.010983
1911.000000	0.010939
1910.000000	0.010885
1909.000000	0.010881
1908.000000	0.010924
1907.000000	0.010955
1906.000000	0.010928
1905.000000	0.010852
1904.000000	0.010780
1903.000000	0.010758
1902.000000	0.010812
1901.000000	0.010930
1900.000000	0.011045
1899.000000	0.011095
1898.000000	0.011070
1897.000000	0.011003
1896.000000	0.010924
1895.000000	0.010842
1894.000000	0.010773
1893.000000	0.010731
1892.000000	0.010702
1891.000000	0.010665
1890.000000	0.010624
1889.000000	0.010600
1888.000000	0.010593
1887.000000	0.010590
1886.000000	0.010597
1885.000000	0.010623
1884.000000	0.010645
1883.000000	0.010634
1882.000000	0.010605
1881.000000	0.010606
1880.000000	0.010647
1879.000000	0.010696
1878.000000	0.010734
1877.000000	0.010761
1876.000000	0.010763
1875.000000	0.010726
1874.000000	0.010672
1873.000000	0.010641
1872.000000	0.010640
1871.000000	0.010643
1870.000000	0.010630
1869.000000	0.010602
1868.000000	0.010571
1867.000000	0.010540
1866.000000	0.010512
1865.000000	0.010495
1864.000000	0.010485
1863.000000	0.010475
1862.000000	0.010475
1861.000000	0.010499
1860.000000	0.010528
1859.000000	0.010530
1858.000000	0.010511
1857.000000	0.010514
1856.000000	0.010560
1855.000000	0.010627
1854.000000	0.010678
1853.000000	0.010699
1852.000000	0.010687
1851.000000	0.010645
1850.000000	0.010605
1849.000000	0.010586
1848.000000	0.010562
1847.000000	0.010504
1846.000000	0.010430
1845.000000	0.010385
1844.000000	0.010379
1843.000000	0.010401
1842.000000	0.010427
1841.000000	0.010442
1840.000000	0.010449
1839.000000	0.010453
1838.000000	0.010461
1837.000000	0.010483
1836.000000	0.010514
1835.000000	0.010527
1834.000000	0.010512
1833.000000	0.010476
1832.000000	0.010413
1831.000000	0.010316
1830.000000	0.010225
1829.000000	0.010196
1828.000000	0.010233
1827.000000	0.010291
1826.000000	0.010349
1825.000000	0.010399
1824.000000	0.010426
1823.000000	0.010423
1822.000000	0.010417
1821.000000	0.010436
1820.000000	0.010467
1819.000000	0.010489
1818.000000	0.010510
1817.000000	0.010546
1816.000000	0.010586
1815.000000	0.010603
1814.000000	0.010598
1813.000000	0.010582
1812.000000	0.010551
1811.000000	0.010514
1810.000000	0.010500
1809.000000	0.010523
1808.000000	0.010557
1807.000000	0.010566
1806.000000	0.010559
1805.000000	0.010562
1804.000000	0.010578
1803.000000	0.010576
1802.000000	0.010543
1801.000000	0.010493
1800.000000	0.010445
1799.000000	0.010431
1798.000000	0.010469
1797.000000	0.010537
1796.000000	0.010575
1795.000000	0.010552
1794.000000	0.010509
1793.000000	0.010496
1792.000000	0.010504
1791.000000	0.010510
1790.000000	0.010516
1789.000000	0.010531
1788.000000	0.010545
1787.000000	0.010536
1786.000000	0.010510
1785.000000	0.010493
1784.000000	0.010484
1783.000000	0.010446
1782.000000	0.010391
1781.000000	0.010369
1780.000000	0.010379
1779.000000	0.010393
1778.000000	0.010391
1777.000000	0.010377
1776.000000	0.010332
1775.000000	0.010250
1774.000000	0.010183
1773.000000	0.010169
1772.000000	0.010164
1771.000000	0.010130
1770.000000	0.010111
1769.000000	0.010174
1768.000000	0.010304
1767.000000	0.010400
1766.000000	0.010410
1765.000000	0.010369
1764.000000	0.010329
1763.000000	0.010296
1762.000000	0.010276
1761.000000	0.010312
1760.000000	0.010399
1759.000000	0.010478
1758.000000	0.010543
1757.000000	0.010650
1756.000000	0.010796
1755.000000	0.010934
1754.000000	0.011072
1753.000000	0.011272
1752.000000	0.011519
1751.000000	0.011690
1750.000000	0.011735
1749.000000	0.011741
1748.000000	0.011792
1747.000000	0.011880
1746.000000	0.011985
1745.000000	0.012087
1744.000000	0.012124
1743.000000	0.012036
1742.000000	0.011846
1741.000000	0.011658
1740.000000	0.011536
1739.000000	0.011451
1738.000000	0.011348
1737.000000	0.011245
1736.000000	0.011211
1735.000000	0.011219
1734.000000	0.011184
1733.000000	0.011148
1732.000000	0.011085
1731.000000	0.010912
1730.000000	0.010727
1729.000000	0.010653
1728.000000	0.010670
1727.000000	0.010681
1726.000000	0.010670
1725.000000	0.010673
1724.000000	0.010692
1723.000000	0.010679
1722.000000	0.010611
1721.000000	0.010542
1720.000000	0.010558
1719.000000	0.010692
1718.000000	0.010910
1717.000000	0.011161
1716.000000	0.011388
1715.000000	0.011543
1714.000000	0.011707
1713.000000	0.012012
1712.000000	0.012457
1711.000000	0.012929
1710.000000	0.013376
1709.000000	0.013842
1708.000000	0.014347
1707.000000	0.014905
1706.000000	0.015571
1705.000000	0.016345
1704.000000	0.017095
1703.000000	0.017756
1702.000000	0.018532
1701.000000	0.019654
1700.000000	0.020974
1699.000000	0.022134
1698.000000	0.023088
1697.000000	0.024145
1696.000000	0.025511
1695.000000	0.026906
1694.000000	0.028003
1693.000000	0.028831
1692.000000	0.029651
1691.000000	0.030616
1690.000000	0.031664
1689.000000	0.032698
1688.000000	0.033677
1687.000000	0.034667
1686.000000	0.035828
1685.000000	0.037249
1684.000000	0.038733
1683.000000	0.039987
1682.000000	0.041087
1681.000000	0.042282
1680.000000	0.043648
1679.000000	0.045006
1678.000000	0.046257
1677.000000	0.047576
1676.000000	0.049166
1675.000000	0.050917
1674.000000	0.052586
1673.000000	0.054117
1672.000000	0.055618
1671.000000	0.057209
1670.000000	0.058911
1669.000000	0.060700
1668.000000	0.062484
1667.000000	0.064113
1666.000000	0.065574
1665.000000	0.067031
1664.000000	0.068619
1663.000000	0.070257
1662.000000	0.071800
1661.000000	0.073253
1660.000000	0.074644
1659.000000	0.075931
1658.000000	0.077047
1657.000000	0.077995
1656.000000	0.078882
1655.000000	0.079886
1654.000000	0.081053
1653.000000	0.082255
1652.000000	0.083434
1651.000000	0.084307
1650.000000	0.084666
1649.000000	0.084952
1648.000000	0.085469
1647.000000	0.086086
1646.000000	0.086637
1645.000000	0.087210
1644.000000	0.087795
1643.000000	0.088269
1642.000000	0.088642
1641.000000	0.089001
1640.000000	0.089353
1639.000000	0.089647
1638.000000	0.089874
1637.000000	0.090054
1636.000000	0.090137
1635.000000	0.090117
1634.000000	0.090120
1633.000000	0.090141
1632.000000	0.090106
1631.000000	0.089958
1630.000000	0.089607
1629.000000	0.089000
1628.000000	0.088187
1627.000000	0.087255
1626.000000	0.086237
1625.000000	0.085075
1624.000000	0.083682
1623.000000	0.082093
1622.000000	0.080518
1621.000000	0.079113
1620.000000	0.077823
1619.000000	0.076515
1618.000000	0.075011
1617.000000	0.073186
1616.000000	0.071225
1615.000000	0.069429
1614.000000	0.067820
1613.000000	0.066295
1612.000000	0.064787
1611.000000	0.063267
1610.000000	0.061754
1609.000000	0.060294
1608.000000	0.058924
1607.000000	0.057665
1606.000000	0.056524
1605.000000	0.055466
1604.000000	0.054437
1603.000000	0.053443
1602.000000	0.052531
1601.000000	0.051723
1600.000000	0.051016
1599.000000	0.050415
1598.000000	0.049912
1597.000000	0.049467
1596.000000	0.049052
1595.000000	0.048693
1594.000000	0.048418
1593.000000	0.048205
1592.000000	0.048028
1591.000000	0.047907
1590.000000	0.047877
1589.000000	0.047928
1588.000000	0.048037
1587.000000	0.048219
1586.000000	0.048484
1585.000000	0.048806
1584.000000	0.049137
1583.000000	0.049487
1582.000000	0.049905
1581.000000	0.050368
1580.000000	0.050814
1579.000000	0.051284
1578.000000	0.051913
1577.000000	0.052731
1576.000000	0.053592
1575.000000	0.054333
1574.000000	0.054906
1573.000000	0.055376
1572.000000	0.055907
1571.000000	0.056617
1570.000000	0.057493
1569.000000	0.058446
1568.000000	0.059398
1567.000000	0.060345
1566.000000	0.061343
1565.000000	0.062409
1564.000000	0.063442
1563.000000	0.064356
1562.000000	0.065222
1561.000000	0.066210
1560.000000	0.067363
1559.000000	0.068485
1558.000000	0.069440
1557.000000	0.070403
1556.000000	0.071347
1555.000000	0.072281
1554.000000	0.073221
1553.000000	0.074066
1552.000000	0.074738
1551.000000	0.075310
1550.000000	0.075870
1549.000000	0.076424
1548.000000	0.076942
1547.000000	0.077402
1546.000000	0.077804
1545.000000	0.078133
1544.000000	0.078377
1543.000000	0.078583
1542.000000	0.078809
1541.000000	0.079000
1540.000000	0.079024
1539.000000	0.078950
1538.000000	0.078904
1537.000000	0.078757
1536.000000	0.078472
1535.000000	0.078118
1534.000000	0.077671
1533.000000	0.077158
1532.000000	0.076736
1531.000000	0.076448
1530.000000	0.076179
1529.000000	0.075824
1528.000000	0.075362
1527.000000	0.074821
1526.000000	0.074248
1525.000000	0.073692
1524.000000	0.073165
1523.000000	0.072630
1522.000000	0.072002
1521.000000	0.071293
1520.000000	0.070639
1519.000000	0.070028
1518.000000	0.069359
1517.000000	0.068624
1516.000000	0.067895
1515.000000	0.067236
1514.000000	0.066601
1513.000000	0.065891
1512.000000	0.065063
1511.000000	0.064164
1510.000000	0.063277
1509.000000	0.062420
1508.000000	0.061409
1507.000000	0.059954
1506.000000	0.058320
1505.000000	0.057169
1504.000000	0.056382
1503.000000	0.055568
1502.000000	0.054668
1501.000000	0.053714
1500.000000	0.052704
1499.000000	0.051633
1498.000000	0.050516
1497.000000	0.049381
1496.000000	0.048309
1495.000000	0.047347
1494.000000	0.046450
1493.000000	0.045575
1492.000000	0.044701
1491.000000	0.043773
1490.000000	0.042804
1489.000000	0.041942
1488.000000	0.041304
1487.000000	0.040852
1486.000000	0.040503
1485.000000	0.040250
1484.000000	0.040087
1483.000000	0.039969
1482.000000	0.039881
1481.000000	0.039862
1480.000000	0.039941
1479.000000	0.040091
1478.000000	0.040295
1477.000000	0.040570
1476.000000	0.040946
1475.000000	0.041427
1474.000000	0.042032
1473.000000	0.042760
1472.000000	0.043540
1471.000000	0.044297
1470.000000	0.045012
1469.000000	0.045691
1468.000000	0.046333
1467.000000	0.046916
1466.000000	0.047467
1465.000000	0.048055
1464.000000	0.048687
1463.000000	0.049316
1462.000000	0.049900
1461.000000	0.050446
1460.000000	0.050992
1459.000000	0.051594
1458.000000	0.052313
1457.000000	0.053152
1456.000000	0.054006
1455.000000	0.054687
1454.000000	0.055116
1453.000000	0.055434
1452.000000	0.055733
1451.000000	0.055959
1450.000000	0.056071
1449.000000	0.056097
1448.000000	0.056069
1447.000000	0.055996
1446.000000	0.055920
1445.000000	0.055848
1444.000000	0.055717
1443.000000	0.055492
1442.000000	0.055198
1441.000000	0.054876
1440.000000	0.054526
1439.000000	0.054124
1438.000000	0.053637
1437.000000	0.053042
1436.000000	0.052432
1435.000000	0.051930
1434.000000	0.051503
1433.000000	0.051070
1432.000000	0.050594
1431.000000	0.050069
1430.000000	0.049535
1429.000000	0.049073
1428.000000	0.048736
1427.000000	0.048500
1426.000000	0.048316
1425.000000	0.048152
1424.000000	0.047987
1423.000000	0.047839
1422.000000	0.047754
1421.000000	0.047755
1420.000000	0.047778
1419.000000	0.047733
1418.000000	0.047649
1417.000000	0.047618
1416.000000	0.047664
1415.000000	0.047767
1414.000000	0.047894
1413.000000	0.048031
1412.000000	0.048192
1411.000000	0.048391
1410.000000	0.048629
1409.000000	0.048893
1408.000000	0.049167
1407.000000	0.049427
1406.000000	0.049665
1405.000000	0.049896
1404.000000	0.050116
1403.000000	0.050300
1402.000000	0.050425
1401.000000	0.050482
1400.000000	0.050462
1399.000000	0.050364
1398.000000	0.050231
1397.000000	0.050099
1396.000000	0.049945
1395.000000	0.049725
1394.000000	0.049467
1393.000000	0.049247
1392.000000	0.049058
1391.000000	0.048846
1390.000000	0.048596
1389.000000	0.048322
1388.000000	0.048025
1387.000000	0.047704
1386.000000	0.047386
1385.000000	0.047095
1384.000000	0.046810
1383.000000	0.046502
1382.000000	0.046161
1381.000000	0.045808
1380.000000	0.045456
1379.000000	0.045093
1378.000000	0.044703
1377.000000	0.044279
1376.000000	0.043808
1375.000000	0.043275
1374.000000	0.042706
1373.000000	0.042172
1372.000000	0.041715
1371.000000	0.041296
1370.000000	0.040855
1369.000000	0.040368
1368.000000	0.039850
1367.000000	0.039328
1366.000000	0.038815
1365.000000	0.038300
1364.000000	0.037774
1363.000000	0.037252
1362.000000	0.036794
1361.000000	0.036454
1360.000000	0.036232
1359.000000	0.036084
1358.000000	0.035980
1357.000000	0.035924
1356.000000	0.035930
1355.000000	0.035998
1354.000000	0.036121
1353.000000	0.036297
1352.000000	0.036522
1351.000000	0.036783
1350.000000	0.037067
1349.000000	0.037377
1348.000000	0.037726
1347.000000	0.038111
1346.000000	0.038514
1345.000000	0.038920
1344.000000	0.039319
1343.000000	0.039706
1342.000000	0.040074
1341.000000	0.040420
1340.000000	0.040731
1339.000000	0.040982
1338.000000	0.041153
1337.000000	0.041247
1336.000000	0.041265
1335.000000	0.041203
1334.000000	0.041066
1333.000000	0.040873
1332.000000	0.040640
1331.000000	0.040369
1330.000000	0.040062
1329.000000	0.039732
1328.000000	0.039399
1327.000000	0.039081
1326.000000	0.038794
1325.000000	0.038553
1324.000000	0.038365
1323.000000	0.038227
1322.000000	0.038133
1321.000000	0.038073
1320.000000	0.038030
1319.000000	0.037979
1318.000000	0.037907
1317.000000	0.037820
1316.000000	0.037728
1315.000000	0.037628
1314.000000	0.037505
1313.000000	0.037346
1312.000000	0.037142
1311.000000	0.036891
1310.000000	0.036610
1309.000000	0.036338
1308.000000	0.036110
1307.000000	0.035925
1306.000000	0.035758
1305.000000	0.035588
1304.000000	0.035408
1303.000000	0.035222
1302.000000	0.035032
1301.000000	0.034842
1300.000000	0.034661
1299.000000	0.034496
1298.000000	0.034355
1297.000000	0.034252
1296.000000	0.034199
1295.000000	0.034201
1294.000000	0.034260
1293.000000	0.034377
1292.000000	0.034556
1291.000000	0.034780
1290.000000	0.035025
1289.000000	0.035274
1288.000000	0.035531
1287.000000	0.035804
1286.000000	0.036091
1285.000000	0.036374
1284.000000	0.036634
1283.000000	0.036856
1282.000000	0.037034
1281.000000	0.037167
1280.000000	0.037251
1279.000000	0.037281
1278.000000	0.037263
1277.000000	0.037211
1276.000000	0.037146
1275.000000	0.037088
1274.000000	0.037051
1273.000000	0.037050
1272.000000	0.037084
1271.000000	0.037140
1270.000000	0.037208
1269.000000	0.037290
1268.000000	0.037395
1267.000000	0.037529
1266.000000	0.037698
1265.000000	0.037900
1264.000000	0.038128
1263.000000	0.038365
1262.000000	0.038604
1261.000000	0.038849
1260.000000	0.039102
1259.000000	0.039364
1258.000000	0.039647
1257.000000	0.039973
1256.000000	0.040350
1255.000000	0.040763
1254.000000	0.041195
1253.000000	0.041645
1252.000000	0.042111
1251.000000	0.042586
1250.000000	0.043065
1249.000000	0.043559
1248.000000	0.044074
1247.000000	0.044599
1246.000000	0.045120
1245.000000	0.045633
1244.000000	0.046129
1243.000000	0.046595
1242.000000	0.047026
1241.000000	0.047433
1240.000000	0.047814
1239.000000	0.048140
1238.000000	0.048384
1237.000000	0.048539
1236.000000	0.048611
1235.000000	0.048595
1234.000000	0.048490
1233.000000	0.048305
1232.000000	0.048043
1231.000000	0.047696
1230.000000	0.047263
1229.000000	0.046753
1228.000000	0.046171
1227.000000	0.045511
1226.000000	0.044785
1225.000000	0.044022
1224.000000	0.043245
1223.000000	0.042456
1222.000000	0.041649
1221.000000	0.040843
1220.000000	0.040070
1219.000000	0.039363
1218.000000	0.038746
1217.000000	0.038238
1216.000000	0.037843
1215.000000	0.037549
1214.000000	0.037341
1213.000000	0.037211
1212.000000	0.037152
1211.000000	0.037156
1210.000000	0.037208
1209.000000	0.037307
1208.000000	0.037454
1207.000000	0.037636
1206.000000	0.037822
1205.000000	0.037970
1204.000000	0.038047
1203.000000	0.038031
1202.000000	0.037919
1201.000000	0.037718
1200.000000	0.037429
1199.000000	0.037056
1198.000000	0.036618
1197.000000	0.036141
1196.000000	0.035643
1195.000000	0.035126
1194.000000	0.034592
1193.000000	0.034047
1192.000000	0.033504
1191.000000	0.032968
1190.000000	0.032449
1189.000000	0.031961
1188.000000	0.031509
1187.000000	0.031081
1186.000000	0.030663
1185.000000	0.030261
1184.000000	0.029900
1183.000000	0.029598
1182.000000	0.029355
1181.000000	0.029163
1180.000000	0.029010
1179.000000	0.028888
1178.000000	0.028797
1177.000000	0.028740
1176.000000	0.028718
1175.000000	0.028717
1174.000000	0.028714
1173.000000	0.028705
1172.000000	0.028705
1171.000000	0.028732
1170.000000	0.028793
1169.000000	0.028891
1168.000000	0.029026
1167.000000	0.029187
1166.000000	0.029359
1165.000000	0.029526
1164.000000	0.029675
1163.000000	0.029795
1162.000000	0.029875
1161.000000	0.029909
1160.000000	0.029900
1159.000000	0.029842
1158.000000	0.029722
1157.000000	0.029540
1156.000000	0.029314
1155.000000	0.029059
1154.000000	0.028778
1153.000000	0.028460
1152.000000	0.028104
1151.000000	0.027726
1150.000000	0.027355
1149.000000	0.027018
1148.000000	0.026721
1147.000000	0.026443
1146.000000	0.026154
1145.000000	0.025846
1144.000000	0.025544
1143.000000	0.025278
1142.000000	0.025061
1141.000000	0.024882
1140.000000	0.024713
1139.000000	0.024532
1138.000000	0.024325
1137.000000	0.024107
1136.000000	0.023905
1135.000000	0.023741
1134.000000	0.023620
1133.000000	0.023539
1132.000000	0.023503
1131.000000	0.023502
1130.000000	0.023508
1129.000000	0.023496
1128.000000	0.023478
1127.000000	0.023481
1126.000000	0.023505
1125.000000	0.023525
1124.000000	0.023522
1123.000000	0.023510
1122.000000	0.023517
1121.000000	0.023548
1120.000000	0.023594
1119.000000	0.023649
1118.000000	0.023719
1117.000000	0.023801
1116.000000	0.023881
1115.000000	0.023947
1114.000000	0.024005
1113.000000	0.024072
1112.000000	0.024162
1111.000000	0.024277
1110.000000	0.024419
1109.000000	0.024583
1108.000000	0.024761
1107.000000	0.024934
1106.000000	0.025086
1105.000000	0.025209
1104.000000	0.025306
1103.000000	0.025392
1102.000000	0.025486
1101.000000	0.025606
1100.000000	0.025756
1099.000000	0.025920
1098.000000	0.026076
1097.000000	0.026214
1096.000000	0.026335
1095.000000	0.026459
1094.000000	0.026619
1093.000000	0.026853
1092.000000	0.027176
1091.000000	0.027565
1090.000000	0.027983
1089.000000	0.028413
1088.000000	0.028866
1087.000000	0.029359
1086.000000	0.029882
1085.000000	0.030396
1084.000000	0.030848
1083.000000	0.031186
1082.000000	0.031378
1081.000000	0.031421
1080.000000	0.031331
1079.000000	0.031135
1078.000000	0.030861
1077.000000	0.030535
1076.000000	0.030183
1075.000000	0.029826
1074.000000	0.029483
1073.000000	0.029162
1072.000000	0.028864
1071.000000	0.028593
1070.000000	0.028371
1069.000000	0.028226
1068.000000	0.028167
1067.000000	0.028176
1066.000000	0.028224
1065.000000	0.028285
1064.000000	0.028341
1063.000000	0.028383
1062.000000	0.028405
1061.000000	0.028404
1060.000000	0.028380
1059.000000	0.028332
1058.000000	0.028261
1057.000000	0.028169
1056.000000	0.028053
1055.000000	0.027915
1054.000000	0.027762
1053.000000	0.027610
1052.000000	0.027479
1051.000000	0.027378
1050.000000	0.027305
1049.000000	0.027243
1048.000000	0.027176
1047.000000	0.027106
1046.000000	0.027055
1045.000000	0.027037
1044.000000	0.027043
1043.000000	0.027052
1042.000000	0.027064
1041.000000	0.027104
1040.000000	0.027196
1039.000000	0.027355
1038.000000	0.027587
1037.000000	0.027902
1036.000000	0.028291
1035.000000	0.028712
1034.000000	0.029105
1033.000000	0.029417
1032.000000	0.029618
1031.000000	0.029703
1030.000000	0.029698
1029.000000	0.029632
1028.000000	0.029514
1027.000000	0.029325
1026.000000	0.029061
1025.000000	0.028752
1024.000000	0.028442
1023.000000	0.028159
1022.000000	0.027911
1021.000000	0.027700
1020.000000	0.027515
1019.000000	0.027331
1018.000000	0.027125
1017.000000	0.026890
1016.000000	0.026633
1015.000000	0.026352
1014.000000	0.026040
1013.000000	0.025694
1012.000000	0.025325
1011.000000	0.024942
1010.000000	0.024552
1009.000000	0.024163
1008.000000	0.023781
1007.000000	0.023403
1006.000000	0.023023
1005.000000	0.022642
1004.000000	0.022278
1003.000000	0.021954
1002.000000	0.021669
1001.000000	0.021399
1000.000000	0.021110
999.000000	0.020785
998.000000	0.020447
997.000000	0.020135
996.000000	0.019868
995.000000	0.019632
994.000000	0.019403
993.000000	0.019170
992.000000	0.018940
991.000000	0.018716
990.000000	0.018492
989.000000	0.018262
988.000000	0.018031
987.000000	0.017811
986.000000	0.017617
985.000000	0.017460
984.000000	0.017336
983.000000	0.017233
982.000000	0.017148
981.000000	0.017098
980.000000	0.017092
979.000000	0.017110
978.000000	0.017116
977.000000	0.017097
976.000000	0.017063
975.000000	0.017021
974.000000	0.016958
973.000000	0.016866
972.000000	0.016752
971.000000	0.016616
970.000000	0.016448
969.000000	0.016245
968.000000	0.016027
967.000000	0.015816
966.000000	0.015614
965.000000	0.015407
964.000000	0.015189
963.000000	0.014970
962.000000	0.014761
961.000000	0.014577
960.000000	0.014433
959.000000	0.014332
958.000000	0.014249
957.000000	0.014149
956.000000	0.014015
955.000000	0.013862
954.000000	0.013720
953.000000	0.013604
952.000000	0.013510
951.000000	0.013423
950.000000	0.013331
949.000000	0.013240
948.000000	0.013162
947.000000	0.013112
946.000000	0.013093
945.000000	0.013107
944.000000	0.013155
943.000000	0.013230
942.000000	0.013308
941.000000	0.013368
940.000000	0.013398
939.000000	0.013399
938.000000	0.013369
937.000000	0.013310
936.000000	0.013229
935.000000	0.013135
934.000000	0.013026
933.000000	0.012904
932.000000	0.012788
931.000000	0.012700
930.000000	0.012646
929.000000	0.012606
928.000000	0.012562
927.000000	0.012516
926.000000	0.012493
925.000000	0.012502
924.000000	0.012517
923.000000	0.012498
922.000000	0.012427
921.000000	0.012329
920.000000	0.012242
919.000000	0.012176
918.000000	0.012106
917.000000	0.012006
916.000000	0.011872
915.000000	0.011721
914.000000	0.011574
913.000000	0.011436
912.000000	0.011299
911.000000	0.011150
910.000000	0.010992
909.000000	0.010857
908.000000	0.010782
907.000000	0.010768
906.000000	0.010782
905.000000	0.010787
904.000000	0.010776
903.000000	0.010758
902.000000	0.010735
901.000000	0.010692
900.000000	0.010618
899.000000	0.010525
898.000000	0.010437
897.000000	0.010368
896.000000	0.010310
895.000000	0.010244
894.000000	0.010170
893.000000	0.010113
892.000000	0.010101
891.000000	0.010132
890.000000	0.010180
889.000000	0.010225
888.000000	0.010263
887.000000	0.010308
886.000000	0.010385
885.000000	0.010521
884.000000	0.010727
883.000000	0.010977
882.000000	0.011232
881.000000	0.011480
880.000000	0.011753
879.000000	0.012071
878.000000	0.012409
877.000000	0.012710
876.000000	0.012914
875.000000	0.012977
874.000000	0.012884
873.000000	0.012664
872.000000	0.012382
871.000000	0.012100
870.000000	0.011836
869.000000	0.011581
868.000000	0.011335
867.000000	0.011117
866.000000	0.010955
865.000000	0.010861
864.000000	0.010836
863.000000	0.010861
862.000000	0.010903
861.000000	0.010930
860.000000	0.010929
859.000000	0.010905
858.000000	0.010877
857.000000	0.010865
856.000000	0.010886
855.000000	0.010941
854.000000	0.011012
853.000000	0.011075
852.000000	0.011111
851.000000	0.011117
850.000000	0.011091
849.000000	0.011034
848.000000	0.010957
847.000000	0.010881
846.000000	0.010823
845.000000	0.010779
844.000000	0.010720
843.000000	0.010629
842.000000	0.010519
841.000000	0.010427
840.000000	0.010380
839.000000	0.010372
838.000000	0.010377
837.000000	0.010371
836.000000	0.010341
835.000000	0.010282
834.000000	0.010204
833.000000	0.010136
832.000000	0.010106
831.000000	0.010112
830.000000	0.010128
829.000000	0.010131
828.000000	0.010122
827.000000	0.010119
826.000000	0.010141
825.000000	0.010189
824.000000	0.010250
823.000000	0.010296
822.000000	0.010312
821.000000	0.010308
820.000000	0.010311
819.000000	0.010336
818.000000	0.010383
817.000000	0.010442
816.000000	0.010499
815.000000	0.010538
814.000000	0.010554
813.000000	0.010562
812.000000	0.010573
811.000000	0.010575
810.000000	0.010534
809.000000	0.010441
808.000000	0.010319
807.000000	0.010210
806.000000	0.010149
805.000000	0.010141
804.000000	0.010169
803.000000	0.010203
802.000000	0.010223
801.000000	0.010239
800.000000	0.010271
799.000000	0.010331
798.000000	0.010409
797.000000	0.010483
796.000000	0.010533
795.000000	0.010550
794.000000	0.010547
793.000000	0.010552
792.000000	0.010580
791.000000	0.010628
790.000000	0.010683
789.000000	0.010748
788.000000	0.010824
787.000000	0.010900
786.000000	0.010964
785.000000	0.011015
784.000000	0.011054
783.000000	0.011075
782.000000	0.011079
781.000000	0.011091
780.000000	0.011134
779.000000	0.011200
778.000000	0.011259
777.000000	0.011296
776.000000	0.011321
775.000000	0.011343
774.000000	0.011365
773.000000	0.011400
772.000000	0.011466
771.000000	0.011562
770.000000	0.011666
769.000000	0.011757
768.000000	0.011835
767.000000	0.011896
766.000000	0.011914
765.000000	0.011870
764.000000	0.011792
763.000000	0.011741
762.000000	0.011760
761.000000	0.011847
760.000000	0.011969
759.000000	0.012106
758.000000	0.012242
757.000000	0.012360
756.000000	0.012434
755.000000	0.012463
754.000000	0.012468
753.000000	0.012476
752.000000	0.012496
751.000000	0.012535
750.000000	0.012618
749.000000	0.012755
748.000000	0.012912
747.000000	0.013030
746.000000	0.013085
745.000000	0.013104
744.000000	0.013129
743.000000	0.013177
742.000000	0.013252
741.000000	0.013362
740.000000	0.013511
739.000000	0.013692
738.000000	0.013888
737.000000	0.014075
736.000000	0.014224
735.000000	0.014321
734.000000	0.014393
733.000000	0.014491
732.000000	0.014635
731.000000	0.014805
730.000000	0.014978
729.000000	0.015156
728.000000	0.015340
727.000000	0.015533
726.000000	0.015760
725.000000	0.016051
724.000000	0.016370
723.000000	0.016625
722.000000	0.016770
721.000000	0.016859
720.000000	0.016964
719.000000	0.017083
718.000000	0.017172
717.000000	0.017243
716.000000	0.017362
715.000000	0.017556
714.000000	0.017788
713.000000	0.017999
712.000000	0.018156
711.000000	0.018255
710.000000	0.018330
709.000000	0.018441
708.000000	0.018624
707.000000	0.018849
706.000000	0.019054
705.000000	0.019221
704.000000	0.019377
703.000000	0.019540
702.000000	0.019697
701.000000	0.019825
700.000000	0.019911
699.000000	0.019933
698.000000	0.019890
697.000000	0.019827
696.000000	0.019815
695.000000	0.019881
694.000000	0.019989
693.000000	0.020088
692.000000	0.020155
691.000000	0.020187
690.000000	0.020172
689.000000	0.020116
688.000000	0.020068
687.000000	0.020105
686.000000	0.020264
685.000000	0.020523
684.000000	0.020820
683.000000	0.021102
682.000000	0.021329
681.000000	0.021460
680.000000	0.021463
679.000000	0.021357
678.000000	0.021242
677.000000	0.021248
676.000000	0.021440
675.000000	0.021752
674.000000	0.022056
673.000000	0.022258
672.000000	0.022310
671.000000	0.022177
670.000000	0.021871
669.000000	0.021532
668.000000	0.021425
667.000000	0.021697
666.000000	0.022169
665.000000	0.022634
664.000000	0.023002
663.000000	0.023260
662.000000	0.023443
661.000000	0.023598
660.000000	0.023723
659.000000	0.023765
658.000000	0.023705
657.000000	0.023604
656.000000	0.023524
655.000000	0.023466
654.000000	0.023434
653.000000	0.023476
652.000000	0.023599
651.000000	0.023703
650.000000	0.023690
649.000000	0.023586
648.000000	0.023484
647.000000	0.023429
646.000000	0.023412
645.000000	0.023432
644.000000	0.023489
643.000000	0.023551
642.000000	0.023576
641.000000	0.023558
640.000000	0.023515
639.000000	0.023451
638.000000	0.023379
637.000000	0.023341
636.000000	0.023357
635.000000	0.023400
634.000000	0.023436
633.000000	0.023474
632.000000	0.023535
631.000000	0.023609
630.000000	0.023681
629.000000	0.023777
628.000000	0.023924
627.000000	0.024099
626.000000	0.024240
625.000000	0.024297
624.000000	0.024245
623.000000	0.024096
622.000000	0.023919
621.000000	0.023813
620.000000	0.023817
619.000000	0.023888
618.000000	0.023973
617.000000	0.024064
616.000000	0.024165
615.000000	0.024244
614.000000	0.024276
613.000000	0.024264
612.000000	0.024194
611.000000	0.024032
610.000000	0.023818
609.000000	0.023685
608.000000	0.023723
607.000000	0.023860
606.000000	0.023949
605.000000	0.023938
604.000000	0.023887
603.000000	0.023855
602.000000	0.023832
601.000000	0.023787
600.000000	0.023721
599.000000	0.023680
598.000000	0.023722
597.000000	0.023861
596.000000	0.024009
595.000000	0.024046
594.000000	0.023960
593.000000	0.023862
592.000000	0.023828
591.000000	0.023805
590.000000	0.023731
589.000000	0.023670
588.000000	0.023722
587.000000	0.023878
586.000000	0.024026
585.000000	0.024086
584.000000	0.024057
583.000000	0.023971
582.000000	0.023870
581.000000	0.023799
580.000000	0.023772
579.000000	0.023766
578.000000	0.023792
577.000000	0.023901
576.000000	0.024088
575.000000	0.024259
574.000000	0.024373
573.000000	0.024524
572.000000	0.024793
571.000000	0.025092
570.000000	0.025268
569.000000	0.025319
568.000000	0.025368
567.000000	0.025484
566.000000	0.025637
565.000000	0.025797
564.000000	0.025964
563.000000	0.026103
562.000000	0.026167
561.000000	0.026158
560.000000	0.026107
559.000000	0.026029
558.000000	0.025957
557.000000	0.025963
556.000000	0.026078
555.000000	0.026231
554.000000	0.026337
553.000000	0.026383
552.000000	0.026365
551.000000	0.026235
550.000000	0.025982
549.000000	0.025683
548.000000	0.025379
547.000000	0.025012
546.000000	0.024588
545.000000	0.024305
544.000000	0.024332
543.000000	0.024575
542.000000	0.024794
541.000000	0.024908
540.000000	0.025020
539.000000	0.025188
538.000000	0.025335
537.000000	0.025387
536.000000	0.025375
535.000000	0.025384
534.000000	0.025476
533.000000	0.025666
532.000000	0.025907
531.000000	0.026113
530.000000	0.026250
529.000000	0.026345
528.000000	0.026358
527.000000	0.026157
526.000000	0.025699
525.000000	0.025157
524.000000	0.024704
523.000000	0.024325
522.000000	0.023967
521.000000	0.023716
520.000000	0.023668
519.000000	0.023722
518.000000	0.023666
517.000000	0.023419
516.000000	0.023030
515.000000	0.022533
514.000000	0.021996
513.000000	0.021613
512.000000	0.021544
511.000000	0.021692
510.000000	0.021779
509.000000	0.021644
508.000000	0.021336
507.000000	0.020957
506.000000	0.020574
505.000000	0.020262
504.000000	0.020076
503.000000	0.019971
502.000000	0.019855
501.000000	0.019714
500.000000	0.019584
499.000000	0.019438
498.000000	0.019224
497.000000	0.018981
496.000000	0.018778
495.000000	0.018595
494.000000	0.018361
493.000000	0.018084
492.000000	0.017824
491.000000	0.017579
490.000000	0.017324
489.000000	0.017128
488.000000	0.017062
487.000000	0.017054
486.000000	0.016940
485.000000	0.016666
484.000000	0.016314
483.000000	0.015970
482.000000	0.015678
481.000000	0.015489
480.000000	0.015410
479.000000	0.015359
478.000000	0.015286
477.000000	0.015266
476.000000	0.015328
475.000000	0.015310
474.000000	0.015060
473.000000	0.014703
472.000000	0.014496
471.000000	0.014478
470.000000	0.014499
469.000000	0.014502
468.000000	0.014499
467.000000	0.014384
466.000000	0.014070
465.000000	0.013712
464.000000	0.013536
463.000000	0.013503
462.000000	0.013376
461.000000	0.013057
460.000000	0.012590
459.000000	0.011942
458.000000	0.011148
457.000000	0.010626
456.000000	0.010760
455.000000	0.011294
454.000000	0.011619
453.000000	0.011475
452.000000	0.011065
451.000000	0.010580
450.000000	0.009943
