PE IR       SUBTECH     SPECTRUM    ASCII       PEDS        4.00        
   -1
3C-H10-C016_1.ASC
22/02/24
11:42:46.00
22/02/24
11:45:29.00
uco
Sample 047 By uco Date Thursday, February 24 2022
450.000000
#HDR
-1
-1
#GR
cm-1
A
1.0
0.0
4000.000000
-1.000000
3551
8
0.050487
0.007872
#DATA
4000.000000	0.008220
3999.000000	0.008242
3998.000000	0.008263
3997.000000	0.008275
3996.000000	0.008278
3995.000000	0.008277
3994.000000	0.008279
3993.000000	0.008286
3992.000000	0.008294
3991.000000	0.008297
3990.000000	0.008295
3989.000000	0.008286
3988.000000	0.008275
3987.000000	0.008263
3986.000000	0.008258
3985.000000	0.008266
3984.000000	0.008287
3983.000000	0.008314
3982.000000	0.008332
3981.000000	0.008335
3980.000000	0.008329
3979.000000	0.008326
3978.000000	0.008334
3977.000000	0.008347
3976.000000	0.008352
3975.000000	0.008343
3974.000000	0.008323
3973.000000	0.008300
3972.000000	0.008279
3971.000000	0.008262
3970.000000	0.008253
3969.000000	0.008260
3968.000000	0.008287
3967.000000	0.008326
3966.000000	0.008365
3965.000000	0.008389
3964.000000	0.008399
3963.000000	0.008398
3962.000000	0.008393
3961.000000	0.008384
3960.000000	0.008368
3959.000000	0.008349
3958.000000	0.008332
3957.000000	0.008329
3956.000000	0.008341
3955.000000	0.008361
3954.000000	0.008378
3953.000000	0.008384
3952.000000	0.008386
3951.000000	0.008391
3950.000000	0.008404
3949.000000	0.008422
3948.000000	0.008431
3947.000000	0.008424
3946.000000	0.008399
3945.000000	0.008366
3944.000000	0.008341
3943.000000	0.008337
3942.000000	0.008361
3941.000000	0.008405
3940.000000	0.008447
3939.000000	0.008467
3938.000000	0.008459
3937.000000	0.008432
3936.000000	0.008406
3935.000000	0.008389
3934.000000	0.008382
3933.000000	0.008377
3932.000000	0.008371
3931.000000	0.008371
3930.000000	0.008383
3929.000000	0.008404
3928.000000	0.008428
3927.000000	0.008444
3926.000000	0.008446
3925.000000	0.008435
3924.000000	0.008419
3923.000000	0.008412
3922.000000	0.008420
3921.000000	0.008439
3920.000000	0.008458
3919.000000	0.008465
3918.000000	0.008458
3917.000000	0.008439
3916.000000	0.008416
3915.000000	0.008397
3914.000000	0.008386
3913.000000	0.008383
3912.000000	0.008386
3911.000000	0.008394
3910.000000	0.008406
3909.000000	0.008419
3908.000000	0.008429
3907.000000	0.008436
3906.000000	0.008446
3905.000000	0.008467
3904.000000	0.008502
3903.000000	0.008540
3902.000000	0.008563
3901.000000	0.008562
3900.000000	0.008545
3899.000000	0.008524
3898.000000	0.008507
3897.000000	0.008492
3896.000000	0.008472
3895.000000	0.008447
3894.000000	0.008424
3893.000000	0.008413
3892.000000	0.008422
3891.000000	0.008450
3890.000000	0.008483
3889.000000	0.008511
3888.000000	0.008531
3887.000000	0.008539
3886.000000	0.008530
3885.000000	0.008514
3884.000000	0.008499
3883.000000	0.008484
3882.000000	0.008459
3881.000000	0.008427
3880.000000	0.008406
3879.000000	0.008407
3878.000000	0.008423
3877.000000	0.008439
3876.000000	0.008445
3875.000000	0.008439
3874.000000	0.008433
3873.000000	0.008441
3872.000000	0.008463
3871.000000	0.008486
3870.000000	0.008497
3869.000000	0.008502
3868.000000	0.008514
3867.000000	0.008538
3866.000000	0.008561
3865.000000	0.008565
3864.000000	0.008545
3863.000000	0.008517
3862.000000	0.008501
3861.000000	0.008505
3860.000000	0.008524
3859.000000	0.008539
3858.000000	0.008535
3857.000000	0.008512
3856.000000	0.008482
3855.000000	0.008454
3854.000000	0.008446
3853.000000	0.008482
3852.000000	0.008545
3851.000000	0.008592
3850.000000	0.008611
3849.000000	0.008606
3848.000000	0.008581
3847.000000	0.008539
3846.000000	0.008489
3845.000000	0.008448
3844.000000	0.008429
3843.000000	0.008432
3842.000000	0.008444
3841.000000	0.008452
3840.000000	0.008449
3839.000000	0.008442
3838.000000	0.008434
3837.000000	0.008424
3836.000000	0.008406
3835.000000	0.008384
3834.000000	0.008370
3833.000000	0.008365
3832.000000	0.008365
3831.000000	0.008367
3830.000000	0.008372
3829.000000	0.008385
3828.000000	0.008403
3827.000000	0.008420
3826.000000	0.008436
3825.000000	0.008453
3824.000000	0.008475
3823.000000	0.008492
3822.000000	0.008486
3821.000000	0.008462
3820.000000	0.008447
3819.000000	0.008450
3818.000000	0.008468
3817.000000	0.008489
3816.000000	0.008501
3815.000000	0.008501
3814.000000	0.008493
3813.000000	0.008484
3812.000000	0.008475
3811.000000	0.008468
3810.000000	0.008462
3809.000000	0.008459
3808.000000	0.008460
3807.000000	0.008470
3806.000000	0.008487
3805.000000	0.008504
3804.000000	0.008515
3803.000000	0.008512
3802.000000	0.008493
3801.000000	0.008472
3800.000000	0.008461
3799.000000	0.008450
3798.000000	0.008428
3797.000000	0.008400
3796.000000	0.008377
3795.000000	0.008369
3794.000000	0.008374
3793.000000	0.008386
3792.000000	0.008396
3791.000000	0.008401
3790.000000	0.008401
3789.000000	0.008394
3788.000000	0.008383
3787.000000	0.008366
3786.000000	0.008343
3785.000000	0.008322
3784.000000	0.008315
3783.000000	0.008333
3782.000000	0.008372
3781.000000	0.008413
3780.000000	0.008435
3779.000000	0.008432
3778.000000	0.008417
3777.000000	0.008399
3776.000000	0.008380
3775.000000	0.008359
3774.000000	0.008337
3773.000000	0.008322
3772.000000	0.008314
3771.000000	0.008309
3770.000000	0.008305
3769.000000	0.008307
3768.000000	0.008315
3767.000000	0.008320
3766.000000	0.008319
3765.000000	0.008313
3764.000000	0.008311
3763.000000	0.008314
3762.000000	0.008313
3761.000000	0.008299
3760.000000	0.008278
3759.000000	0.008276
3758.000000	0.008301
3757.000000	0.008334
3756.000000	0.008354
3755.000000	0.008359
3754.000000	0.008360
3753.000000	0.008368
3752.000000	0.008392
3751.000000	0.008442
3750.000000	0.008509
3749.000000	0.008558
3748.000000	0.008572
3747.000000	0.008576
3746.000000	0.008599
3745.000000	0.008631
3744.000000	0.008643
3743.000000	0.008609
3742.000000	0.008531
3741.000000	0.008441
3740.000000	0.008375
3739.000000	0.008358
3738.000000	0.008389
3737.000000	0.008429
3736.000000	0.008424
3735.000000	0.008354
3734.000000	0.008266
3733.000000	0.008214
3732.000000	0.008217
3731.000000	0.008255
3730.000000	0.008302
3729.000000	0.008339
3728.000000	0.008359
3727.000000	0.008358
3726.000000	0.008345
3725.000000	0.008337
3724.000000	0.008341
3723.000000	0.008346
3722.000000	0.008345
3721.000000	0.008336
3720.000000	0.008324
3719.000000	0.008314
3718.000000	0.008304
3717.000000	0.008289
3716.000000	0.008273
3715.000000	0.008270
3714.000000	0.008300
3713.000000	0.008367
3712.000000	0.008446
3711.000000	0.008501
3710.000000	0.008509
3709.000000	0.008478
3708.000000	0.008432
3707.000000	0.008391
3706.000000	0.008363
3705.000000	0.008337
3704.000000	0.008299
3703.000000	0.008243
3702.000000	0.008188
3701.000000	0.008160
3700.000000	0.008170
3699.000000	0.008201
3698.000000	0.008235
3697.000000	0.008261
3696.000000	0.008285
3695.000000	0.008322
3694.000000	0.008371
3693.000000	0.008407
3692.000000	0.008400
3691.000000	0.008347
3690.000000	0.008280
3689.000000	0.008250
3688.000000	0.008272
3687.000000	0.008313
3686.000000	0.008341
3685.000000	0.008349
3684.000000	0.008346
3683.000000	0.008345
3682.000000	0.008355
3681.000000	0.008382
3680.000000	0.008431
3679.000000	0.008508
3678.000000	0.008610
3677.000000	0.008695
3676.000000	0.008707
3675.000000	0.008654
3674.000000	0.008592
3673.000000	0.008556
3672.000000	0.008549
3671.000000	0.008554
3670.000000	0.008549
3669.000000	0.008542
3668.000000	0.008533
3667.000000	0.008516
3666.000000	0.008496
3665.000000	0.008481
3664.000000	0.008478
3663.000000	0.008485
3662.000000	0.008498
3661.000000	0.008508
3660.000000	0.008514
3659.000000	0.008514
3658.000000	0.008515
3657.000000	0.008523
3656.000000	0.008552
3655.000000	0.008609
3654.000000	0.008686
3653.000000	0.008773
3652.000000	0.008848
3651.000000	0.008883
3650.000000	0.008869
3649.000000	0.008840
3648.000000	0.008824
3647.000000	0.008819
3646.000000	0.008812
3645.000000	0.008803
3644.000000	0.008796
3643.000000	0.008802
3642.000000	0.008826
3641.000000	0.008866
3640.000000	0.008913
3639.000000	0.008957
3638.000000	0.008993
3637.000000	0.009024
3636.000000	0.009051
3635.000000	0.009068
3634.000000	0.009073
3633.000000	0.009078
3632.000000	0.009108
3631.000000	0.009177
3630.000000	0.009268
3629.000000	0.009346
3628.000000	0.009390
3627.000000	0.009391
3626.000000	0.009356
3625.000000	0.009308
3624.000000	0.009268
3623.000000	0.009240
3622.000000	0.009220
3621.000000	0.009210
3620.000000	0.009223
3619.000000	0.009276
3618.000000	0.009364
3617.000000	0.009457
3616.000000	0.009531
3615.000000	0.009581
3614.000000	0.009615
3613.000000	0.009647
3612.000000	0.009691
3611.000000	0.009745
3610.000000	0.009799
3609.000000	0.009837
3608.000000	0.009851
3607.000000	0.009850
3606.000000	0.009848
3605.000000	0.009849
3604.000000	0.009852
3603.000000	0.009853
3602.000000	0.009857
3601.000000	0.009872
3600.000000	0.009904
3599.000000	0.009956
3598.000000	0.010022
3597.000000	0.010093
3596.000000	0.010157
3595.000000	0.010205
3594.000000	0.010236
3593.000000	0.010261
3592.000000	0.010294
3591.000000	0.010341
3590.000000	0.010392
3589.000000	0.010426
3588.000000	0.010439
3587.000000	0.010450
3586.000000	0.010476
3585.000000	0.010509
3584.000000	0.010539
3583.000000	0.010570
3582.000000	0.010610
3581.000000	0.010659
3580.000000	0.010710
3579.000000	0.010762
3578.000000	0.010819
3577.000000	0.010882
3576.000000	0.010953
3575.000000	0.011032
3574.000000	0.011112
3573.000000	0.011185
3572.000000	0.011241
3571.000000	0.011284
3570.000000	0.011328
3569.000000	0.011383
3568.000000	0.011445
3567.000000	0.011502
3566.000000	0.011548
3565.000000	0.011578
3564.000000	0.011595
3563.000000	0.011611
3562.000000	0.011633
3561.000000	0.011665
3560.000000	0.011704
3559.000000	0.011749
3558.000000	0.011800
3557.000000	0.011851
3556.000000	0.011901
3555.000000	0.011950
3554.000000	0.012007
3553.000000	0.012071
3552.000000	0.012130
3551.000000	0.012167
3550.000000	0.012179
3549.000000	0.012184
3548.000000	0.012209
3547.000000	0.012265
3546.000000	0.012345
3545.000000	0.012425
3544.000000	0.012484
3543.000000	0.012518
3542.000000	0.012539
3541.000000	0.012556
3540.000000	0.012577
3539.000000	0.012604
3538.000000	0.012645
3537.000000	0.012708
3536.000000	0.012788
3535.000000	0.012870
3534.000000	0.012934
3533.000000	0.012975
3532.000000	0.013003
3531.000000	0.013035
3530.000000	0.013090
3529.000000	0.013169
3528.000000	0.013258
3527.000000	0.013337
3526.000000	0.013396
3525.000000	0.013435
3524.000000	0.013458
3523.000000	0.013471
3522.000000	0.013490
3521.000000	0.013530
3520.000000	0.013599
3519.000000	0.013684
3518.000000	0.013765
3517.000000	0.013826
3516.000000	0.013867
3515.000000	0.013892
3514.000000	0.013909
3513.000000	0.013928
3512.000000	0.013962
3511.000000	0.014019
3510.000000	0.014093
3509.000000	0.014170
3508.000000	0.014235
3507.000000	0.014286
3506.000000	0.014327
3505.000000	0.014362
3504.000000	0.014394
3503.000000	0.014422
3502.000000	0.014446
3501.000000	0.014470
3500.000000	0.014493
3499.000000	0.014522
3498.000000	0.014561
3497.000000	0.014611
3496.000000	0.014665
3495.000000	0.014715
3494.000000	0.014757
3493.000000	0.014795
3492.000000	0.014835
3491.000000	0.014881
3490.000000	0.014936
3489.000000	0.014995
3488.000000	0.015053
3487.000000	0.015105
3486.000000	0.015152
3485.000000	0.015195
3484.000000	0.015233
3483.000000	0.015268
3482.000000	0.015305
3481.000000	0.015351
3480.000000	0.015397
3479.000000	0.015435
3478.000000	0.015461
3477.000000	0.015489
3476.000000	0.015533
3475.000000	0.015595
3474.000000	0.015663
3473.000000	0.015721
3472.000000	0.015762
3471.000000	0.015791
3470.000000	0.015821
3469.000000	0.015864
3468.000000	0.015919
3467.000000	0.015979
3466.000000	0.016034
3465.000000	0.016081
3464.000000	0.016123
3463.000000	0.016159
3462.000000	0.016189
3461.000000	0.016211
3460.000000	0.016228
3459.000000	0.016250
3458.000000	0.016291
3457.000000	0.016357
3456.000000	0.016438
3455.000000	0.016517
3454.000000	0.016583
3453.000000	0.016630
3452.000000	0.016661
3451.000000	0.016683
3450.000000	0.016707
3449.000000	0.016744
3448.000000	0.016795
3447.000000	0.016854
3446.000000	0.016914
3445.000000	0.016971
3444.000000	0.017023
3443.000000	0.017061
3442.000000	0.017084
3441.000000	0.017099
3440.000000	0.017118
3439.000000	0.017151
3438.000000	0.017200
3437.000000	0.017263
3436.000000	0.017331
3435.000000	0.017392
3434.000000	0.017437
3433.000000	0.017468
3432.000000	0.017504
3431.000000	0.017555
3430.000000	0.017620
3429.000000	0.017683
3428.000000	0.017729
3427.000000	0.017754
3426.000000	0.017769
3425.000000	0.017796
3424.000000	0.017843
3423.000000	0.017903
3422.000000	0.017959
3421.000000	0.018008
3420.000000	0.018055
3419.000000	0.018103
3418.000000	0.018151
3417.000000	0.018195
3416.000000	0.018239
3415.000000	0.018282
3414.000000	0.018324
3413.000000	0.018360
3412.000000	0.018397
3411.000000	0.018444
3410.000000	0.018503
3409.000000	0.018566
3408.000000	0.018623
3407.000000	0.018668
3406.000000	0.018703
3405.000000	0.018736
3404.000000	0.018773
3403.000000	0.018814
3402.000000	0.018854
3401.000000	0.018889
3400.000000	0.018922
3399.000000	0.018957
3398.000000	0.019002
3397.000000	0.019055
3396.000000	0.019110
3395.000000	0.019160
3394.000000	0.019200
3393.000000	0.019235
3392.000000	0.019272
3391.000000	0.019315
3390.000000	0.019359
3389.000000	0.019398
3388.000000	0.019435
3387.000000	0.019482
3386.000000	0.019549
3385.000000	0.019635
3384.000000	0.019725
3383.000000	0.019805
3382.000000	0.019857
3381.000000	0.019875
3380.000000	0.019873
3379.000000	0.019881
3378.000000	0.019926
3377.000000	0.020009
3376.000000	0.020108
3375.000000	0.020195
3374.000000	0.020255
3373.000000	0.020296
3372.000000	0.020329
3371.000000	0.020364
3370.000000	0.020407
3369.000000	0.020460
3368.000000	0.020524
3367.000000	0.020599
3366.000000	0.020680
3365.000000	0.020757
3364.000000	0.020826
3363.000000	0.020890
3362.000000	0.020957
3361.000000	0.021029
3360.000000	0.021103
3359.000000	0.021173
3358.000000	0.021238
3357.000000	0.021301
3356.000000	0.021362
3355.000000	0.021422
3354.000000	0.021485
3353.000000	0.021553
3352.000000	0.021630
3351.000000	0.021716
3350.000000	0.021812
3349.000000	0.021913
3348.000000	0.022014
3347.000000	0.022106
3346.000000	0.022183
3345.000000	0.022240
3344.000000	0.022279
3343.000000	0.022309
3342.000000	0.022347
3341.000000	0.022404
3340.000000	0.022483
3339.000000	0.022576
3338.000000	0.022667
3337.000000	0.022741
3336.000000	0.022798
3335.000000	0.022849
3334.000000	0.022907
3333.000000	0.022975
3332.000000	0.023048
3331.000000	0.023119
3330.000000	0.023180
3329.000000	0.023227
3328.000000	0.023264
3327.000000	0.023303
3326.000000	0.023360
3325.000000	0.023440
3324.000000	0.023526
3323.000000	0.023599
3322.000000	0.023650
3321.000000	0.023686
3320.000000	0.023721
3319.000000	0.023767
3318.000000	0.023828
3317.000000	0.023904
3316.000000	0.023989
3315.000000	0.024073
3314.000000	0.024149
3313.000000	0.024212
3312.000000	0.024261
3311.000000	0.024293
3310.000000	0.024309
3309.000000	0.024312
3308.000000	0.024318
3307.000000	0.024342
3306.000000	0.024391
3305.000000	0.024455
3304.000000	0.024518
3303.000000	0.024574
3302.000000	0.024628
3301.000000	0.024689
3300.000000	0.024753
3299.000000	0.024807
3298.000000	0.024840
3297.000000	0.024855
3296.000000	0.024862
3295.000000	0.024872
3294.000000	0.024890
3293.000000	0.024913
3292.000000	0.024938
3291.000000	0.024962
3290.000000	0.024984
3289.000000	0.025004
3288.000000	0.025023
3287.000000	0.025044
3286.000000	0.025064
3285.000000	0.025080
3284.000000	0.025088
3283.000000	0.025085
3282.000000	0.025068
3281.000000	0.025043
3280.000000	0.025017
3279.000000	0.025001
3278.000000	0.025002
3277.000000	0.025010
3276.000000	0.025010
3275.000000	0.024992
3274.000000	0.024957
3273.000000	0.024912
3272.000000	0.024867
3271.000000	0.024828
3270.000000	0.024804
3269.000000	0.024798
3268.000000	0.024800
3267.000000	0.024796
3266.000000	0.024777
3265.000000	0.024743
3264.000000	0.024698
3263.000000	0.024652
3262.000000	0.024609
3261.000000	0.024569
3260.000000	0.024525
3259.000000	0.024473
3258.000000	0.024419
3257.000000	0.024373
3256.000000	0.024340
3255.000000	0.024310
3254.000000	0.024266
3253.000000	0.024200
3252.000000	0.024116
3251.000000	0.024029
3250.000000	0.023950
3249.000000	0.023887
3248.000000	0.023840
3247.000000	0.023808
3246.000000	0.023779
3245.000000	0.023738
3244.000000	0.023678
3243.000000	0.023606
3242.000000	0.023535
3241.000000	0.023476
3240.000000	0.023432
3239.000000	0.023405
3238.000000	0.023393
3237.000000	0.023386
3236.000000	0.023374
3235.000000	0.023350
3234.000000	0.023318
3233.000000	0.023280
3232.000000	0.023235
3231.000000	0.023182
3230.000000	0.023126
3229.000000	0.023078
3228.000000	0.023044
3227.000000	0.023019
3226.000000	0.022997
3225.000000	0.022972
3224.000000	0.022944
3223.000000	0.022917
3222.000000	0.022893
3221.000000	0.022870
3220.000000	0.022849
3219.000000	0.022829
3218.000000	0.022812
3217.000000	0.022797
3216.000000	0.022779
3215.000000	0.022751
3214.000000	0.022711
3213.000000	0.022660
3212.000000	0.022601
3211.000000	0.022543
3210.000000	0.022493
3209.000000	0.022456
3208.000000	0.022432
3207.000000	0.022419
3206.000000	0.022413
3205.000000	0.022406
3204.000000	0.022386
3203.000000	0.022349
3202.000000	0.022303
3201.000000	0.022266
3200.000000	0.022243
3199.000000	0.022224
3198.000000	0.022190
3197.000000	0.022134
3196.000000	0.022070
3195.000000	0.022019
3194.000000	0.021992
3193.000000	0.021982
3192.000000	0.021970
3191.000000	0.021937
3190.000000	0.021876
3189.000000	0.021801
3188.000000	0.021733
3187.000000	0.021683
3186.000000	0.021648
3185.000000	0.021613
3184.000000	0.021568
3183.000000	0.021513
3182.000000	0.021460
3181.000000	0.021414
3180.000000	0.021377
3179.000000	0.021337
3178.000000	0.021283
3177.000000	0.021210
3176.000000	0.021132
3175.000000	0.021069
3174.000000	0.021029
3173.000000	0.021003
3172.000000	0.020978
3171.000000	0.020952
3170.000000	0.020929
3169.000000	0.020907
3168.000000	0.020876
3167.000000	0.020828
3166.000000	0.020760
3165.000000	0.020682
3164.000000	0.020602
3163.000000	0.020533
3162.000000	0.020484
3161.000000	0.020454
3160.000000	0.020434
3159.000000	0.020407
3158.000000	0.020363
3157.000000	0.020296
3156.000000	0.020211
3155.000000	0.020121
3154.000000	0.020048
3153.000000	0.020007
3152.000000	0.019999
3151.000000	0.020002
3150.000000	0.019988
3149.000000	0.019936
3148.000000	0.019853
3147.000000	0.019767
3146.000000	0.019706
3145.000000	0.019671
3144.000000	0.019647
3143.000000	0.019618
3142.000000	0.019585
3141.000000	0.019557
3140.000000	0.019537
3139.000000	0.019521
3138.000000	0.019500
3137.000000	0.019474
3136.000000	0.019444
3135.000000	0.019414
3134.000000	0.019380
3133.000000	0.019335
3132.000000	0.019283
3131.000000	0.019231
3130.000000	0.019190
3129.000000	0.019161
3128.000000	0.019139
3127.000000	0.019117
3126.000000	0.019098
3125.000000	0.019079
3124.000000	0.019054
3123.000000	0.019016
3122.000000	0.018967
3121.000000	0.018918
3120.000000	0.018880
3119.000000	0.018857
3118.000000	0.018846
3117.000000	0.018836
3116.000000	0.018823
3115.000000	0.018806
3114.000000	0.018791
3113.000000	0.018787
3112.000000	0.018795
3111.000000	0.018811
3110.000000	0.018832
3109.000000	0.018853
3108.000000	0.018876
3107.000000	0.018897
3106.000000	0.018914
3105.000000	0.018923
3104.000000	0.018927
3103.000000	0.018932
3102.000000	0.018938
3101.000000	0.018942
3100.000000	0.018945
3099.000000	0.018952
3098.000000	0.018968
3097.000000	0.018990
3096.000000	0.019012
3095.000000	0.019029
3094.000000	0.019040
3093.000000	0.019046
3092.000000	0.019048
3091.000000	0.019051
3090.000000	0.019060
3089.000000	0.019077
3088.000000	0.019100
3087.000000	0.019124
3086.000000	0.019143
3085.000000	0.019158
3084.000000	0.019169
3083.000000	0.019180
3082.000000	0.019188
3081.000000	0.019191
3080.000000	0.019192
3079.000000	0.019197
3078.000000	0.019212
3077.000000	0.019232
3076.000000	0.019247
3075.000000	0.019252
3074.000000	0.019250
3073.000000	0.019243
3072.000000	0.019235
3071.000000	0.019225
3070.000000	0.019214
3069.000000	0.019206
3068.000000	0.019200
3067.000000	0.019194
3066.000000	0.019186
3065.000000	0.019174
3064.000000	0.019156
3063.000000	0.019137
3062.000000	0.019122
3061.000000	0.019109
3060.000000	0.019093
3059.000000	0.019068
3058.000000	0.019032
3057.000000	0.018990
3056.000000	0.018949
3055.000000	0.018913
3054.000000	0.018884
3053.000000	0.018856
3052.000000	0.018823
3051.000000	0.018784
3050.000000	0.018739
3049.000000	0.018695
3048.000000	0.018655
3047.000000	0.018616
3046.000000	0.018574
3045.000000	0.018522
3044.000000	0.018462
3043.000000	0.018404
3042.000000	0.018354
3041.000000	0.018313
3040.000000	0.018280
3039.000000	0.018251
3038.000000	0.018226
3037.000000	0.018205
3036.000000	0.018189
3035.000000	0.018173
3034.000000	0.018151
3033.000000	0.018117
3032.000000	0.018070
3031.000000	0.018021
3030.000000	0.017982
3029.000000	0.017948
3028.000000	0.017912
3027.000000	0.017866
3026.000000	0.017813
3025.000000	0.017761
3024.000000	0.017715
3023.000000	0.017678
3022.000000	0.017651
3021.000000	0.017636
3020.000000	0.017634
3019.000000	0.017639
3018.000000	0.017642
3017.000000	0.017632
3016.000000	0.017608
3015.000000	0.017575
3014.000000	0.017542
3013.000000	0.017513
3012.000000	0.017486
3011.000000	0.017458
3010.000000	0.017433
3009.000000	0.017411
3008.000000	0.017394
3007.000000	0.017382
3006.000000	0.017378
3005.000000	0.017380
3004.000000	0.017385
3003.000000	0.017385
3002.000000	0.017377
3001.000000	0.017362
3000.000000	0.017348
2999.000000	0.017343
2998.000000	0.017350
2997.000000	0.017363
2996.000000	0.017378
2995.000000	0.017395
2994.000000	0.017419
2993.000000	0.017451
2992.000000	0.017487
2991.000000	0.017521
2990.000000	0.017555
2989.000000	0.017596
2988.000000	0.017647
2987.000000	0.017707
2986.000000	0.017773
2985.000000	0.017844
2984.000000	0.017929
2983.000000	0.018028
2982.000000	0.018135
2981.000000	0.018240
2980.000000	0.018338
2979.000000	0.018439
2978.000000	0.018549
2977.000000	0.018662
2976.000000	0.018765
2975.000000	0.018856
2974.000000	0.018946
2973.000000	0.019056
2972.000000	0.019197
2971.000000	0.019371
2970.000000	0.019568
2969.000000	0.019779
2968.000000	0.019998
2967.000000	0.020222
2966.000000	0.020446
2965.000000	0.020666
2964.000000	0.020881
2963.000000	0.021096
2962.000000	0.021310
2961.000000	0.021513
2960.000000	0.021692
2959.000000	0.021846
2958.000000	0.021980
2957.000000	0.022096
2956.000000	0.022183
2955.000000	0.022233
2954.000000	0.022241
2953.000000	0.022211
2952.000000	0.022156
2951.000000	0.022091
2950.000000	0.022038
2949.000000	0.022011
2948.000000	0.022019
2947.000000	0.022063
2946.000000	0.022146
2945.000000	0.022269
2944.000000	0.022429
2943.000000	0.022621
2942.000000	0.022844
2941.000000	0.023101
2940.000000	0.023396
2939.000000	0.023735
2938.000000	0.024122
2937.000000	0.024552
2936.000000	0.025008
2935.000000	0.025474
2934.000000	0.025953
2933.000000	0.026458
2932.000000	0.027000
2931.000000	0.027567
2930.000000	0.028133
2929.000000	0.028683
2928.000000	0.029218
2927.000000	0.029752
2926.000000	0.030286
2925.000000	0.030807
2924.000000	0.031292
2923.000000	0.031725
2922.000000	0.032097
2921.000000	0.032404
2920.000000	0.032631
2919.000000	0.032739
2918.000000	0.032670
2917.000000	0.032366
2916.000000	0.031810
2915.000000	0.031045
2914.000000	0.030152
2913.000000	0.029215
2912.000000	0.028303
2911.000000	0.027469
2910.000000	0.026745
2909.000000	0.026143
2908.000000	0.025644
2907.000000	0.025217
2906.000000	0.024836
2905.000000	0.024483
2904.000000	0.024154
2903.000000	0.023850
2902.000000	0.023576
2901.000000	0.023331
2900.000000	0.023111
2899.000000	0.022910
2898.000000	0.022722
2897.000000	0.022543
2896.000000	0.022370
2895.000000	0.022203
2894.000000	0.022044
2893.000000	0.021886
2892.000000	0.021724
2891.000000	0.021558
2890.000000	0.021394
2889.000000	0.021245
2888.000000	0.021116
2887.000000	0.021013
2886.000000	0.020935
2885.000000	0.020874
2884.000000	0.020820
2883.000000	0.020767
2882.000000	0.020719
2881.000000	0.020685
2880.000000	0.020670
2879.000000	0.020675
2878.000000	0.020697
2877.000000	0.020732
2876.000000	0.020777
2875.000000	0.020826
2874.000000	0.020873
2873.000000	0.020911
2872.000000	0.020932
2871.000000	0.020933
2870.000000	0.020923
2869.000000	0.020913
2868.000000	0.020915
2867.000000	0.020932
2866.000000	0.020970
2865.000000	0.021035
2864.000000	0.021139
2863.000000	0.021297
2862.000000	0.021517
2861.000000	0.021796
2860.000000	0.022122
2859.000000	0.022481
2858.000000	0.022870
2857.000000	0.023293
2856.000000	0.023751
2855.000000	0.024241
2854.000000	0.024742
2853.000000	0.025219
2852.000000	0.025620
2851.000000	0.025871
2850.000000	0.025897
2849.000000	0.025647
2848.000000	0.025118
2847.000000	0.024373
2846.000000	0.023519
2845.000000	0.022661
2844.000000	0.021871
2843.000000	0.021177
2842.000000	0.020577
2841.000000	0.020069
2840.000000	0.019652
2839.000000	0.019317
2838.000000	0.019049
2837.000000	0.018826
2836.000000	0.018631
2835.000000	0.018455
2834.000000	0.018301
2833.000000	0.018170
2832.000000	0.018064
2831.000000	0.017981
2830.000000	0.017909
2829.000000	0.017830
2828.000000	0.017732
2827.000000	0.017617
2826.000000	0.017505
2825.000000	0.017416
2824.000000	0.017357
2823.000000	0.017314
2822.000000	0.017270
2821.000000	0.017212
2820.000000	0.017141
2819.000000	0.017065
2818.000000	0.016992
2817.000000	0.016924
2816.000000	0.016860
2815.000000	0.016800
2814.000000	0.016744
2813.000000	0.016691
2812.000000	0.016642
2811.000000	0.016598
2810.000000	0.016562
2809.000000	0.016538
2808.000000	0.016526
2807.000000	0.016519
2806.000000	0.016505
2805.000000	0.016477
2804.000000	0.016436
2803.000000	0.016389
2802.000000	0.016346
2801.000000	0.016306
2800.000000	0.016269
2799.000000	0.016238
2798.000000	0.016217
2797.000000	0.016200
2796.000000	0.016180
2795.000000	0.016154
2794.000000	0.016129
2793.000000	0.016104
2792.000000	0.016074
2791.000000	0.016035
2790.000000	0.015992
2789.000000	0.015950
2788.000000	0.015912
2787.000000	0.015881
2786.000000	0.015858
2785.000000	0.015841
2784.000000	0.015820
2783.000000	0.015790
2782.000000	0.015752
2781.000000	0.015713
2780.000000	0.015679
2779.000000	0.015654
2778.000000	0.015642
2777.000000	0.015636
2776.000000	0.015629
2775.000000	0.015612
2774.000000	0.015585
2773.000000	0.015554
2772.000000	0.015524
2771.000000	0.015499
2770.000000	0.015483
2769.000000	0.015476
2768.000000	0.015473
2767.000000	0.015467
2766.000000	0.015455
2765.000000	0.015431
2764.000000	0.015394
2763.000000	0.015351
2762.000000	0.015315
2761.000000	0.015293
2760.000000	0.015281
2759.000000	0.015273
2758.000000	0.015268
2757.000000	0.015265
2756.000000	0.015255
2755.000000	0.015230
2754.000000	0.015193
2753.000000	0.015160
2752.000000	0.015137
2751.000000	0.015121
2750.000000	0.015109
2749.000000	0.015098
2748.000000	0.015086
2747.000000	0.015065
2746.000000	0.015033
2745.000000	0.015000
2744.000000	0.014978
2743.000000	0.014967
2742.000000	0.014967
2741.000000	0.014975
2740.000000	0.014993
2739.000000	0.015013
2738.000000	0.015024
2737.000000	0.015020
2736.000000	0.015002
2735.000000	0.014979
2734.000000	0.014956
2733.000000	0.014934
2732.000000	0.014912
2731.000000	0.014891
2730.000000	0.014874
2729.000000	0.014865
2728.000000	0.014859
2727.000000	0.014847
2726.000000	0.014822
2725.000000	0.014787
2724.000000	0.014754
2723.000000	0.014732
2722.000000	0.014719
2721.000000	0.014706
2720.000000	0.014685
2719.000000	0.014661
2718.000000	0.014638
2717.000000	0.014614
2716.000000	0.014587
2715.000000	0.014559
2714.000000	0.014536
2713.000000	0.014519
2712.000000	0.014505
2711.000000	0.014492
2710.000000	0.014480
2709.000000	0.014470
2708.000000	0.014458
2707.000000	0.014442
2706.000000	0.014422
2705.000000	0.014406
2704.000000	0.014397
2703.000000	0.014398
2702.000000	0.014407
2701.000000	0.014418
2700.000000	0.014424
2699.000000	0.014419
2698.000000	0.014402
2697.000000	0.014376
2696.000000	0.014346
2695.000000	0.014317
2694.000000	0.014292
2693.000000	0.014272
2692.000000	0.014254
2691.000000	0.014241
2690.000000	0.014235
2689.000000	0.014238
2688.000000	0.014248
2687.000000	0.014262
2686.000000	0.014278
2685.000000	0.014289
2684.000000	0.014293
2683.000000	0.014291
2682.000000	0.014288
2681.000000	0.014287
2680.000000	0.014282
2679.000000	0.014269
2678.000000	0.014250
2677.000000	0.014227
2676.000000	0.014203
2675.000000	0.014182
2674.000000	0.014165
2673.000000	0.014151
2672.000000	0.014136
2671.000000	0.014125
2670.000000	0.014123
2669.000000	0.014131
2668.000000	0.014142
2667.000000	0.014145
2666.000000	0.014141
2665.000000	0.014135
2664.000000	0.014128
2663.000000	0.014123
2662.000000	0.014120
2661.000000	0.014121
2660.000000	0.014115
2659.000000	0.014094
2658.000000	0.014057
2657.000000	0.014015
2656.000000	0.013984
2655.000000	0.013969
2654.000000	0.013971
2653.000000	0.013981
2652.000000	0.013988
2651.000000	0.013978
2650.000000	0.013948
2649.000000	0.013903
2648.000000	0.013854
2647.000000	0.013805
2646.000000	0.013753
2645.000000	0.013695
2644.000000	0.013638
2643.000000	0.013591
2642.000000	0.013557
2641.000000	0.013535
2640.000000	0.013519
2639.000000	0.013507
2638.000000	0.013498
2637.000000	0.013486
2636.000000	0.013459
2635.000000	0.013417
2634.000000	0.013374
2633.000000	0.013341
2632.000000	0.013318
2631.000000	0.013300
2630.000000	0.013282
2629.000000	0.013269
2628.000000	0.013263
2627.000000	0.013261
2626.000000	0.013256
2625.000000	0.013243
2624.000000	0.013219
2623.000000	0.013184
2622.000000	0.013142
2621.000000	0.013100
2620.000000	0.013066
2619.000000	0.013044
2618.000000	0.013032
2617.000000	0.013023
2616.000000	0.013006
2615.000000	0.012974
2614.000000	0.012933
2613.000000	0.012900
2612.000000	0.012886
2611.000000	0.012888
2610.000000	0.012891
2609.000000	0.012885
2608.000000	0.012871
2607.000000	0.012860
2606.000000	0.012857
2605.000000	0.012851
2604.000000	0.012825
2603.000000	0.012773
2602.000000	0.012711
2601.000000	0.012666
2600.000000	0.012652
2599.000000	0.012662
2598.000000	0.012670
2597.000000	0.012659
2596.000000	0.012628
2595.000000	0.012594
2594.000000	0.012573
2593.000000	0.012564
2592.000000	0.012554
2591.000000	0.012540
2590.000000	0.012523
2589.000000	0.012511
2588.000000	0.012502
2587.000000	0.012494
2586.000000	0.012485
2585.000000	0.012474
2584.000000	0.012463
2583.000000	0.012459
2582.000000	0.012465
2581.000000	0.012471
2580.000000	0.012459
2579.000000	0.012431
2578.000000	0.012401
2577.000000	0.012383
2576.000000	0.012371
2575.000000	0.012354
2574.000000	0.012330
2573.000000	0.012310
2572.000000	0.012298
2571.000000	0.012287
2570.000000	0.012272
2569.000000	0.012257
2568.000000	0.012249
2567.000000	0.012246
2566.000000	0.012239
2565.000000	0.012217
2564.000000	0.012185
2563.000000	0.012164
2562.000000	0.012171
2561.000000	0.012194
2560.000000	0.012204
2559.000000	0.012189
2558.000000	0.012167
2557.000000	0.012158
2556.000000	0.012159
2555.000000	0.012145
2554.000000	0.012106
2553.000000	0.012048
2552.000000	0.011994
2551.000000	0.011965
2550.000000	0.011977
2549.000000	0.012027
2548.000000	0.012088
2547.000000	0.012121
2546.000000	0.012107
2545.000000	0.012059
2544.000000	0.012011
2543.000000	0.011985
2542.000000	0.011981
2541.000000	0.011980
2540.000000	0.011975
2539.000000	0.011973
2538.000000	0.011984
2537.000000	0.012004
2536.000000	0.012017
2535.000000	0.012008
2534.000000	0.011982
2533.000000	0.011952
2532.000000	0.011934
2531.000000	0.011934
2530.000000	0.011943
2529.000000	0.011944
2528.000000	0.011930
2527.000000	0.011911
2526.000000	0.011904
2525.000000	0.011913
2524.000000	0.011927
2523.000000	0.011943
2522.000000	0.011957
2521.000000	0.011962
2520.000000	0.011944
2519.000000	0.011904
2518.000000	0.011858
2517.000000	0.011824
2516.000000	0.011812
2515.000000	0.011825
2514.000000	0.011857
2513.000000	0.011887
2512.000000	0.011891
2511.000000	0.011864
2510.000000	0.011829
2509.000000	0.011816
2508.000000	0.011825
2507.000000	0.011831
2506.000000	0.011821
2505.000000	0.011802
2504.000000	0.011797
2503.000000	0.011812
2502.000000	0.011835
2501.000000	0.011843
2500.000000	0.011835
2499.000000	0.011829
2498.000000	0.011835
2497.000000	0.011830
2496.000000	0.011783
2495.000000	0.011695
2494.000000	0.011605
2493.000000	0.011549
2492.000000	0.011531
2491.000000	0.011535
2490.000000	0.011554
2489.000000	0.011588
2488.000000	0.011627
2487.000000	0.011657
2486.000000	0.011664
2485.000000	0.011642
2484.000000	0.011595
2483.000000	0.011543
2482.000000	0.011506
2481.000000	0.011490
2480.000000	0.011486
2479.000000	0.011487
2478.000000	0.011502
2477.000000	0.011536
2476.000000	0.011576
2475.000000	0.011606
2474.000000	0.011620
2473.000000	0.011616
2472.000000	0.011599
2471.000000	0.011573
2470.000000	0.011545
2469.000000	0.011517
2468.000000	0.011485
2467.000000	0.011457
2466.000000	0.011452
2465.000000	0.011473
2464.000000	0.011499
2463.000000	0.011505
2462.000000	0.011495
2461.000000	0.011484
2460.000000	0.011488
2459.000000	0.011512
2458.000000	0.011555
2457.000000	0.011601
2456.000000	0.011620
2455.000000	0.011598
2454.000000	0.011552
2453.000000	0.011512
2452.000000	0.011485
2451.000000	0.011464
2450.000000	0.011449
2449.000000	0.011452
2448.000000	0.011475
2447.000000	0.011504
2446.000000	0.011523
2445.000000	0.011525
2444.000000	0.011508
2443.000000	0.011478
2442.000000	0.011450
2441.000000	0.011431
2440.000000	0.011415
2439.000000	0.011393
2438.000000	0.011366
2437.000000	0.011348
2436.000000	0.011351
2435.000000	0.011377
2434.000000	0.011421
2433.000000	0.011464
2432.000000	0.011484
2431.000000	0.011467
2430.000000	0.011422
2429.000000	0.011365
2428.000000	0.011306
2427.000000	0.011251
2426.000000	0.011209
2425.000000	0.011192
2424.000000	0.011196
2423.000000	0.011212
2422.000000	0.011235
2421.000000	0.011267
2420.000000	0.011301
2419.000000	0.011325
2418.000000	0.011333
2417.000000	0.011326
2416.000000	0.011313
2415.000000	0.011301
2414.000000	0.011295
2413.000000	0.011299
2412.000000	0.011309
2411.000000	0.011321
2410.000000	0.011330
2409.000000	0.011332
2408.000000	0.011326
2407.000000	0.011313
2406.000000	0.011298
2405.000000	0.011277
2404.000000	0.011243
2403.000000	0.011207
2402.000000	0.011195
2401.000000	0.011220
2400.000000	0.011260
2399.000000	0.011278
2398.000000	0.011261
2397.000000	0.011223
2396.000000	0.011196
2395.000000	0.011204
2394.000000	0.011250
2393.000000	0.011311
2392.000000	0.011347
2391.000000	0.011332
2390.000000	0.011283
2389.000000	0.011236
2388.000000	0.011222
2387.000000	0.011247
2386.000000	0.011290
2385.000000	0.011312
2384.000000	0.011290
2383.000000	0.011230
2382.000000	0.011164
2381.000000	0.011108
2380.000000	0.011064
2379.000000	0.011050
2378.000000	0.011095
2377.000000	0.011198
2376.000000	0.011307
2375.000000	0.011366
2374.000000	0.011364
2373.000000	0.011323
2372.000000	0.011251
2371.000000	0.011155
2370.000000	0.011061
2369.000000	0.010999
2368.000000	0.010982
2367.000000	0.011024
2366.000000	0.011128
2365.000000	0.011256
2364.000000	0.011351
2363.000000	0.011410
2362.000000	0.011480
2361.000000	0.011560
2360.000000	0.011604
2359.000000	0.011573
2358.000000	0.011472
2357.000000	0.011343
2356.000000	0.011251
2355.000000	0.011265
2354.000000	0.011330
2353.000000	0.011328
2352.000000	0.011245
2351.000000	0.011191
2350.000000	0.011239
2349.000000	0.011362
2348.000000	0.011476
2347.000000	0.011491
2346.000000	0.011418
2345.000000	0.011366
2344.000000	0.011397
2343.000000	0.011459
2342.000000	0.011466
2341.000000	0.011409
2340.000000	0.011357
2339.000000	0.011366
2338.000000	0.011414
2337.000000	0.011439
2336.000000	0.011416
2335.000000	0.011347
2334.000000	0.011238
2333.000000	0.011104
2332.000000	0.011020
2331.000000	0.011038
2330.000000	0.011151
2329.000000	0.011279
2328.000000	0.011392
2327.000000	0.011478
2326.000000	0.011538
2325.000000	0.011551
2324.000000	0.011510
2323.000000	0.011435
2322.000000	0.011378
2321.000000	0.011396
2320.000000	0.011504
2319.000000	0.011656
2318.000000	0.011793
2317.000000	0.011866
2316.000000	0.011865
2315.000000	0.011784
2314.000000	0.011651
2313.000000	0.011503
2312.000000	0.011379
2311.000000	0.011276
2310.000000	0.011197
2309.000000	0.011145
2308.000000	0.011134
2307.000000	0.011145
2306.000000	0.011153
2305.000000	0.011154
2304.000000	0.011154
2303.000000	0.011144
2302.000000	0.011108
2301.000000	0.011048
2300.000000	0.010996
2299.000000	0.010971
2298.000000	0.010975
2297.000000	0.010991
2296.000000	0.011013
2295.000000	0.011031
2294.000000	0.011043
2293.000000	0.011049
2292.000000	0.011051
2291.000000	0.011039
2290.000000	0.011007
2289.000000	0.010968
2288.000000	0.010950
2287.000000	0.010965
2286.000000	0.010995
2285.000000	0.011014
2284.000000	0.011010
2283.000000	0.010992
2282.000000	0.010978
2281.000000	0.010979
2280.000000	0.010985
2279.000000	0.010964
2278.000000	0.010893
2277.000000	0.010790
2276.000000	0.010706
2275.000000	0.010678
2274.000000	0.010688
2273.000000	0.010688
2272.000000	0.010652
2271.000000	0.010602
2270.000000	0.010573
2269.000000	0.010572
2268.000000	0.010577
2267.000000	0.010568
2266.000000	0.010542
2265.000000	0.010501
2264.000000	0.010446
2263.000000	0.010385
2262.000000	0.010341
2261.000000	0.010332
2260.000000	0.010344
2259.000000	0.010353
2258.000000	0.010358
2257.000000	0.010380
2256.000000	0.010417
2255.000000	0.010441
2254.000000	0.010423
2253.000000	0.010369
2252.000000	0.010304
2251.000000	0.010239
2250.000000	0.010168
2249.000000	0.010093
2248.000000	0.010031
2247.000000	0.010006
2246.000000	0.010034
2245.000000	0.010112
2244.000000	0.010202
2243.000000	0.010246
2242.000000	0.010196
2241.000000	0.010056
2240.000000	0.009894
2239.000000	0.009807
2238.000000	0.009857
2237.000000	0.010017
2236.000000	0.010186
2235.000000	0.010266
2234.000000	0.010227
2233.000000	0.010120
2232.000000	0.010028
2231.000000	0.010003
2230.000000	0.010031
2229.000000	0.010056
2228.000000	0.010042
2227.000000	0.010014
2226.000000	0.010020
2225.000000	0.010061
2224.000000	0.010086
2223.000000	0.010069
2222.000000	0.010047
2221.000000	0.010063
2220.000000	0.010100
2219.000000	0.010113
2218.000000	0.010092
2217.000000	0.010076
2216.000000	0.010091
2215.000000	0.010132
2214.000000	0.010173
2213.000000	0.010173
2212.000000	0.010098
2211.000000	0.009952
2210.000000	0.009797
2209.000000	0.009693
2208.000000	0.009656
2207.000000	0.009667
2206.000000	0.009729
2205.000000	0.009838
2204.000000	0.009943
2203.000000	0.009974
2202.000000	0.009917
2201.000000	0.009820
2200.000000	0.009729
2199.000000	0.009643
2198.000000	0.009542
2197.000000	0.009435
2196.000000	0.009369
2195.000000	0.009407
2194.000000	0.009569
2193.000000	0.009787
2192.000000	0.009927
2191.000000	0.009912
2190.000000	0.009785
2189.000000	0.009640
2188.000000	0.009529
2187.000000	0.009473
2186.000000	0.009523
2185.000000	0.009707
2184.000000	0.009928
2183.000000	0.010012
2182.000000	0.009884
2181.000000	0.009645
2180.000000	0.009460
2179.000000	0.009416
2178.000000	0.009506
2177.000000	0.009661
2176.000000	0.009788
2175.000000	0.009818
2174.000000	0.009759
2173.000000	0.009676
2172.000000	0.009628
2171.000000	0.009632
2170.000000	0.009678
2169.000000	0.009718
2168.000000	0.009682
2167.000000	0.009563
2166.000000	0.009463
2165.000000	0.009492
2164.000000	0.009611
2163.000000	0.009663
2162.000000	0.009563
2161.000000	0.009365
2160.000000	0.009153
2159.000000	0.008946
2158.000000	0.008756
2157.000000	0.008626
2156.000000	0.008576
2155.000000	0.008589
2154.000000	0.008669
2153.000000	0.008830
2152.000000	0.009020
2151.000000	0.009145
2150.000000	0.009174
2149.000000	0.009162
2148.000000	0.009165
2147.000000	0.009165
2146.000000	0.009131
2145.000000	0.009087
2144.000000	0.009109
2143.000000	0.009240
2142.000000	0.009439
2141.000000	0.009601
2140.000000	0.009641
2139.000000	0.009570
2138.000000	0.009473
2137.000000	0.009413
2136.000000	0.009373
2135.000000	0.009327
2134.000000	0.009307
2133.000000	0.009367
2132.000000	0.009486
2131.000000	0.009590
2130.000000	0.009647
2129.000000	0.009693
2128.000000	0.009763
2127.000000	0.009848
2126.000000	0.009929
2125.000000	0.010000
2124.000000	0.010063
2123.000000	0.010103
2122.000000	0.010106
2121.000000	0.010070
2120.000000	0.010010
2119.000000	0.009946
2118.000000	0.009909
2117.000000	0.009912
2116.000000	0.009938
2115.000000	0.009958
2114.000000	0.009979
2113.000000	0.010026
2112.000000	0.010094
2111.000000	0.010136
2110.000000	0.010109
2109.000000	0.010024
2108.000000	0.009921
2107.000000	0.009843
2106.000000	0.009822
2105.000000	0.009873
2104.000000	0.009972
2103.000000	0.010067
2102.000000	0.010120
2101.000000	0.010134
2100.000000	0.010130
2099.000000	0.010113
2098.000000	0.010075
2097.000000	0.010014
2096.000000	0.009938
2095.000000	0.009870
2094.000000	0.009835
2093.000000	0.009849
2092.000000	0.009899
2091.000000	0.009965
2090.000000	0.010044
2089.000000	0.010136
2088.000000	0.010210
2087.000000	0.010216
2086.000000	0.010139
2085.000000	0.010020
2084.000000	0.009916
2083.000000	0.009856
2082.000000	0.009852
2081.000000	0.009910
2080.000000	0.010010
2079.000000	0.010089
2078.000000	0.010087
2077.000000	0.009990
2076.000000	0.009842
2075.000000	0.009706
2074.000000	0.009634
2073.000000	0.009648
2072.000000	0.009735
2071.000000	0.009850
2070.000000	0.009946
2069.000000	0.009993
2068.000000	0.009971
2067.000000	0.009878
2066.000000	0.009742
2065.000000	0.009610
2064.000000	0.009517
2063.000000	0.009468
2062.000000	0.009444
2061.000000	0.009436
2060.000000	0.009451
2059.000000	0.009495
2058.000000	0.009560
2057.000000	0.009610
2056.000000	0.009609
2055.000000	0.009557
2054.000000	0.009485
2053.000000	0.009419
2052.000000	0.009360
2051.000000	0.009306
2050.000000	0.009273
2049.000000	0.009254
2048.000000	0.009204
2047.000000	0.009109
2046.000000	0.009033
2045.000000	0.009034
2044.000000	0.009072
2043.000000	0.009063
2042.000000	0.008987
2041.000000	0.008882
2040.000000	0.008751
2039.000000	0.008569
2038.000000	0.008376
2037.000000	0.008268
2036.000000	0.008276
2035.000000	0.008321
2034.000000	0.008313
2033.000000	0.008240
2032.000000	0.008136
2031.000000	0.008053
2030.000000	0.008055
2029.000000	0.008182
2028.000000	0.008386
2027.000000	0.008580
2026.000000	0.008720
2025.000000	0.008810
2024.000000	0.008834
2023.000000	0.008761
2022.000000	0.008617
2021.000000	0.008455
2020.000000	0.008291
2019.000000	0.008120
2018.000000	0.008010
2017.000000	0.008072
2016.000000	0.008316
2015.000000	0.008618
2014.000000	0.008846
2013.000000	0.008950
2012.000000	0.008932
2011.000000	0.008812
2010.000000	0.008625
2009.000000	0.008429
2008.000000	0.008272
2007.000000	0.008193
2006.000000	0.008232
2005.000000	0.008378
2004.000000	0.008542
2003.000000	0.008639
2002.000000	0.008683
2001.000000	0.008753
2000.000000	0.008871
1999.000000	0.008975
1998.000000	0.009017
1997.000000	0.009023
1996.000000	0.009056
1995.000000	0.009131
1994.000000	0.009197
1993.000000	0.009169
1992.000000	0.008993
1991.000000	0.008711
1990.000000	0.008452
1989.000000	0.008334
1988.000000	0.008391
1987.000000	0.008595
1986.000000	0.008901
1985.000000	0.009240
1984.000000	0.009509
1983.000000	0.009658
1982.000000	0.009744
1981.000000	0.009838
1980.000000	0.009896
1979.000000	0.009808
1978.000000	0.009574
1977.000000	0.009328
1976.000000	0.009164
1975.000000	0.009051
1974.000000	0.008936
1973.000000	0.008831
1972.000000	0.008761
1971.000000	0.008720
1970.000000	0.008702
1969.000000	0.008708
1968.000000	0.008724
1967.000000	0.008735
1966.000000	0.008767
1965.000000	0.008835
1964.000000	0.008893
1963.000000	0.008882
1962.000000	0.008815
1961.000000	0.008754
1960.000000	0.008731
1959.000000	0.008736
1958.000000	0.008780
1957.000000	0.008873
1956.000000	0.008978
1955.000000	0.009048
1954.000000	0.009099
1953.000000	0.009182
1952.000000	0.009288
1951.000000	0.009345
1950.000000	0.009302
1949.000000	0.009182
1948.000000	0.009040
1947.000000	0.008927
1946.000000	0.008881
1945.000000	0.008907
1944.000000	0.008968
1943.000000	0.009034
1942.000000	0.009119
1941.000000	0.009237
1940.000000	0.009343
1939.000000	0.009378
1938.000000	0.009350
1937.000000	0.009321
1936.000000	0.009312
1935.000000	0.009296
1934.000000	0.009253
1933.000000	0.009207
1932.000000	0.009180
1931.000000	0.009168
1930.000000	0.009177
1929.000000	0.009226
1928.000000	0.009301
1927.000000	0.009359
1926.000000	0.009358
1925.000000	0.009302
1924.000000	0.009216
1923.000000	0.009138
1922.000000	0.009091
1921.000000	0.009072
1920.000000	0.009044
1919.000000	0.008985
1918.000000	0.008930
1917.000000	0.008935
1916.000000	0.008997
1915.000000	0.009066
1914.000000	0.009110
1913.000000	0.009151
1912.000000	0.009209
1911.000000	0.009270
1910.000000	0.009302
1909.000000	0.009292
1908.000000	0.009243
1907.000000	0.009175
1906.000000	0.009121
1905.000000	0.009116
1904.000000	0.009159
1903.000000	0.009204
1902.000000	0.009207
1901.000000	0.009164
1900.000000	0.009104
1899.000000	0.009056
1898.000000	0.009031
1897.000000	0.009022
1896.000000	0.009015
1895.000000	0.009008
1894.000000	0.009022
1893.000000	0.009071
1892.000000	0.009131
1891.000000	0.009158
1890.000000	0.009143
1889.000000	0.009117
1888.000000	0.009098
1887.000000	0.009064
1886.000000	0.008991
1885.000000	0.008909
1884.000000	0.008878
1883.000000	0.008922
1882.000000	0.009004
1881.000000	0.009066
1880.000000	0.009073
1879.000000	0.009032
1878.000000	0.008975
1877.000000	0.008932
1876.000000	0.008913
1875.000000	0.008914
1874.000000	0.008921
1873.000000	0.008919
1872.000000	0.008890
1871.000000	0.008828
1870.000000	0.008755
1869.000000	0.008708
1868.000000	0.008714
1867.000000	0.008768
1866.000000	0.008845
1865.000000	0.008927
1864.000000	0.008995
1863.000000	0.009037
1862.000000	0.009046
1861.000000	0.009028
1860.000000	0.008997
1859.000000	0.008961
1858.000000	0.008917
1857.000000	0.008863
1856.000000	0.008809
1855.000000	0.008776
1854.000000	0.008778
1853.000000	0.008802
1852.000000	0.008811
1851.000000	0.008788
1850.000000	0.008752
1849.000000	0.008729
1848.000000	0.008722
1847.000000	0.008726
1846.000000	0.008746
1845.000000	0.008780
1844.000000	0.008805
1843.000000	0.008810
1842.000000	0.008816
1841.000000	0.008834
1840.000000	0.008839
1839.000000	0.008808
1838.000000	0.008760
1837.000000	0.008744
1836.000000	0.008771
1835.000000	0.008801
1834.000000	0.008801
1833.000000	0.008774
1832.000000	0.008737
1831.000000	0.008699
1830.000000	0.008666
1829.000000	0.008647
1828.000000	0.008643
1827.000000	0.008646
1826.000000	0.008658
1825.000000	0.008676
1824.000000	0.008688
1823.000000	0.008691
1822.000000	0.008697
1821.000000	0.008702
1820.000000	0.008694
1819.000000	0.008672
1818.000000	0.008667
1817.000000	0.008701
1816.000000	0.008755
1815.000000	0.008789
1814.000000	0.008791
1813.000000	0.008768
1812.000000	0.008725
1811.000000	0.008675
1810.000000	0.008641
1809.000000	0.008636
1808.000000	0.008647
1807.000000	0.008652
1806.000000	0.008641
1805.000000	0.008615
1804.000000	0.008582
1803.000000	0.008558
1802.000000	0.008564
1801.000000	0.008595
1800.000000	0.008629
1799.000000	0.008642
1798.000000	0.008633
1797.000000	0.008613
1796.000000	0.008597
1795.000000	0.008602
1794.000000	0.008631
1793.000000	0.008657
1792.000000	0.008637
1791.000000	0.008581
1790.000000	0.008543
1789.000000	0.008543
1788.000000	0.008558
1787.000000	0.008561
1786.000000	0.008548
1785.000000	0.008534
1784.000000	0.008520
1783.000000	0.008500
1782.000000	0.008480
1781.000000	0.008469
1780.000000	0.008464
1779.000000	0.008455
1778.000000	0.008437
1777.000000	0.008408
1776.000000	0.008358
1775.000000	0.008290
1774.000000	0.008235
1773.000000	0.008217
1772.000000	0.008209
1771.000000	0.008184
1770.000000	0.008165
1769.000000	0.008184
1768.000000	0.008230
1767.000000	0.008256
1766.000000	0.008253
1765.000000	0.008243
1764.000000	0.008234
1763.000000	0.008218
1762.000000	0.008203
1761.000000	0.008215
1760.000000	0.008254
1759.000000	0.008307
1758.000000	0.008386
1757.000000	0.008510
1756.000000	0.008657
1755.000000	0.008787
1754.000000	0.008909
1753.000000	0.009063
1752.000000	0.009247
1751.000000	0.009408
1750.000000	0.009531
1749.000000	0.009665
1748.000000	0.009805
1747.000000	0.009908
1746.000000	0.009975
1745.000000	0.010045
1744.000000	0.010118
1743.000000	0.010152
1742.000000	0.010146
1741.000000	0.010141
1740.000000	0.010133
1739.000000	0.010071
1738.000000	0.009955
1737.000000	0.009835
1736.000000	0.009735
1735.000000	0.009633
1734.000000	0.009508
1733.000000	0.009417
1732.000000	0.009381
1731.000000	0.009341
1730.000000	0.009271
1729.000000	0.009207
1728.000000	0.009168
1727.000000	0.009132
1726.000000	0.009095
1725.000000	0.009081
1724.000000	0.009096
1723.000000	0.009101
1722.000000	0.009077
1721.000000	0.009047
1720.000000	0.009024
1719.000000	0.008992
1718.000000	0.008954
1717.000000	0.008964
1716.000000	0.009058
1715.000000	0.009203
1714.000000	0.009362
1713.000000	0.009544
1712.000000	0.009758
1711.000000	0.009984
1710.000000	0.010209
1709.000000	0.010452
1708.000000	0.010731
1707.000000	0.011056
1706.000000	0.011425
1705.000000	0.011804
1704.000000	0.012145
1703.000000	0.012473
1702.000000	0.012920
1701.000000	0.013591
1700.000000	0.014306
1699.000000	0.014837
1698.000000	0.015274
1697.000000	0.015838
1696.000000	0.016603
1695.000000	0.017408
1694.000000	0.018094
1693.000000	0.018686
1692.000000	0.019264
1691.000000	0.019851
1690.000000	0.020436
1689.000000	0.020997
1688.000000	0.021502
1687.000000	0.021975
1686.000000	0.022546
1685.000000	0.023373
1684.000000	0.024348
1683.000000	0.025171
1682.000000	0.025816
1681.000000	0.026460
1680.000000	0.027166
1679.000000	0.027863
1678.000000	0.028526
1677.000000	0.029257
1676.000000	0.030143
1675.000000	0.031074
1674.000000	0.031883
1673.000000	0.032585
1672.000000	0.033302
1671.000000	0.034110
1670.000000	0.035028
1669.000000	0.036004
1668.000000	0.036929
1667.000000	0.037717
1666.000000	0.038409
1665.000000	0.039137
1664.000000	0.039993
1663.000000	0.040925
1662.000000	0.041815
1661.000000	0.042627
1660.000000	0.043403
1659.000000	0.044134
1658.000000	0.044767
1657.000000	0.045272
1656.000000	0.045696
1655.000000	0.046167
1654.000000	0.046871
1653.000000	0.047777
1652.000000	0.048522
1651.000000	0.048945
1650.000000	0.049203
1649.000000	0.049447
1648.000000	0.049738
1647.000000	0.050021
1646.000000	0.050211
1645.000000	0.050326
1644.000000	0.050412
1643.000000	0.050470
1642.000000	0.050487
1641.000000	0.050475
1640.000000	0.050445
1639.000000	0.050389
1638.000000	0.050314
1637.000000	0.050263
1636.000000	0.050243
1635.000000	0.050189
1634.000000	0.050055
1633.000000	0.049878
1632.000000	0.049681
1631.000000	0.049444
1630.000000	0.049140
1629.000000	0.048766
1628.000000	0.048341
1627.000000	0.047881
1626.000000	0.047393
1625.000000	0.046880
1624.000000	0.046313
1623.000000	0.045655
1622.000000	0.044932
1621.000000	0.044222
1620.000000	0.043562
1619.000000	0.042915
1618.000000	0.042208
1617.000000	0.041415
1616.000000	0.040637
1615.000000	0.039981
1614.000000	0.039423
1613.000000	0.038889
1612.000000	0.038340
1611.000000	0.037783
1610.000000	0.037233
1609.000000	0.036698
1608.000000	0.036184
1607.000000	0.035700
1606.000000	0.035254
1605.000000	0.034848
1604.000000	0.034482
1603.000000	0.034158
1602.000000	0.033881
1601.000000	0.033656
1600.000000	0.033484
1599.000000	0.033353
1598.000000	0.033224
1597.000000	0.033061
1596.000000	0.032863
1595.000000	0.032654
1594.000000	0.032451
1593.000000	0.032259
1592.000000	0.032082
1591.000000	0.031933
1590.000000	0.031813
1589.000000	0.031713
1588.000000	0.031633
1587.000000	0.031590
1586.000000	0.031588
1585.000000	0.031621
1584.000000	0.031684
1583.000000	0.031785
1582.000000	0.031917
1581.000000	0.032053
1580.000000	0.032173
1579.000000	0.032291
1578.000000	0.032445
1577.000000	0.032663
1576.000000	0.032924
1575.000000	0.033163
1574.000000	0.033352
1573.000000	0.033518
1572.000000	0.033713
1571.000000	0.033992
1570.000000	0.034355
1569.000000	0.034733
1568.000000	0.035080
1567.000000	0.035431
1566.000000	0.035836
1565.000000	0.036281
1564.000000	0.036682
1563.000000	0.036977
1562.000000	0.037201
1561.000000	0.037508
1560.000000	0.038113
1559.000000	0.039004
1558.000000	0.039817
1557.000000	0.040390
1556.000000	0.040895
1555.000000	0.041472
1554.000000	0.042120
1553.000000	0.042750
1552.000000	0.043322
1551.000000	0.043880
1550.000000	0.044457
1549.000000	0.045025
1548.000000	0.045545
1547.000000	0.046038
1546.000000	0.046549
1545.000000	0.047086
1544.000000	0.047633
1543.000000	0.048198
1542.000000	0.048812
1541.000000	0.049467
1540.000000	0.050039
1539.000000	0.050321
1538.000000	0.050255
1537.000000	0.049953
1536.000000	0.049509
1535.000000	0.048955
1534.000000	0.048311
1533.000000	0.047659
1532.000000	0.047111
1531.000000	0.046673
1530.000000	0.046271
1529.000000	0.045836
1528.000000	0.045347
1527.000000	0.044829
1526.000000	0.044326
1525.000000	0.043855
1524.000000	0.043410
1523.000000	0.042970
1522.000000	0.042525
1521.000000	0.042108
1520.000000	0.041772
1519.000000	0.041512
1518.000000	0.041280
1517.000000	0.041031
1516.000000	0.040748
1515.000000	0.040428
1514.000000	0.040060
1513.000000	0.039619
1512.000000	0.039093
1511.000000	0.038503
1510.000000	0.037897
1509.000000	0.037289
1508.000000	0.036650
1507.000000	0.035975
1506.000000	0.035365
1505.000000	0.034875
1504.000000	0.034452
1503.000000	0.034022
1502.000000	0.033552
1501.000000	0.033052
1500.000000	0.032539
1499.000000	0.032005
1498.000000	0.031447
1497.000000	0.030891
1496.000000	0.030380
1495.000000	0.029930
1494.000000	0.029527
1493.000000	0.029138
1492.000000	0.028722
1491.000000	0.028248
1490.000000	0.027749
1489.000000	0.027324
1488.000000	0.027022
1487.000000	0.026804
1486.000000	0.026615
1485.000000	0.026450
1484.000000	0.026317
1483.000000	0.026212
1482.000000	0.026132
1481.000000	0.026099
1480.000000	0.026125
1479.000000	0.026203
1478.000000	0.026328
1477.000000	0.026501
1476.000000	0.026718
1475.000000	0.026997
1474.000000	0.027413
1473.000000	0.028032
1472.000000	0.028781
1471.000000	0.029496
1470.000000	0.030104
1469.000000	0.030623
1468.000000	0.031069
1467.000000	0.031449
1466.000000	0.031784
1465.000000	0.032090
1464.000000	0.032356
1463.000000	0.032580
1462.000000	0.032783
1461.000000	0.032985
1460.000000	0.033181
1459.000000	0.033385
1458.000000	0.033671
1457.000000	0.034084
1456.000000	0.034506
1455.000000	0.034816
1454.000000	0.035022
1453.000000	0.035156
1452.000000	0.035218
1451.000000	0.035201
1450.000000	0.035133
1449.000000	0.035050
1448.000000	0.034963
1447.000000	0.034872
1446.000000	0.034795
1445.000000	0.034730
1444.000000	0.034660
1443.000000	0.034571
1442.000000	0.034466
1441.000000	0.034346
1440.000000	0.034199
1439.000000	0.034015
1438.000000	0.033813
1437.000000	0.033617
1436.000000	0.033430
1435.000000	0.033261
1434.000000	0.033118
1433.000000	0.032983
1432.000000	0.032830
1431.000000	0.032647
1430.000000	0.032451
1429.000000	0.032279
1428.000000	0.032149
1427.000000	0.032062
1426.000000	0.032026
1425.000000	0.032037
1424.000000	0.032058
1423.000000	0.032043
1422.000000	0.031997
1421.000000	0.031977
1420.000000	0.032026
1419.000000	0.032140
1418.000000	0.032302
1417.000000	0.032498
1416.000000	0.032689
1415.000000	0.032846
1414.000000	0.032974
1413.000000	0.033092
1412.000000	0.033196
1411.000000	0.033267
1410.000000	0.033314
1409.000000	0.033363
1408.000000	0.033415
1407.000000	0.033453
1406.000000	0.033490
1405.000000	0.033556
1404.000000	0.033649
1403.000000	0.033740
1402.000000	0.033822
1401.000000	0.033909
1400.000000	0.033971
1399.000000	0.033932
1398.000000	0.033765
1397.000000	0.033514
1396.000000	0.033222
1395.000000	0.032910
1394.000000	0.032605
1393.000000	0.032330
1392.000000	0.032065
1391.000000	0.031779
1390.000000	0.031475
1389.000000	0.031178
1388.000000	0.030900
1387.000000	0.030632
1386.000000	0.030374
1385.000000	0.030124
1384.000000	0.029868
1383.000000	0.029594
1382.000000	0.029313
1381.000000	0.029043
1380.000000	0.028787
1379.000000	0.028530
1378.000000	0.028257
1377.000000	0.027957
1376.000000	0.027624
1375.000000	0.027267
1374.000000	0.026929
1373.000000	0.026651
1372.000000	0.026424
1371.000000	0.026207
1370.000000	0.025973
1369.000000	0.025728
1368.000000	0.025482
1367.000000	0.025228
1366.000000	0.024950
1365.000000	0.024656
1364.000000	0.024371
1363.000000	0.024136
1362.000000	0.023975
1361.000000	0.023871
1360.000000	0.023781
1359.000000	0.023678
1358.000000	0.023561
1357.000000	0.023454
1356.000000	0.023377
1355.000000	0.023340
1354.000000	0.023336
1353.000000	0.023361
1352.000000	0.023416
1351.000000	0.023501
1350.000000	0.023608
1349.000000	0.023726
1348.000000	0.023842
1347.000000	0.023949
1346.000000	0.024052
1345.000000	0.024162
1344.000000	0.024288
1343.000000	0.024417
1342.000000	0.024526
1341.000000	0.024606
1340.000000	0.024666
1339.000000	0.024725
1338.000000	0.024794
1337.000000	0.024870
1336.000000	0.024928
1335.000000	0.024942
1334.000000	0.024897
1333.000000	0.024809
1332.000000	0.024703
1331.000000	0.024599
1330.000000	0.024503
1329.000000	0.024413
1328.000000	0.024332
1327.000000	0.024260
1326.000000	0.024209
1325.000000	0.024197
1324.000000	0.024224
1323.000000	0.024265
1322.000000	0.024288
1321.000000	0.024280
1320.000000	0.024246
1319.000000	0.024190
1318.000000	0.024119
1317.000000	0.024045
1316.000000	0.023978
1315.000000	0.023915
1314.000000	0.023840
1313.000000	0.023749
1312.000000	0.023648
1311.000000	0.023544
1310.000000	0.023440
1309.000000	0.023337
1308.000000	0.023235
1307.000000	0.023133
1306.000000	0.023036
1305.000000	0.022946
1304.000000	0.022864
1303.000000	0.022781
1302.000000	0.022695
1301.000000	0.022613
1300.000000	0.022538
1299.000000	0.022467
1298.000000	0.022399
1297.000000	0.022341
1296.000000	0.022299
1295.000000	0.022272
1294.000000	0.022263
1293.000000	0.022275
1292.000000	0.022309
1291.000000	0.022346
1290.000000	0.022373
1289.000000	0.022398
1288.000000	0.022442
1287.000000	0.022514
1286.000000	0.022607
1285.000000	0.022708
1284.000000	0.022811
1283.000000	0.022903
1282.000000	0.022974
1281.000000	0.023026
1280.000000	0.023073
1279.000000	0.023128
1278.000000	0.023197
1277.000000	0.023278
1276.000000	0.023357
1275.000000	0.023412
1274.000000	0.023431
1273.000000	0.023428
1272.000000	0.023425
1271.000000	0.023434
1270.000000	0.023452
1269.000000	0.023481
1268.000000	0.023525
1267.000000	0.023582
1266.000000	0.023648
1265.000000	0.023730
1264.000000	0.023838
1263.000000	0.023963
1262.000000	0.024079
1261.000000	0.024176
1260.000000	0.024268
1259.000000	0.024375
1258.000000	0.024498
1257.000000	0.024629
1256.000000	0.024758
1255.000000	0.024881
1254.000000	0.025010
1253.000000	0.025164
1252.000000	0.025352
1251.000000	0.025564
1250.000000	0.025775
1249.000000	0.025977
1248.000000	0.026177
1247.000000	0.026379
1246.000000	0.026581
1245.000000	0.026773
1244.000000	0.026950
1243.000000	0.027108
1242.000000	0.027245
1241.000000	0.027366
1240.000000	0.027469
1239.000000	0.027547
1238.000000	0.027592
1237.000000	0.027606
1236.000000	0.027596
1235.000000	0.027566
1234.000000	0.027508
1233.000000	0.027413
1232.000000	0.027275
1231.000000	0.027099
1230.000000	0.026902
1229.000000	0.026692
1228.000000	0.026459
1227.000000	0.026186
1226.000000	0.025875
1225.000000	0.025547
1224.000000	0.025222
1223.000000	0.024903
1222.000000	0.024580
1221.000000	0.024246
1220.000000	0.023901
1219.000000	0.023556
1218.000000	0.023242
1217.000000	0.022991
1216.000000	0.022817
1215.000000	0.022705
1214.000000	0.022625
1213.000000	0.022555
1212.000000	0.022491
1211.000000	0.022439
1210.000000	0.022408
1209.000000	0.022404
1208.000000	0.022425
1207.000000	0.022460
1206.000000	0.022498
1205.000000	0.022532
1204.000000	0.022553
1203.000000	0.022547
1202.000000	0.022502
1201.000000	0.022423
1200.000000	0.022324
1199.000000	0.022218
1198.000000	0.022109
1197.000000	0.021994
1196.000000	0.021860
1195.000000	0.021693
1194.000000	0.021490
1193.000000	0.021265
1192.000000	0.021045
1191.000000	0.020846
1190.000000	0.020672
1189.000000	0.020512
1188.000000	0.020354
1187.000000	0.020193
1186.000000	0.020034
1185.000000	0.019888
1184.000000	0.019769
1183.000000	0.019677
1182.000000	0.019597
1181.000000	0.019522
1180.000000	0.019461
1179.000000	0.019428
1178.000000	0.019435
1177.000000	0.019473
1176.000000	0.019526
1175.000000	0.019579
1174.000000	0.019625
1173.000000	0.019667
1172.000000	0.019711
1171.000000	0.019765
1170.000000	0.019831
1169.000000	0.019911
1168.000000	0.020003
1167.000000	0.020108
1166.000000	0.020235
1165.000000	0.020387
1164.000000	0.020553
1163.000000	0.020700
1162.000000	0.020803
1161.000000	0.020855
1160.000000	0.020864
1159.000000	0.020840
1158.000000	0.020793
1157.000000	0.020739
1156.000000	0.020690
1155.000000	0.020639
1154.000000	0.020576
1153.000000	0.020496
1152.000000	0.020401
1151.000000	0.020289
1150.000000	0.020151
1149.000000	0.019993
1148.000000	0.019830
1147.000000	0.019678
1146.000000	0.019535
1145.000000	0.019393
1144.000000	0.019249
1143.000000	0.019112
1142.000000	0.018994
1141.000000	0.018899
1140.000000	0.018819
1139.000000	0.018739
1138.000000	0.018656
1137.000000	0.018590
1136.000000	0.018563
1135.000000	0.018583
1134.000000	0.018637
1133.000000	0.018711
1132.000000	0.018799
1131.000000	0.018896
1130.000000	0.018989
1129.000000	0.019072
1128.000000	0.019145
1127.000000	0.019216
1126.000000	0.019283
1125.000000	0.019348
1124.000000	0.019422
1123.000000	0.019515
1122.000000	0.019634
1121.000000	0.019774
1120.000000	0.019923
1119.000000	0.020059
1118.000000	0.020156
1117.000000	0.020208
1116.000000	0.020230
1115.000000	0.020240
1114.000000	0.020243
1113.000000	0.020233
1112.000000	0.020207
1111.000000	0.020179
1110.000000	0.020167
1109.000000	0.020176
1108.000000	0.020193
1107.000000	0.020198
1106.000000	0.020186
1105.000000	0.020166
1104.000000	0.020162
1103.000000	0.020189
1102.000000	0.020245
1101.000000	0.020309
1100.000000	0.020362
1099.000000	0.020398
1098.000000	0.020428
1097.000000	0.020465
1096.000000	0.020519
1095.000000	0.020599
1094.000000	0.020710
1093.000000	0.020853
1092.000000	0.021019
1091.000000	0.021190
1090.000000	0.021363
1089.000000	0.021549
1088.000000	0.021769
1087.000000	0.022029
1086.000000	0.022315
1085.000000	0.022600
1084.000000	0.022853
1083.000000	0.023053
1082.000000	0.023198
1081.000000	0.023296
1080.000000	0.023349
1079.000000	0.023344
1078.000000	0.023274
1077.000000	0.023149
1076.000000	0.022992
1075.000000	0.022819
1074.000000	0.022631
1073.000000	0.022422
1072.000000	0.022203
1071.000000	0.022005
1070.000000	0.021857
1069.000000	0.021774
1068.000000	0.021742
1067.000000	0.021732
1066.000000	0.021723
1065.000000	0.021717
1064.000000	0.021734
1063.000000	0.021787
1062.000000	0.021875
1061.000000	0.021982
1060.000000	0.022078
1059.000000	0.022138
1058.000000	0.022149
1057.000000	0.022126
1056.000000	0.022106
1055.000000	0.022123
1054.000000	0.022181
1053.000000	0.022262
1052.000000	0.022355
1051.000000	0.022473
1050.000000	0.022633
1049.000000	0.022815
1048.000000	0.022969
1047.000000	0.023057
1046.000000	0.023079
1045.000000	0.023065
1044.000000	0.023038
1043.000000	0.023012
1042.000000	0.022992
1041.000000	0.022991
1040.000000	0.023019
1039.000000	0.023087
1038.000000	0.023201
1037.000000	0.023357
1036.000000	0.023535
1035.000000	0.023717
1034.000000	0.023893
1033.000000	0.024066
1032.000000	0.024237
1031.000000	0.024397
1030.000000	0.024538
1029.000000	0.024659
1028.000000	0.024762
1027.000000	0.024849
1026.000000	0.024930
1025.000000	0.025021
1024.000000	0.025142
1023.000000	0.025307
1022.000000	0.025515
1021.000000	0.025744
1020.000000	0.025961
1019.000000	0.026128
1018.000000	0.026212
1017.000000	0.026177
1016.000000	0.025986
1015.000000	0.025634
1014.000000	0.025158
1013.000000	0.024609
1012.000000	0.024022
1011.000000	0.023422
1010.000000	0.022844
1009.000000	0.022318
1008.000000	0.021840
1007.000000	0.021381
1006.000000	0.020926
1005.000000	0.020487
1004.000000	0.020088
1003.000000	0.019741
1002.000000	0.019438
1001.000000	0.019160
1000.000000	0.018889
999.000000	0.018613
998.000000	0.018343
997.000000	0.018093
996.000000	0.017858
995.000000	0.017618
994.000000	0.017356
993.000000	0.017085
992.000000	0.016828
991.000000	0.016583
990.000000	0.016333
989.000000	0.016073
988.000000	0.015830
987.000000	0.015630
986.000000	0.015467
985.000000	0.015303
984.000000	0.015113
983.000000	0.014906
982.000000	0.014720
981.000000	0.014573
980.000000	0.014458
979.000000	0.014350
978.000000	0.014230
977.000000	0.014095
976.000000	0.013956
975.000000	0.013830
974.000000	0.013726
973.000000	0.013630
972.000000	0.013514
971.000000	0.013361
970.000000	0.013184
969.000000	0.013006
968.000000	0.012847
967.000000	0.012709
966.000000	0.012583
965.000000	0.012449
964.000000	0.012285
963.000000	0.012094
962.000000	0.011909
961.000000	0.011769
960.000000	0.011677
959.000000	0.011601
958.000000	0.011512
957.000000	0.011406
956.000000	0.011291
955.000000	0.011169
954.000000	0.011043
953.000000	0.010929
952.000000	0.010847
951.000000	0.010793
950.000000	0.010751
949.000000	0.010708
948.000000	0.010661
947.000000	0.010615
946.000000	0.010571
945.000000	0.010538
944.000000	0.010523
943.000000	0.010525
942.000000	0.010529
941.000000	0.010528
940.000000	0.010520
939.000000	0.010509
938.000000	0.010489
937.000000	0.010454
936.000000	0.010398
935.000000	0.010332
934.000000	0.010278
933.000000	0.010257
932.000000	0.010261
931.000000	0.010254
930.000000	0.010211
929.000000	0.010145
928.000000	0.010095
927.000000	0.010081
926.000000	0.010088
925.000000	0.010090
924.000000	0.010077
923.000000	0.010044
922.000000	0.009986
921.000000	0.009908
920.000000	0.009822
919.000000	0.009735
918.000000	0.009637
917.000000	0.009521
916.000000	0.009397
915.000000	0.009287
914.000000	0.009200
913.000000	0.009131
912.000000	0.009071
911.000000	0.009012
910.000000	0.008947
909.000000	0.008889
908.000000	0.008860
907.000000	0.008864
906.000000	0.008870
905.000000	0.008845
904.000000	0.008786
903.000000	0.008723
902.000000	0.008671
901.000000	0.008621
900.000000	0.008560
899.000000	0.008496
898.000000	0.008441
897.000000	0.008400
896.000000	0.008369
895.000000	0.008339
894.000000	0.008296
893.000000	0.008237
892.000000	0.008175
891.000000	0.008137
890.000000	0.008133
889.000000	0.008152
888.000000	0.008186
887.000000	0.008235
886.000000	0.008308
885.000000	0.008406
884.000000	0.008533
883.000000	0.008703
882.000000	0.008932
881.000000	0.009225
880.000000	0.009568
879.000000	0.009929
878.000000	0.010255
877.000000	0.010489
876.000000	0.010593
875.000000	0.010564
874.000000	0.010420
873.000000	0.010182
872.000000	0.009882
871.000000	0.009570
870.000000	0.009304
869.000000	0.009117
868.000000	0.009002
867.000000	0.008938
866.000000	0.008898
865.000000	0.008862
864.000000	0.008814
863.000000	0.008754
862.000000	0.008692
861.000000	0.008641
860.000000	0.008610
859.000000	0.008606
858.000000	0.008634
857.000000	0.008683
856.000000	0.008731
855.000000	0.008766
854.000000	0.008792
853.000000	0.008820
852.000000	0.008844
851.000000	0.008851
850.000000	0.008833
849.000000	0.008796
848.000000	0.008740
847.000000	0.008662
846.000000	0.008567
845.000000	0.008467
844.000000	0.008380
843.000000	0.008313
842.000000	0.008275
841.000000	0.008268
840.000000	0.008279
839.000000	0.008285
838.000000	0.008273
837.000000	0.008248
836.000000	0.008224
835.000000	0.008210
834.000000	0.008206
833.000000	0.008204
832.000000	0.008195
831.000000	0.008175
830.000000	0.008153
829.000000	0.008153
828.000000	0.008185
827.000000	0.008229
826.000000	0.008258
825.000000	0.008268
824.000000	0.008278
823.000000	0.008297
822.000000	0.008318
821.000000	0.008330
820.000000	0.008335
819.000000	0.008332
818.000000	0.008314
817.000000	0.008276
816.000000	0.008227
815.000000	0.008189
814.000000	0.008178
813.000000	0.008202
812.000000	0.008252
811.000000	0.008310
810.000000	0.008357
809.000000	0.008387
808.000000	0.008406
807.000000	0.008411
806.000000	0.008388
805.000000	0.008323
804.000000	0.008224
803.000000	0.008127
802.000000	0.008075
801.000000	0.008089
800.000000	0.008149
799.000000	0.008215
798.000000	0.008267
797.000000	0.008319
796.000000	0.008385
795.000000	0.008444
794.000000	0.008452
793.000000	0.008399
792.000000	0.008325
791.000000	0.008281
790.000000	0.008288
789.000000	0.008331
788.000000	0.008401
787.000000	0.008494
786.000000	0.008597
785.000000	0.008677
784.000000	0.008699
783.000000	0.008665
782.000000	0.008616
781.000000	0.008603
780.000000	0.008642
779.000000	0.008707
778.000000	0.008765
777.000000	0.008799
776.000000	0.008810
775.000000	0.008808
774.000000	0.008802
773.000000	0.008804
772.000000	0.008813
771.000000	0.008822
770.000000	0.008829
769.000000	0.008855
768.000000	0.008904
767.000000	0.008938
766.000000	0.008908
765.000000	0.008815
764.000000	0.008721
763.000000	0.008682
762.000000	0.008704
761.000000	0.008752
760.000000	0.008800
759.000000	0.008843
758.000000	0.008890
757.000000	0.008946
756.000000	0.009013
755.000000	0.009075
754.000000	0.009106
753.000000	0.009099
752.000000	0.009079
751.000000	0.009072
750.000000	0.009086
749.000000	0.009127
748.000000	0.009204
747.000000	0.009320
746.000000	0.009442
745.000000	0.009526
744.000000	0.009567
743.000000	0.009594
742.000000	0.009626
741.000000	0.009663
740.000000	0.009694
739.000000	0.009718
738.000000	0.009734
737.000000	0.009745
736.000000	0.009765
735.000000	0.009808
734.000000	0.009870
733.000000	0.009938
732.000000	0.010008
731.000000	0.010084
730.000000	0.010158
729.000000	0.010232
728.000000	0.010327
727.000000	0.010456
726.000000	0.010608
725.000000	0.010772
724.000000	0.010961
723.000000	0.011180
722.000000	0.011397
721.000000	0.011556
720.000000	0.011617
719.000000	0.011591
718.000000	0.011520
717.000000	0.011454
716.000000	0.011441
715.000000	0.011500
714.000000	0.011599
713.000000	0.011689
712.000000	0.011753
711.000000	0.011808
710.000000	0.011870
709.000000	0.011937
708.000000	0.012009
707.000000	0.012072
706.000000	0.012110
705.000000	0.012128
704.000000	0.012168
703.000000	0.012260
702.000000	0.012381
701.000000	0.012473
700.000000	0.012516
699.000000	0.012524
698.000000	0.012503
697.000000	0.012444
696.000000	0.012368
695.000000	0.012333
694.000000	0.012347
693.000000	0.012350
692.000000	0.012311
691.000000	0.012265
690.000000	0.012257
689.000000	0.012287
688.000000	0.012332
687.000000	0.012400
686.000000	0.012480
685.000000	0.012524
684.000000	0.012525
683.000000	0.012532
682.000000	0.012562
681.000000	0.012580
680.000000	0.012601
679.000000	0.012692
678.000000	0.012847
677.000000	0.013011
676.000000	0.013166
675.000000	0.013335
674.000000	0.013501
673.000000	0.013581
672.000000	0.013498
671.000000	0.013228
670.000000	0.012773
669.000000	0.012216
668.000000	0.012008
667.000000	0.012545
666.000000	0.013112
665.000000	0.013521
664.000000	0.013855
663.000000	0.014035
662.000000	0.014030
661.000000	0.013957
660.000000	0.013923
659.000000	0.013893
658.000000	0.013790
657.000000	0.013681
656.000000	0.013646
655.000000	0.013636
654.000000	0.013577
653.000000	0.013501
652.000000	0.013446
651.000000	0.013400
650.000000	0.013379
649.000000	0.013445
648.000000	0.013564
647.000000	0.013614
646.000000	0.013572
645.000000	0.013544
644.000000	0.013583
643.000000	0.013635
642.000000	0.013662
641.000000	0.013709
640.000000	0.013789
639.000000	0.013828
638.000000	0.013790
637.000000	0.013743
636.000000	0.013726
635.000000	0.013693
634.000000	0.013622
633.000000	0.013572
632.000000	0.013585
631.000000	0.013622
630.000000	0.013646
629.000000	0.013690
628.000000	0.013773
627.000000	0.013851
626.000000	0.013906
625.000000	0.013973
624.000000	0.014056
623.000000	0.014093
622.000000	0.014044
621.000000	0.013944
620.000000	0.013848
619.000000	0.013781
618.000000	0.013771
617.000000	0.013828
616.000000	0.013905
615.000000	0.013926
614.000000	0.013895
613.000000	0.013902
612.000000	0.013985
611.000000	0.014088
610.000000	0.014150
609.000000	0.014171
608.000000	0.014149
607.000000	0.014051
606.000000	0.013907
605.000000	0.013810
604.000000	0.013803
603.000000	0.013832
602.000000	0.013826
601.000000	0.013756
600.000000	0.013617
599.000000	0.013431
598.000000	0.013286
597.000000	0.013282
596.000000	0.013394
595.000000	0.013482
594.000000	0.013466
593.000000	0.013415
592.000000	0.013415
591.000000	0.013437
590.000000	0.013407
589.000000	0.013323
588.000000	0.013219
587.000000	0.013081
586.000000	0.012907
585.000000	0.012772
584.000000	0.012762
583.000000	0.012870
582.000000	0.013018
581.000000	0.013145
580.000000	0.013234
579.000000	0.013275
578.000000	0.013270
577.000000	0.013248
576.000000	0.013241
575.000000	0.013256
574.000000	0.013303
573.000000	0.013406
572.000000	0.013564
571.000000	0.013752
570.000000	0.013949
569.000000	0.014129
568.000000	0.014222
567.000000	0.014163
566.000000	0.014015
565.000000	0.013940
564.000000	0.014023
563.000000	0.014192
562.000000	0.014323
561.000000	0.014359
560.000000	0.014302
559.000000	0.014188
558.000000	0.014108
557.000000	0.014152
556.000000	0.014291
555.000000	0.014406
554.000000	0.014439
553.000000	0.014436
552.000000	0.014408
551.000000	0.014281
550.000000	0.014042
549.000000	0.013805
548.000000	0.013672
547.000000	0.013641
546.000000	0.013682
545.000000	0.013786
544.000000	0.013895
543.000000	0.013905
542.000000	0.013811
541.000000	0.013751
540.000000	0.013804
539.000000	0.013869
538.000000	0.013836
537.000000	0.013764
536.000000	0.013791
535.000000	0.013937
534.000000	0.014111
533.000000	0.014224
532.000000	0.014213
531.000000	0.014030
530.000000	0.013712
529.000000	0.013420
528.000000	0.013322
527.000000	0.013424
526.000000	0.013565
525.000000	0.013572
524.000000	0.013386
523.000000	0.013086
522.000000	0.012815
521.000000	0.012654
520.000000	0.012531
519.000000	0.012330
518.000000	0.012085
517.000000	0.011948
516.000000	0.011949
515.000000	0.011944
514.000000	0.011835
513.000000	0.011694
512.000000	0.011614
511.000000	0.011588
510.000000	0.011584
509.000000	0.011629
508.000000	0.011722
507.000000	0.011767
506.000000	0.011676
505.000000	0.011493
504.000000	0.011302
503.000000	0.011128
502.000000	0.010985
501.000000	0.010907
500.000000	0.010859
499.000000	0.010711
498.000000	0.010385
497.000000	0.009961
496.000000	0.009590
495.000000	0.009392
494.000000	0.009451
493.000000	0.009767
492.000000	0.010134
491.000000	0.010206
490.000000	0.009849
489.000000	0.009307
488.000000	0.008926
487.000000	0.008816
486.000000	0.008880
485.000000	0.009032
484.000000	0.009241
483.000000	0.009429
482.000000	0.009513
481.000000	0.009511
480.000000	0.009476
479.000000	0.009381
478.000000	0.009204
477.000000	0.009040
476.000000	0.008989
475.000000	0.009019
474.000000	0.009042
473.000000	0.009079
472.000000	0.009195
471.000000	0.009360
470.000000	0.009535
469.000000	0.009780
468.000000	0.010118
467.000000	0.010410
466.000000	0.010539
465.000000	0.010576
464.000000	0.010605
463.000000	0.010517
462.000000	0.010178
461.000000	0.009685
460.000000	0.009224
459.000000	0.008801
458.000000	0.008353
457.000000	0.007989
456.000000	0.007872
455.000000	0.007948
454.000000	0.008070
453.000000	0.008230
452.000000	0.008463
451.000000	0.008595
450.000000	0.008334
