PE IR       SUBTECH     SPECTRUM    ASCII       PEDS        4.00        
   -1
3C-H10-F035_1.ASC
22/02/24
15:26:08.00
22/02/24
15:42:20.00
uco
Sample 035 By uco Date Thursday, February 24 2022
450.000000
#HDR
-1
-1
#GR
cm-1
A
1.0
0.0
4000.000000
-1.000000
3551
8
0.034889
0.003408
#DATA
4000.000000	0.003925
3999.000000	0.003929
3998.000000	0.003941
3997.000000	0.003961
3996.000000	0.003983
3995.000000	0.003999
3994.000000	0.004006
3993.000000	0.004004
3992.000000	0.003998
3991.000000	0.003998
3990.000000	0.004008
3989.000000	0.004029
3988.000000	0.004051
3987.000000	0.004064
3986.000000	0.004061
3985.000000	0.004047
3984.000000	0.004031
3983.000000	0.004022
3982.000000	0.004020
3981.000000	0.004022
3980.000000	0.004023
3979.000000	0.004019
3978.000000	0.004010
3977.000000	0.003997
3976.000000	0.003988
3975.000000	0.003989
3974.000000	0.004002
3973.000000	0.004019
3972.000000	0.004031
3971.000000	0.004033
3970.000000	0.004029
3969.000000	0.004025
3968.000000	0.004023
3967.000000	0.004020
3966.000000	0.004011
3965.000000	0.004000
3964.000000	0.003995
3963.000000	0.004001
3962.000000	0.004017
3961.000000	0.004035
3960.000000	0.004049
3959.000000	0.004058
3958.000000	0.004067
3957.000000	0.004077
3956.000000	0.004089
3955.000000	0.004098
3954.000000	0.004101
3953.000000	0.004096
3952.000000	0.004089
3951.000000	0.004085
3950.000000	0.004092
3949.000000	0.004112
3948.000000	0.004143
3947.000000	0.004178
3946.000000	0.004209
3945.000000	0.004225
3944.000000	0.004226
3943.000000	0.004216
3942.000000	0.004200
3941.000000	0.004180
3940.000000	0.004155
3939.000000	0.004131
3938.000000	0.004122
3937.000000	0.004142
3936.000000	0.004187
3935.000000	0.004242
3934.000000	0.004286
3933.000000	0.004307
3932.000000	0.004304
3931.000000	0.004285
3930.000000	0.004262
3929.000000	0.004242
3928.000000	0.004226
3927.000000	0.004208
3926.000000	0.004186
3925.000000	0.004162
3924.000000	0.004150
3923.000000	0.004155
3922.000000	0.004181
3921.000000	0.004223
3920.000000	0.004269
3919.000000	0.004305
3918.000000	0.004321
3917.000000	0.004317
3916.000000	0.004301
3915.000000	0.004277
3914.000000	0.004247
3913.000000	0.004217
3912.000000	0.004191
3911.000000	0.004173
3910.000000	0.004166
3909.000000	0.004173
3908.000000	0.004191
3907.000000	0.004214
3906.000000	0.004230
3905.000000	0.004237
3904.000000	0.004247
3903.000000	0.004270
3902.000000	0.004299
3901.000000	0.004315
3900.000000	0.004309
3899.000000	0.004290
3898.000000	0.004272
3897.000000	0.004257
3896.000000	0.004245
3895.000000	0.004235
3894.000000	0.004228
3893.000000	0.004223
3892.000000	0.004223
3891.000000	0.004235
3890.000000	0.004259
3889.000000	0.004277
3888.000000	0.004272
3887.000000	0.004251
3886.000000	0.004238
3885.000000	0.004258
3884.000000	0.004300
3883.000000	0.004329
3882.000000	0.004321
3881.000000	0.004286
3880.000000	0.004261
3879.000000	0.004266
3878.000000	0.004290
3877.000000	0.004305
3876.000000	0.004300
3875.000000	0.004292
3874.000000	0.004305
3873.000000	0.004343
3872.000000	0.004383
3871.000000	0.004405
3870.000000	0.004406
3869.000000	0.004399
3868.000000	0.004381
3867.000000	0.004347
3866.000000	0.004307
3865.000000	0.004279
3864.000000	0.004270
3863.000000	0.004270
3862.000000	0.004270
3861.000000	0.004276
3860.000000	0.004292
3859.000000	0.004315
3858.000000	0.004330
3857.000000	0.004327
3856.000000	0.004310
3855.000000	0.004300
3854.000000	0.004324
3853.000000	0.004375
3852.000000	0.004416
3851.000000	0.004412
3850.000000	0.004370
3849.000000	0.004319
3848.000000	0.004280
3847.000000	0.004260
3846.000000	0.004255
3845.000000	0.004262
3844.000000	0.004285
3843.000000	0.004323
3842.000000	0.004367
3841.000000	0.004404
3840.000000	0.004426
3839.000000	0.004432
3838.000000	0.004424
3837.000000	0.004404
3836.000000	0.004376
3835.000000	0.004342
3834.000000	0.004306
3833.000000	0.004267
3832.000000	0.004226
3831.000000	0.004195
3830.000000	0.004180
3829.000000	0.004180
3828.000000	0.004189
3827.000000	0.004205
3826.000000	0.004233
3825.000000	0.004274
3824.000000	0.004320
3823.000000	0.004353
3822.000000	0.004362
3821.000000	0.004354
3820.000000	0.004349
3819.000000	0.004347
3818.000000	0.004331
3817.000000	0.004298
3816.000000	0.004258
3815.000000	0.004223
3814.000000	0.004192
3813.000000	0.004160
3812.000000	0.004139
3811.000000	0.004142
3810.000000	0.004166
3809.000000	0.004193
3808.000000	0.004215
3807.000000	0.004243
3806.000000	0.004290
3805.000000	0.004347
3804.000000	0.004386
3803.000000	0.004390
3802.000000	0.004365
3801.000000	0.004330
3800.000000	0.004294
3799.000000	0.004243
3798.000000	0.004184
3797.000000	0.004144
3796.000000	0.004145
3795.000000	0.004177
3794.000000	0.004207
3793.000000	0.004212
3792.000000	0.004191
3791.000000	0.004156
3790.000000	0.004120
3789.000000	0.004095
3788.000000	0.004087
3787.000000	0.004095
3786.000000	0.004114
3785.000000	0.004141
3784.000000	0.004173
3783.000000	0.004204
3782.000000	0.004223
3781.000000	0.004221
3780.000000	0.004203
3779.000000	0.004185
3778.000000	0.004180
3777.000000	0.004185
3776.000000	0.004192
3775.000000	0.004198
3774.000000	0.004199
3773.000000	0.004195
3772.000000	0.004187
3771.000000	0.004182
3770.000000	0.004189
3769.000000	0.004205
3768.000000	0.004212
3767.000000	0.004194
3766.000000	0.004157
3765.000000	0.004122
3764.000000	0.004107
3763.000000	0.004116
3762.000000	0.004140
3761.000000	0.004170
3760.000000	0.004189
3759.000000	0.004184
3758.000000	0.004163
3757.000000	0.004149
3756.000000	0.004167
3755.000000	0.004225
3754.000000	0.004311
3753.000000	0.004397
3752.000000	0.004448
3751.000000	0.004445
3750.000000	0.004420
3749.000000	0.004407
3748.000000	0.004407
3747.000000	0.004392
3746.000000	0.004346
3745.000000	0.004289
3744.000000	0.004268
3743.000000	0.004293
3742.000000	0.004329
3741.000000	0.004356
3740.000000	0.004376
3739.000000	0.004390
3738.000000	0.004391
3737.000000	0.004372
3736.000000	0.004336
3735.000000	0.004292
3734.000000	0.004245
3733.000000	0.004199
3732.000000	0.004163
3731.000000	0.004146
3730.000000	0.004139
3729.000000	0.004129
3728.000000	0.004112
3727.000000	0.004093
3726.000000	0.004082
3725.000000	0.004080
3724.000000	0.004079
3723.000000	0.004068
3722.000000	0.004047
3721.000000	0.004021
3720.000000	0.004001
3719.000000	0.003996
3718.000000	0.004005
3717.000000	0.004023
3716.000000	0.004039
3715.000000	0.004051
3714.000000	0.004060
3713.000000	0.004067
3712.000000	0.004064
3711.000000	0.004045
3710.000000	0.004014
3709.000000	0.003984
3708.000000	0.003965
3707.000000	0.003964
3706.000000	0.003982
3705.000000	0.004010
3704.000000	0.004035
3703.000000	0.004041
3702.000000	0.004024
3701.000000	0.003993
3700.000000	0.003962
3699.000000	0.003936
3698.000000	0.003917
3697.000000	0.003904
3696.000000	0.003899
3695.000000	0.003904
3694.000000	0.003920
3693.000000	0.003944
3692.000000	0.003969
3691.000000	0.003985
3690.000000	0.003988
3689.000000	0.003989
3688.000000	0.003998
3687.000000	0.004005
3686.000000	0.003996
3685.000000	0.003967
3684.000000	0.003934
3683.000000	0.003918
3682.000000	0.003929
3681.000000	0.003973
3680.000000	0.004048
3679.000000	0.004142
3678.000000	0.004233
3677.000000	0.004291
3676.000000	0.004306
3675.000000	0.004304
3674.000000	0.004307
3673.000000	0.004298
3672.000000	0.004265
3671.000000	0.004215
3670.000000	0.004171
3669.000000	0.004143
3668.000000	0.004117
3667.000000	0.004076
3666.000000	0.004026
3665.000000	0.003992
3664.000000	0.003990
3663.000000	0.004014
3662.000000	0.004045
3661.000000	0.004071
3660.000000	0.004092
3659.000000	0.004118
3658.000000	0.004157
3657.000000	0.004211
3656.000000	0.004271
3655.000000	0.004326
3654.000000	0.004365
3653.000000	0.004392
3652.000000	0.004426
3651.000000	0.004480
3650.000000	0.004543
3649.000000	0.004587
3648.000000	0.004597
3647.000000	0.004580
3646.000000	0.004551
3645.000000	0.004518
3644.000000	0.004479
3643.000000	0.004436
3642.000000	0.004398
3641.000000	0.004374
3640.000000	0.004371
3639.000000	0.004380
3638.000000	0.004392
3637.000000	0.004397
3636.000000	0.004394
3635.000000	0.004396
3634.000000	0.004423
3633.000000	0.004479
3632.000000	0.004544
3631.000000	0.004599
3630.000000	0.004633
3629.000000	0.004662
3628.000000	0.004705
3627.000000	0.004753
3626.000000	0.004781
3625.000000	0.004787
3624.000000	0.004786
3623.000000	0.004790
3622.000000	0.004800
3621.000000	0.004812
3620.000000	0.004820
3619.000000	0.004825
3618.000000	0.004836
3617.000000	0.004859
3616.000000	0.004895
3615.000000	0.004939
3614.000000	0.004983
3613.000000	0.005012
3612.000000	0.005014
3611.000000	0.004990
3610.000000	0.004961
3609.000000	0.004947
3608.000000	0.004956
3607.000000	0.004979
3606.000000	0.005002
3605.000000	0.005023
3604.000000	0.005047
3603.000000	0.005077
3602.000000	0.005110
3601.000000	0.005137
3600.000000	0.005153
3599.000000	0.005156
3598.000000	0.005150
3597.000000	0.005143
3596.000000	0.005147
3595.000000	0.005175
3594.000000	0.005225
3593.000000	0.005286
3592.000000	0.005340
3591.000000	0.005386
3590.000000	0.005428
3589.000000	0.005472
3588.000000	0.005508
3587.000000	0.005529
3586.000000	0.005540
3585.000000	0.005548
3584.000000	0.005559
3583.000000	0.005573
3582.000000	0.005588
3581.000000	0.005606
3580.000000	0.005627
3579.000000	0.005647
3578.000000	0.005662
3577.000000	0.005670
3576.000000	0.005680
3575.000000	0.005702
3574.000000	0.005744
3573.000000	0.005805
3572.000000	0.005878
3571.000000	0.005951
3570.000000	0.006018
3569.000000	0.006076
3568.000000	0.006128
3567.000000	0.006176
3566.000000	0.006222
3565.000000	0.006260
3564.000000	0.006280
3563.000000	0.006276
3562.000000	0.006259
3561.000000	0.006240
3560.000000	0.006232
3559.000000	0.006240
3558.000000	0.006267
3557.000000	0.006313
3556.000000	0.006372
3555.000000	0.006431
3554.000000	0.006476
3553.000000	0.006503
3552.000000	0.006520
3551.000000	0.006541
3550.000000	0.006573
3549.000000	0.006619
3548.000000	0.006678
3547.000000	0.006741
3546.000000	0.006795
3545.000000	0.006833
3544.000000	0.006855
3543.000000	0.006865
3542.000000	0.006872
3541.000000	0.006883
3540.000000	0.006905
3539.000000	0.006941
3538.000000	0.006986
3537.000000	0.007032
3536.000000	0.007071
3535.000000	0.007106
3534.000000	0.007143
3533.000000	0.007184
3532.000000	0.007234
3531.000000	0.007295
3530.000000	0.007366
3529.000000	0.007434
3528.000000	0.007485
3527.000000	0.007514
3526.000000	0.007530
3525.000000	0.007542
3524.000000	0.007553
3523.000000	0.007561
3522.000000	0.007568
3521.000000	0.007579
3520.000000	0.007597
3519.000000	0.007626
3518.000000	0.007668
3517.000000	0.007720
3516.000000	0.007774
3515.000000	0.007824
3514.000000	0.007872
3513.000000	0.007923
3512.000000	0.007978
3511.000000	0.008033
3510.000000	0.008080
3509.000000	0.008115
3508.000000	0.008137
3507.000000	0.008147
3506.000000	0.008146
3505.000000	0.008141
3504.000000	0.008142
3503.000000	0.008162
3502.000000	0.008208
3501.000000	0.008275
3500.000000	0.008341
3499.000000	0.008384
3498.000000	0.008399
3497.000000	0.008398
3496.000000	0.008401
3495.000000	0.008419
3494.000000	0.008447
3493.000000	0.008476
3492.000000	0.008500
3491.000000	0.008519
3490.000000	0.008539
3489.000000	0.008566
3488.000000	0.008601
3487.000000	0.008644
3486.000000	0.008691
3485.000000	0.008735
3484.000000	0.008770
3483.000000	0.008794
3482.000000	0.008811
3481.000000	0.008825
3480.000000	0.008835
3479.000000	0.008841
3478.000000	0.008848
3477.000000	0.008861
3476.000000	0.008887
3475.000000	0.008928
3474.000000	0.008978
3473.000000	0.009025
3472.000000	0.009057
3471.000000	0.009075
3470.000000	0.009091
3469.000000	0.009115
3468.000000	0.009148
3467.000000	0.009181
3466.000000	0.009207
3465.000000	0.009229
3464.000000	0.009250
3463.000000	0.009267
3462.000000	0.009274
3461.000000	0.009271
3460.000000	0.009270
3459.000000	0.009286
3458.000000	0.009323
3457.000000	0.009371
3456.000000	0.009411
3455.000000	0.009432
3454.000000	0.009443
3453.000000	0.009458
3452.000000	0.009494
3451.000000	0.009550
3450.000000	0.009613
3449.000000	0.009667
3448.000000	0.009699
3447.000000	0.009715
3446.000000	0.009726
3445.000000	0.009737
3444.000000	0.009748
3443.000000	0.009758
3442.000000	0.009770
3441.000000	0.009784
3440.000000	0.009802
3439.000000	0.009828
3438.000000	0.009867
3437.000000	0.009920
3436.000000	0.009972
3435.000000	0.010011
3434.000000	0.010036
3433.000000	0.010057
3432.000000	0.010081
3431.000000	0.010107
3430.000000	0.010131
3429.000000	0.010149
3428.000000	0.010160
3427.000000	0.010166
3426.000000	0.010175
3425.000000	0.010197
3424.000000	0.010231
3423.000000	0.010267
3422.000000	0.010295
3421.000000	0.010317
3420.000000	0.010337
3419.000000	0.010354
3418.000000	0.010370
3417.000000	0.010389
3416.000000	0.010418
3415.000000	0.010460
3414.000000	0.010504
3413.000000	0.010536
3412.000000	0.010550
3411.000000	0.010555
3410.000000	0.010565
3409.000000	0.010587
3408.000000	0.010621
3407.000000	0.010663
3406.000000	0.010713
3405.000000	0.010769
3404.000000	0.010825
3403.000000	0.010870
3402.000000	0.010903
3401.000000	0.010923
3400.000000	0.010937
3399.000000	0.010955
3398.000000	0.010983
3397.000000	0.011020
3396.000000	0.011055
3395.000000	0.011077
3394.000000	0.011086
3393.000000	0.011095
3392.000000	0.011111
3391.000000	0.011131
3390.000000	0.011145
3389.000000	0.011149
3388.000000	0.011150
3387.000000	0.011161
3386.000000	0.011189
3385.000000	0.011233
3384.000000	0.011282
3383.000000	0.011323
3382.000000	0.011352
3381.000000	0.011372
3380.000000	0.011396
3379.000000	0.011427
3378.000000	0.011465
3377.000000	0.011508
3376.000000	0.011556
3375.000000	0.011608
3374.000000	0.011659
3373.000000	0.011702
3372.000000	0.011737
3371.000000	0.011773
3370.000000	0.011816
3369.000000	0.011868
3368.000000	0.011923
3367.000000	0.011977
3366.000000	0.012031
3365.000000	0.012090
3364.000000	0.012153
3363.000000	0.012216
3362.000000	0.012273
3361.000000	0.012319
3360.000000	0.012353
3359.000000	0.012383
3358.000000	0.012422
3357.000000	0.012481
3356.000000	0.012559
3355.000000	0.012642
3354.000000	0.012717
3353.000000	0.012782
3352.000000	0.012840
3351.000000	0.012894
3350.000000	0.012943
3349.000000	0.012983
3348.000000	0.013021
3347.000000	0.013068
3346.000000	0.013133
3345.000000	0.013213
3344.000000	0.013294
3343.000000	0.013363
3342.000000	0.013416
3341.000000	0.013459
3340.000000	0.013503
3339.000000	0.013556
3338.000000	0.013617
3337.000000	0.013677
3336.000000	0.013725
3335.000000	0.013758
3334.000000	0.013781
3333.000000	0.013806
3332.000000	0.013844
3331.000000	0.013902
3330.000000	0.013973
3329.000000	0.014049
3328.000000	0.014114
3327.000000	0.014163
3326.000000	0.014198
3325.000000	0.014227
3324.000000	0.014257
3323.000000	0.014287
3322.000000	0.014311
3321.000000	0.014330
3320.000000	0.014348
3319.000000	0.014375
3318.000000	0.014414
3317.000000	0.014454
3316.000000	0.014484
3315.000000	0.014500
3314.000000	0.014511
3313.000000	0.014529
3312.000000	0.014561
3311.000000	0.014603
3310.000000	0.014649
3309.000000	0.014692
3308.000000	0.014723
3307.000000	0.014739
3306.000000	0.014744
3305.000000	0.014744
3304.000000	0.014746
3303.000000	0.014754
3302.000000	0.014771
3301.000000	0.014799
3300.000000	0.014830
3299.000000	0.014852
3298.000000	0.014860
3297.000000	0.014857
3296.000000	0.014853
3295.000000	0.014859
3294.000000	0.014877
3293.000000	0.014909
3292.000000	0.014948
3291.000000	0.014983
3290.000000	0.015001
3289.000000	0.015003
3288.000000	0.014994
3287.000000	0.014983
3286.000000	0.014972
3285.000000	0.014955
3284.000000	0.014931
3283.000000	0.014905
3282.000000	0.014883
3281.000000	0.014866
3280.000000	0.014856
3279.000000	0.014855
3278.000000	0.014862
3277.000000	0.014874
3276.000000	0.014881
3275.000000	0.014878
3274.000000	0.014860
3273.000000	0.014831
3272.000000	0.014795
3271.000000	0.014761
3270.000000	0.014737
3269.000000	0.014722
3268.000000	0.014715
3267.000000	0.014713
3266.000000	0.014711
3265.000000	0.014701
3264.000000	0.014677
3263.000000	0.014638
3262.000000	0.014591
3261.000000	0.014546
3260.000000	0.014509
3259.000000	0.014482
3258.000000	0.014464
3257.000000	0.014451
3256.000000	0.014438
3255.000000	0.014421
3254.000000	0.014399
3253.000000	0.014376
3252.000000	0.014351
3251.000000	0.014323
3250.000000	0.014293
3249.000000	0.014261
3248.000000	0.014229
3247.000000	0.014198
3246.000000	0.014172
3245.000000	0.014153
3244.000000	0.014139
3243.000000	0.014120
3242.000000	0.014087
3241.000000	0.014041
3240.000000	0.013993
3239.000000	0.013955
3238.000000	0.013933
3237.000000	0.013921
3236.000000	0.013909
3235.000000	0.013888
3234.000000	0.013862
3233.000000	0.013840
3232.000000	0.013826
3231.000000	0.013813
3230.000000	0.013791
3229.000000	0.013760
3228.000000	0.013726
3227.000000	0.013696
3226.000000	0.013672
3225.000000	0.013652
3224.000000	0.013630
3223.000000	0.013607
3222.000000	0.013584
3221.000000	0.013561
3220.000000	0.013540
3219.000000	0.013523
3218.000000	0.013513
3217.000000	0.013511
3216.000000	0.013510
3215.000000	0.013505
3214.000000	0.013495
3213.000000	0.013483
3212.000000	0.013472
3211.000000	0.013459
3210.000000	0.013439
3209.000000	0.013414
3208.000000	0.013392
3207.000000	0.013379
3206.000000	0.013368
3205.000000	0.013348
3204.000000	0.013313
3203.000000	0.013268
3202.000000	0.013222
3201.000000	0.013181
3200.000000	0.013146
3199.000000	0.013116
3198.000000	0.013089
3197.000000	0.013063
3196.000000	0.013040
3195.000000	0.013022
3194.000000	0.013002
3193.000000	0.012970
3192.000000	0.012918
3191.000000	0.012854
3190.000000	0.012793
3189.000000	0.012745
3188.000000	0.012706
3187.000000	0.012670
3186.000000	0.012639
3185.000000	0.012619
3184.000000	0.012608
3183.000000	0.012598
3182.000000	0.012576
3181.000000	0.012539
3180.000000	0.012493
3179.000000	0.012445
3178.000000	0.012405
3177.000000	0.012373
3176.000000	0.012344
3175.000000	0.012315
3174.000000	0.012289
3173.000000	0.012267
3172.000000	0.012246
3171.000000	0.012218
3170.000000	0.012177
3169.000000	0.012123
3168.000000	0.012065
3167.000000	0.012011
3166.000000	0.011965
3165.000000	0.011919
3164.000000	0.011867
3163.000000	0.011812
3162.000000	0.011764
3161.000000	0.011736
3160.000000	0.011730
3159.000000	0.011738
3158.000000	0.011746
3157.000000	0.011738
3156.000000	0.011710
3155.000000	0.011668
3154.000000	0.011626
3153.000000	0.011590
3152.000000	0.011556
3151.000000	0.011521
3150.000000	0.011490
3149.000000	0.011467
3148.000000	0.011449
3147.000000	0.011424
3146.000000	0.011387
3145.000000	0.011340
3144.000000	0.011290
3143.000000	0.011247
3142.000000	0.011217
3141.000000	0.011203
3140.000000	0.011196
3139.000000	0.011188
3138.000000	0.011171
3137.000000	0.011148
3136.000000	0.011122
3135.000000	0.011095
3134.000000	0.011066
3133.000000	0.011038
3132.000000	0.011020
3131.000000	0.011014
3130.000000	0.011018
3129.000000	0.011020
3128.000000	0.011009
3127.000000	0.010985
3126.000000	0.010956
3125.000000	0.010933
3124.000000	0.010918
3123.000000	0.010905
3122.000000	0.010887
3121.000000	0.010866
3120.000000	0.010855
3119.000000	0.010864
3118.000000	0.010892
3117.000000	0.010925
3116.000000	0.010948
3115.000000	0.010956
3114.000000	0.010952
3113.000000	0.010936
3112.000000	0.010913
3111.000000	0.010893
3110.000000	0.010885
3109.000000	0.010896
3108.000000	0.010921
3107.000000	0.010954
3106.000000	0.010988
3105.000000	0.011017
3104.000000	0.011036
3103.000000	0.011040
3102.000000	0.011035
3101.000000	0.011030
3100.000000	0.011038
3099.000000	0.011063
3098.000000	0.011103
3097.000000	0.011143
3096.000000	0.011172
3095.000000	0.011186
3094.000000	0.011189
3093.000000	0.011188
3092.000000	0.011184
3091.000000	0.011178
3090.000000	0.011176
3089.000000	0.011186
3088.000000	0.011206
3087.000000	0.011226
3086.000000	0.011241
3085.000000	0.011255
3084.000000	0.011276
3083.000000	0.011305
3082.000000	0.011335
3081.000000	0.011360
3080.000000	0.011375
3079.000000	0.011379
3078.000000	0.011375
3077.000000	0.011370
3076.000000	0.011371
3075.000000	0.011379
3074.000000	0.011389
3073.000000	0.011394
3072.000000	0.011394
3071.000000	0.011389
3070.000000	0.011379
3069.000000	0.011363
3068.000000	0.011341
3067.000000	0.011320
3066.000000	0.011303
3065.000000	0.011294
3064.000000	0.011293
3063.000000	0.011302
3062.000000	0.011316
3061.000000	0.011326
3060.000000	0.011320
3059.000000	0.011291
3058.000000	0.011246
3057.000000	0.011193
3056.000000	0.011145
3055.000000	0.011107
3054.000000	0.011080
3053.000000	0.011054
3052.000000	0.011021
3051.000000	0.010986
3050.000000	0.010958
3049.000000	0.010944
3048.000000	0.010937
3047.000000	0.010925
3046.000000	0.010900
3045.000000	0.010858
3044.000000	0.010799
3043.000000	0.010735
3042.000000	0.010688
3041.000000	0.010664
3040.000000	0.010652
3039.000000	0.010634
3038.000000	0.010602
3037.000000	0.010566
3036.000000	0.010532
3035.000000	0.010497
3034.000000	0.010455
3033.000000	0.010406
3032.000000	0.010356
3031.000000	0.010311
3030.000000	0.010274
3029.000000	0.010244
3028.000000	0.010215
3027.000000	0.010185
3026.000000	0.010160
3025.000000	0.010151
3024.000000	0.010158
3023.000000	0.010167
3022.000000	0.010160
3021.000000	0.010130
3020.000000	0.010091
3019.000000	0.010054
3018.000000	0.010022
3017.000000	0.009985
3016.000000	0.009942
3015.000000	0.009900
3014.000000	0.009873
3013.000000	0.009863
3012.000000	0.009864
3011.000000	0.009868
3010.000000	0.009871
3009.000000	0.009871
3008.000000	0.009868
3007.000000	0.009862
3006.000000	0.009854
3005.000000	0.009847
3004.000000	0.009837
3003.000000	0.009826
3002.000000	0.009819
3001.000000	0.009823
3000.000000	0.009836
2999.000000	0.009849
2998.000000	0.009860
2997.000000	0.009875
2996.000000	0.009894
2995.000000	0.009911
2994.000000	0.009921
2993.000000	0.009927
2992.000000	0.009940
2991.000000	0.009964
2990.000000	0.009998
2989.000000	0.010038
2988.000000	0.010083
2987.000000	0.010135
2986.000000	0.010192
2985.000000	0.010247
2984.000000	0.010292
2983.000000	0.010326
2982.000000	0.010357
2981.000000	0.010392
2980.000000	0.010434
2979.000000	0.010480
2978.000000	0.010525
2977.000000	0.010567
2976.000000	0.010600
2975.000000	0.010622
2974.000000	0.010639
2973.000000	0.010666
2972.000000	0.010708
2971.000000	0.010762
2970.000000	0.010824
2969.000000	0.010896
2968.000000	0.010976
2967.000000	0.011058
2966.000000	0.011131
2965.000000	0.011196
2964.000000	0.011265
2963.000000	0.011342
2962.000000	0.011419
2961.000000	0.011487
2960.000000	0.011542
2959.000000	0.011585
2958.000000	0.011614
2957.000000	0.011630
2956.000000	0.011638
2955.000000	0.011649
2954.000000	0.011667
2953.000000	0.011683
2952.000000	0.011688
2951.000000	0.011677
2950.000000	0.011661
2949.000000	0.011655
2948.000000	0.011666
2947.000000	0.011697
2946.000000	0.011743
2945.000000	0.011802
2944.000000	0.011875
2943.000000	0.011954
2942.000000	0.012031
2941.000000	0.012100
2940.000000	0.012160
2939.000000	0.012219
2938.000000	0.012286
2937.000000	0.012369
2936.000000	0.012469
2935.000000	0.012581
2934.000000	0.012702
2933.000000	0.012827
2932.000000	0.012953
2931.000000	0.013073
2930.000000	0.013189
2929.000000	0.013305
2928.000000	0.013426
2927.000000	0.013550
2926.000000	0.013660
2925.000000	0.013743
2924.000000	0.013790
2923.000000	0.013804
2922.000000	0.013784
2921.000000	0.013733
2920.000000	0.013654
2919.000000	0.013553
2918.000000	0.013439
2917.000000	0.013314
2916.000000	0.013170
2915.000000	0.012993
2914.000000	0.012783
2913.000000	0.012559
2912.000000	0.012354
2911.000000	0.012191
2910.000000	0.012069
2909.000000	0.011962
2908.000000	0.011846
2907.000000	0.011720
2906.000000	0.011598
2905.000000	0.011495
2904.000000	0.011411
2903.000000	0.011333
2902.000000	0.011253
2901.000000	0.011169
2900.000000	0.011085
2899.000000	0.011008
2898.000000	0.010942
2897.000000	0.010890
2896.000000	0.010852
2895.000000	0.010824
2894.000000	0.010797
2893.000000	0.010765
2892.000000	0.010736
2891.000000	0.010716
2890.000000	0.010706
2889.000000	0.010694
2888.000000	0.010670
2887.000000	0.010638
2886.000000	0.010611
2885.000000	0.010602
2884.000000	0.010604
2883.000000	0.010602
2882.000000	0.010587
2881.000000	0.010562
2880.000000	0.010540
2879.000000	0.010534
2878.000000	0.010545
2877.000000	0.010567
2876.000000	0.010588
2875.000000	0.010603
2874.000000	0.010615
2873.000000	0.010625
2872.000000	0.010634
2871.000000	0.010641
2870.000000	0.010642
2869.000000	0.010636
2868.000000	0.010620
2867.000000	0.010598
2866.000000	0.010576
2865.000000	0.010558
2864.000000	0.010541
2863.000000	0.010525
2862.000000	0.010517
2861.000000	0.010530
2860.000000	0.010574
2859.000000	0.010646
2858.000000	0.010740
2857.000000	0.010842
2856.000000	0.010939
2855.000000	0.011019
2854.000000	0.011080
2853.000000	0.011127
2852.000000	0.011165
2851.000000	0.011179
2850.000000	0.011145
2849.000000	0.011048
2848.000000	0.010894
2847.000000	0.010705
2846.000000	0.010507
2845.000000	0.010316
2844.000000	0.010138
2843.000000	0.009969
2842.000000	0.009808
2841.000000	0.009662
2840.000000	0.009545
2839.000000	0.009465
2838.000000	0.009423
2837.000000	0.009409
2836.000000	0.009406
2835.000000	0.009400
2834.000000	0.009382
2833.000000	0.009359
2832.000000	0.009337
2831.000000	0.009322
2830.000000	0.009306
2829.000000	0.009282
2828.000000	0.009248
2827.000000	0.009205
2826.000000	0.009157
2825.000000	0.009105
2824.000000	0.009051
2823.000000	0.008997
2822.000000	0.008947
2821.000000	0.008902
2820.000000	0.008867
2819.000000	0.008846
2818.000000	0.008839
2817.000000	0.008839
2816.000000	0.008840
2815.000000	0.008839
2814.000000	0.008844
2813.000000	0.008858
2812.000000	0.008879
2811.000000	0.008897
2810.000000	0.008904
2809.000000	0.008896
2808.000000	0.008874
2807.000000	0.008839
2806.000000	0.008792
2805.000000	0.008739
2804.000000	0.008690
2803.000000	0.008653
2802.000000	0.008628
2801.000000	0.008607
2800.000000	0.008581
2799.000000	0.008553
2798.000000	0.008530
2797.000000	0.008527
2796.000000	0.008548
2795.000000	0.008586
2794.000000	0.008622
2793.000000	0.008642
2792.000000	0.008643
2791.000000	0.008635
2790.000000	0.008625
2789.000000	0.008612
2788.000000	0.008593
2787.000000	0.008570
2786.000000	0.008543
2785.000000	0.008507
2784.000000	0.008457
2783.000000	0.008401
2782.000000	0.008353
2781.000000	0.008321
2780.000000	0.008304
2779.000000	0.008298
2778.000000	0.008301
2777.000000	0.008317
2776.000000	0.008341
2775.000000	0.008367
2774.000000	0.008390
2773.000000	0.008412
2772.000000	0.008427
2771.000000	0.008427
2770.000000	0.008405
2769.000000	0.008366
2768.000000	0.008324
2767.000000	0.008289
2766.000000	0.008257
2765.000000	0.008222
2764.000000	0.008181
2763.000000	0.008139
2762.000000	0.008101
2761.000000	0.008072
2760.000000	0.008057
2759.000000	0.008060
2758.000000	0.008075
2757.000000	0.008092
2756.000000	0.008106
2755.000000	0.008116
2754.000000	0.008131
2753.000000	0.008153
2752.000000	0.008174
2751.000000	0.008182
2750.000000	0.008171
2749.000000	0.008141
2748.000000	0.008099
2747.000000	0.008053
2746.000000	0.008008
2745.000000	0.007968
2744.000000	0.007937
2743.000000	0.007918
2742.000000	0.007909
2741.000000	0.007902
2740.000000	0.007891
2739.000000	0.007884
2738.000000	0.007889
2737.000000	0.007907
2736.000000	0.007928
2735.000000	0.007943
2734.000000	0.007945
2733.000000	0.007937
2732.000000	0.007924
2731.000000	0.007911
2730.000000	0.007900
2729.000000	0.007884
2728.000000	0.007861
2727.000000	0.007833
2726.000000	0.007808
2725.000000	0.007791
2724.000000	0.007780
2723.000000	0.007771
2722.000000	0.007764
2721.000000	0.007759
2720.000000	0.007756
2719.000000	0.007751
2718.000000	0.007744
2717.000000	0.007740
2716.000000	0.007742
2715.000000	0.007749
2714.000000	0.007753
2713.000000	0.007752
2712.000000	0.007746
2711.000000	0.007740
2710.000000	0.007733
2709.000000	0.007724
2708.000000	0.007711
2707.000000	0.007694
2706.000000	0.007676
2705.000000	0.007655
2704.000000	0.007633
2703.000000	0.007616
2702.000000	0.007611
2701.000000	0.007614
2700.000000	0.007616
2699.000000	0.007609
2698.000000	0.007598
2697.000000	0.007590
2696.000000	0.007588
2695.000000	0.007592
2694.000000	0.007604
2693.000000	0.007623
2692.000000	0.007644
2691.000000	0.007653
2690.000000	0.007642
2689.000000	0.007611
2688.000000	0.007570
2687.000000	0.007533
2686.000000	0.007510
2685.000000	0.007502
2684.000000	0.007501
2683.000000	0.007497
2682.000000	0.007492
2681.000000	0.007493
2680.000000	0.007504
2679.000000	0.007518
2678.000000	0.007529
2677.000000	0.007540
2676.000000	0.007555
2675.000000	0.007571
2674.000000	0.007578
2673.000000	0.007574
2672.000000	0.007561
2671.000000	0.007544
2670.000000	0.007526
2669.000000	0.007510
2668.000000	0.007503
2667.000000	0.007506
2666.000000	0.007513
2665.000000	0.007515
2664.000000	0.007510
2663.000000	0.007501
2662.000000	0.007485
2661.000000	0.007460
2660.000000	0.007433
2659.000000	0.007413
2658.000000	0.007405
2657.000000	0.007401
2656.000000	0.007392
2655.000000	0.007375
2654.000000	0.007353
2653.000000	0.007325
2652.000000	0.007293
2651.000000	0.007265
2650.000000	0.007246
2649.000000	0.007235
2648.000000	0.007222
2647.000000	0.007198
2646.000000	0.007165
2645.000000	0.007129
2644.000000	0.007097
2643.000000	0.007076
2642.000000	0.007068
2641.000000	0.007072
2640.000000	0.007079
2639.000000	0.007080
2638.000000	0.007071
2637.000000	0.007048
2636.000000	0.007017
2635.000000	0.006983
2634.000000	0.006954
2633.000000	0.006931
2632.000000	0.006910
2631.000000	0.006892
2630.000000	0.006874
2629.000000	0.006855
2628.000000	0.006828
2627.000000	0.006798
2626.000000	0.006775
2625.000000	0.006767
2624.000000	0.006775
2623.000000	0.006792
2622.000000	0.006811
2621.000000	0.006820
2620.000000	0.006804
2619.000000	0.006756
2618.000000	0.006694
2617.000000	0.006643
2616.000000	0.006619
2615.000000	0.006615
2614.000000	0.006611
2613.000000	0.006591
2612.000000	0.006556
2611.000000	0.006517
2610.000000	0.006484
2609.000000	0.006465
2608.000000	0.006453
2607.000000	0.006439
2606.000000	0.006420
2605.000000	0.006398
2604.000000	0.006382
2603.000000	0.006378
2602.000000	0.006383
2601.000000	0.006389
2600.000000	0.006391
2599.000000	0.006390
2598.000000	0.006390
2597.000000	0.006390
2596.000000	0.006387
2595.000000	0.006381
2594.000000	0.006380
2593.000000	0.006394
2592.000000	0.006420
2591.000000	0.006439
2590.000000	0.006433
2589.000000	0.006398
2588.000000	0.006352
2587.000000	0.006320
2586.000000	0.006319
2585.000000	0.006343
2584.000000	0.006373
2583.000000	0.006386
2582.000000	0.006374
2581.000000	0.006339
2580.000000	0.006297
2579.000000	0.006261
2578.000000	0.006246
2577.000000	0.006253
2576.000000	0.006271
2575.000000	0.006281
2574.000000	0.006272
2573.000000	0.006250
2572.000000	0.006230
2571.000000	0.006223
2570.000000	0.006225
2569.000000	0.006222
2568.000000	0.006212
2567.000000	0.006202
2566.000000	0.006203
2565.000000	0.006215
2564.000000	0.006226
2563.000000	0.006226
2562.000000	0.006206
2561.000000	0.006168
2560.000000	0.006126
2559.000000	0.006098
2558.000000	0.006092
2557.000000	0.006097
2556.000000	0.006101
2555.000000	0.006106
2554.000000	0.006120
2553.000000	0.006140
2552.000000	0.006158
2551.000000	0.006173
2550.000000	0.006193
2549.000000	0.006208
2548.000000	0.006199
2547.000000	0.006159
2546.000000	0.006110
2545.000000	0.006080
2544.000000	0.006071
2543.000000	0.006068
2542.000000	0.006057
2541.000000	0.006034
2540.000000	0.006005
2539.000000	0.005984
2538.000000	0.005989
2537.000000	0.006024
2536.000000	0.006073
2535.000000	0.006109
2534.000000	0.006120
2533.000000	0.006108
2532.000000	0.006082
2531.000000	0.006050
2530.000000	0.006028
2529.000000	0.006026
2528.000000	0.006042
2527.000000	0.006066
2526.000000	0.006086
2525.000000	0.006104
2524.000000	0.006115
2523.000000	0.006112
2522.000000	0.006094
2521.000000	0.006070
2520.000000	0.006051
2519.000000	0.006040
2518.000000	0.006032
2517.000000	0.006028
2516.000000	0.006030
2515.000000	0.006039
2514.000000	0.006051
2513.000000	0.006060
2512.000000	0.006060
2511.000000	0.006047
2510.000000	0.006016
2509.000000	0.005978
2508.000000	0.005954
2507.000000	0.005961
2506.000000	0.005996
2505.000000	0.006035
2504.000000	0.006054
2503.000000	0.006048
2502.000000	0.006026
2501.000000	0.005997
2500.000000	0.005962
2499.000000	0.005924
2498.000000	0.005889
2497.000000	0.005870
2496.000000	0.005875
2495.000000	0.005897
2494.000000	0.005920
2493.000000	0.005925
2492.000000	0.005910
2491.000000	0.005888
2490.000000	0.005873
2489.000000	0.005870
2488.000000	0.005872
2487.000000	0.005871
2486.000000	0.005862
2485.000000	0.005848
2484.000000	0.005837
2483.000000	0.005839
2482.000000	0.005858
2481.000000	0.005884
2480.000000	0.005891
2479.000000	0.005864
2478.000000	0.005811
2477.000000	0.005748
2476.000000	0.005694
2475.000000	0.005659
2474.000000	0.005650
2473.000000	0.005669
2472.000000	0.005704
2471.000000	0.005739
2470.000000	0.005768
2469.000000	0.005795
2468.000000	0.005826
2467.000000	0.005852
2466.000000	0.005860
2465.000000	0.005845
2464.000000	0.005817
2463.000000	0.005795
2462.000000	0.005785
2461.000000	0.005782
2460.000000	0.005779
2459.000000	0.005775
2458.000000	0.005773
2457.000000	0.005766
2456.000000	0.005745
2455.000000	0.005722
2454.000000	0.005724
2453.000000	0.005767
2452.000000	0.005832
2451.000000	0.005882
2450.000000	0.005896
2449.000000	0.005883
2448.000000	0.005868
2447.000000	0.005866
2446.000000	0.005867
2445.000000	0.005856
2444.000000	0.005825
2443.000000	0.005778
2442.000000	0.005724
2441.000000	0.005673
2440.000000	0.005635
2439.000000	0.005619
2438.000000	0.005624
2437.000000	0.005642
2436.000000	0.005662
2435.000000	0.005689
2434.000000	0.005721
2433.000000	0.005744
2432.000000	0.005737
2431.000000	0.005708
2430.000000	0.005689
2429.000000	0.005701
2428.000000	0.005730
2427.000000	0.005752
2426.000000	0.005756
2425.000000	0.005742
2424.000000	0.005712
2423.000000	0.005674
2422.000000	0.005647
2421.000000	0.005643
2420.000000	0.005654
2419.000000	0.005661
2418.000000	0.005663
2417.000000	0.005674
2416.000000	0.005702
2415.000000	0.005741
2414.000000	0.005774
2413.000000	0.005780
2412.000000	0.005747
2411.000000	0.005689
2410.000000	0.005642
2409.000000	0.005630
2408.000000	0.005646
2407.000000	0.005659
2406.000000	0.005652
2405.000000	0.005638
2404.000000	0.005635
2403.000000	0.005652
2402.000000	0.005677
2401.000000	0.005700
2400.000000	0.005711
2399.000000	0.005711
2398.000000	0.005710
2397.000000	0.005716
2396.000000	0.005729
2395.000000	0.005739
2394.000000	0.005744
2393.000000	0.005744
2392.000000	0.005738
2391.000000	0.005724
2390.000000	0.005706
2389.000000	0.005697
2388.000000	0.005706
2387.000000	0.005723
2386.000000	0.005732
2385.000000	0.005725
2384.000000	0.005709
2383.000000	0.005698
2382.000000	0.005701
2381.000000	0.005719
2380.000000	0.005744
2379.000000	0.005761
2378.000000	0.005760
2377.000000	0.005734
2376.000000	0.005685
2375.000000	0.005630
2374.000000	0.005598
2373.000000	0.005612
2372.000000	0.005671
2371.000000	0.005749
2370.000000	0.005812
2369.000000	0.005833
2368.000000	0.005804
2367.000000	0.005743
2366.000000	0.005685
2365.000000	0.005659
2364.000000	0.005670
2363.000000	0.005708
2362.000000	0.005758
2361.000000	0.005797
2360.000000	0.005810
2359.000000	0.005796
2358.000000	0.005767
2357.000000	0.005741
2356.000000	0.005728
2355.000000	0.005737
2354.000000	0.005757
2353.000000	0.005764
2352.000000	0.005746
2351.000000	0.005727
2350.000000	0.005733
2349.000000	0.005760
2348.000000	0.005786
2347.000000	0.005786
2346.000000	0.005751
2345.000000	0.005711
2344.000000	0.005701
2343.000000	0.005736
2342.000000	0.005782
2341.000000	0.005804
2340.000000	0.005799
2339.000000	0.005785
2338.000000	0.005775
2337.000000	0.005770
2336.000000	0.005764
2335.000000	0.005743
2334.000000	0.005703
2333.000000	0.005653
2332.000000	0.005621
2331.000000	0.005616
2330.000000	0.005636
2329.000000	0.005659
2328.000000	0.005684
2327.000000	0.005711
2326.000000	0.005737
2325.000000	0.005748
2324.000000	0.005734
2323.000000	0.005708
2322.000000	0.005691
2321.000000	0.005693
2320.000000	0.005709
2319.000000	0.005721
2318.000000	0.005728
2317.000000	0.005729
2316.000000	0.005731
2315.000000	0.005728
2314.000000	0.005721
2313.000000	0.005707
2312.000000	0.005697
2311.000000	0.005685
2310.000000	0.005663
2309.000000	0.005613
2308.000000	0.005541
2307.000000	0.005468
2306.000000	0.005426
2305.000000	0.005426
2304.000000	0.005456
2303.000000	0.005497
2302.000000	0.005538
2301.000000	0.005568
2300.000000	0.005580
2299.000000	0.005569
2298.000000	0.005553
2297.000000	0.005554
2296.000000	0.005581
2295.000000	0.005617
2294.000000	0.005641
2293.000000	0.005648
2292.000000	0.005645
2291.000000	0.005639
2290.000000	0.005626
2289.000000	0.005596
2288.000000	0.005540
2287.000000	0.005463
2286.000000	0.005379
2285.000000	0.005308
2284.000000	0.005263
2283.000000	0.005250
2282.000000	0.005272
2281.000000	0.005327
2280.000000	0.005396
2279.000000	0.005445
2278.000000	0.005449
2277.000000	0.005407
2276.000000	0.005343
2275.000000	0.005280
2274.000000	0.005228
2273.000000	0.005200
2272.000000	0.005219
2271.000000	0.005294
2270.000000	0.005404
2269.000000	0.005497
2268.000000	0.005529
2267.000000	0.005500
2266.000000	0.005445
2265.000000	0.005405
2264.000000	0.005394
2263.000000	0.005404
2262.000000	0.005412
2261.000000	0.005395
2260.000000	0.005349
2259.000000	0.005292
2258.000000	0.005254
2257.000000	0.005251
2256.000000	0.005277
2255.000000	0.005315
2254.000000	0.005345
2253.000000	0.005354
2252.000000	0.005341
2251.000000	0.005328
2250.000000	0.005341
2249.000000	0.005376
2248.000000	0.005397
2247.000000	0.005377
2246.000000	0.005331
2245.000000	0.005301
2244.000000	0.005314
2243.000000	0.005359
2242.000000	0.005401
2241.000000	0.005405
2240.000000	0.005366
2239.000000	0.005326
2238.000000	0.005336
2237.000000	0.005399
2236.000000	0.005466
2235.000000	0.005488
2234.000000	0.005461
2233.000000	0.005415
2232.000000	0.005365
2231.000000	0.005312
2230.000000	0.005260
2229.000000	0.005209
2228.000000	0.005153
2227.000000	0.005099
2226.000000	0.005082
2225.000000	0.005120
2224.000000	0.005179
2223.000000	0.005208
2222.000000	0.005210
2221.000000	0.005227
2220.000000	0.005265
2219.000000	0.005278
2218.000000	0.005239
2217.000000	0.005177
2216.000000	0.005144
2215.000000	0.005156
2214.000000	0.005195
2213.000000	0.005231
2212.000000	0.005236
2211.000000	0.005201
2210.000000	0.005146
2209.000000	0.005104
2208.000000	0.005091
2207.000000	0.005104
2206.000000	0.005142
2205.000000	0.005199
2204.000000	0.005237
2203.000000	0.005207
2202.000000	0.005114
2201.000000	0.005022
2200.000000	0.004985
2199.000000	0.005008
2198.000000	0.005068
2197.000000	0.005140
2196.000000	0.005186
2195.000000	0.005163
2194.000000	0.005079
2193.000000	0.005002
2192.000000	0.004987
2191.000000	0.005017
2190.000000	0.005059
2189.000000	0.005122
2188.000000	0.005219
2187.000000	0.005305
2186.000000	0.005300
2185.000000	0.005180
2184.000000	0.004998
2183.000000	0.004815
2182.000000	0.004667
2181.000000	0.004575
2180.000000	0.004554
2179.000000	0.004575
2178.000000	0.004586
2177.000000	0.004568
2176.000000	0.004565
2175.000000	0.004627
2174.000000	0.004757
2173.000000	0.004917
2172.000000	0.005066
2171.000000	0.005170
2170.000000	0.005202
2169.000000	0.005155
2168.000000	0.005058
2167.000000	0.004956
2166.000000	0.004861
2165.000000	0.004766
2164.000000	0.004669
2163.000000	0.004589
2162.000000	0.004542
2161.000000	0.004524
2160.000000	0.004529
2159.000000	0.004570
2158.000000	0.004655
2157.000000	0.004747
2156.000000	0.004781
2155.000000	0.004719
2154.000000	0.004582
2153.000000	0.004438
2152.000000	0.004364
2151.000000	0.004395
2150.000000	0.004514
2149.000000	0.004678
2148.000000	0.004856
2147.000000	0.005025
2146.000000	0.005140
2145.000000	0.005148
2144.000000	0.005036
2143.000000	0.004863
2142.000000	0.004705
2141.000000	0.004602
2140.000000	0.004551
2139.000000	0.004545
2138.000000	0.004592
2137.000000	0.004682
2136.000000	0.004783
2135.000000	0.004859
2134.000000	0.004892
2133.000000	0.004875
2132.000000	0.004822
2131.000000	0.004766
2130.000000	0.004748
2129.000000	0.004777
2128.000000	0.004836
2127.000000	0.004900
2126.000000	0.004955
2125.000000	0.004989
2124.000000	0.004991
2123.000000	0.004970
2122.000000	0.004958
2121.000000	0.004983
2120.000000	0.005044
2119.000000	0.005124
2118.000000	0.005199
2117.000000	0.005247
2116.000000	0.005252
2115.000000	0.005224
2114.000000	0.005202
2113.000000	0.005216
2112.000000	0.005247
2111.000000	0.005251
2110.000000	0.005206
2109.000000	0.005135
2108.000000	0.005078
2107.000000	0.005073
2106.000000	0.005144
2105.000000	0.005286
2104.000000	0.005451
2103.000000	0.005564
2102.000000	0.005573
2101.000000	0.005484
2100.000000	0.005343
2099.000000	0.005203
2098.000000	0.005098
2097.000000	0.005048
2096.000000	0.005059
2095.000000	0.005114
2094.000000	0.005167
2093.000000	0.005161
2092.000000	0.005084
2091.000000	0.004986
2090.000000	0.004940
2089.000000	0.004972
2088.000000	0.005041
2087.000000	0.005087
2086.000000	0.005091
2085.000000	0.005064
2084.000000	0.005019
2083.000000	0.004974
2082.000000	0.004963
2081.000000	0.005008
2080.000000	0.005075
2079.000000	0.005104
2078.000000	0.005078
2077.000000	0.005036
2076.000000	0.005017
2075.000000	0.005013
2074.000000	0.004994
2073.000000	0.004961
2072.000000	0.004941
2071.000000	0.004950
2070.000000	0.004978
2069.000000	0.005009
2068.000000	0.005030
2067.000000	0.005036
2066.000000	0.005027
2065.000000	0.005011
2064.000000	0.004999
2063.000000	0.004990
2062.000000	0.004961
2061.000000	0.004886
2060.000000	0.004761
2059.000000	0.004619
2058.000000	0.004505
2057.000000	0.004445
2056.000000	0.004440
2055.000000	0.004479
2054.000000	0.004547
2053.000000	0.004619
2052.000000	0.004665
2051.000000	0.004675
2050.000000	0.004674
2049.000000	0.004690
2048.000000	0.004719
2047.000000	0.004742
2046.000000	0.004758
2045.000000	0.004766
2044.000000	0.004747
2043.000000	0.004683
2042.000000	0.004597
2041.000000	0.004547
2040.000000	0.004572
2039.000000	0.004663
2038.000000	0.004766
2037.000000	0.004795
2036.000000	0.004683
2035.000000	0.004458
2034.000000	0.004258
2033.000000	0.004208
2032.000000	0.004282
2031.000000	0.004343
2030.000000	0.004301
2029.000000	0.004188
2028.000000	0.004084
2027.000000	0.004043
2026.000000	0.004088
2025.000000	0.004200
2024.000000	0.004292
2023.000000	0.004259
2022.000000	0.004104
2021.000000	0.003984
2020.000000	0.004066
2019.000000	0.004332
2018.000000	0.004584
2017.000000	0.004636
2016.000000	0.004501
2015.000000	0.004343
2014.000000	0.004264
2013.000000	0.004219
2012.000000	0.004122
2011.000000	0.003999
2010.000000	0.003954
2009.000000	0.004020
2008.000000	0.004106
2007.000000	0.004118
2006.000000	0.004074
2005.000000	0.004031
2004.000000	0.003996
2003.000000	0.003948
2002.000000	0.003910
2001.000000	0.003927
2000.000000	0.003993
1999.000000	0.004055
1998.000000	0.004102
1997.000000	0.004177
1996.000000	0.004296
1995.000000	0.004419
1994.000000	0.004494
1993.000000	0.004524
1992.000000	0.004532
1991.000000	0.004520
1990.000000	0.004461
1989.000000	0.004368
1988.000000	0.004310
1987.000000	0.004348
1986.000000	0.004455
1985.000000	0.004522
1984.000000	0.004461
1983.000000	0.004296
1982.000000	0.004139
1981.000000	0.004083
1980.000000	0.004152
1979.000000	0.004335
1978.000000	0.004599
1977.000000	0.004827
1976.000000	0.004864
1975.000000	0.004668
1974.000000	0.004384
1973.000000	0.004192
1972.000000	0.004138
1971.000000	0.004136
1970.000000	0.004100
1969.000000	0.004007
1968.000000	0.003888
1967.000000	0.003809
1966.000000	0.003847
1965.000000	0.004018
1964.000000	0.004227
1963.000000	0.004353
1962.000000	0.004356
1961.000000	0.004298
1960.000000	0.004259
1959.000000	0.004271
1958.000000	0.004309
1957.000000	0.004324
1956.000000	0.004290
1955.000000	0.004248
1954.000000	0.004277
1953.000000	0.004389
1952.000000	0.004477
1951.000000	0.004434
1950.000000	0.004287
1949.000000	0.004177
1948.000000	0.004187
1947.000000	0.004278
1946.000000	0.004372
1945.000000	0.004439
1944.000000	0.004486
1943.000000	0.004504
1942.000000	0.004487
1941.000000	0.004468
1940.000000	0.004488
1939.000000	0.004541
1938.000000	0.004578
1937.000000	0.004561
1936.000000	0.004499
1935.000000	0.004436
1934.000000	0.004404
1933.000000	0.004404
1932.000000	0.004422
1931.000000	0.004446
1930.000000	0.004469
1929.000000	0.004467
1928.000000	0.004415
1927.000000	0.004326
1926.000000	0.004258
1925.000000	0.004258
1924.000000	0.004305
1923.000000	0.004341
1922.000000	0.004339
1921.000000	0.004334
1920.000000	0.004357
1919.000000	0.004398
1918.000000	0.004423
1917.000000	0.004437
1916.000000	0.004475
1915.000000	0.004546
1914.000000	0.004615
1913.000000	0.004637
1912.000000	0.004595
1911.000000	0.004517
1910.000000	0.004453
1909.000000	0.004441
1908.000000	0.004472
1907.000000	0.004499
1906.000000	0.004471
1905.000000	0.004386
1904.000000	0.004296
1903.000000	0.004253
1902.000000	0.004268
1901.000000	0.004312
1900.000000	0.004356
1899.000000	0.004398
1898.000000	0.004440
1897.000000	0.004469
1896.000000	0.004463
1895.000000	0.004418
1894.000000	0.004356
1893.000000	0.004312
1892.000000	0.004299
1891.000000	0.004313
1890.000000	0.004332
1889.000000	0.004331
1888.000000	0.004307
1887.000000	0.004277
1886.000000	0.004262
1885.000000	0.004264
1884.000000	0.004266
1883.000000	0.004248
1882.000000	0.004211
1881.000000	0.004182
1880.000000	0.004184
1879.000000	0.004219
1878.000000	0.004270
1877.000000	0.004309
1876.000000	0.004317
1875.000000	0.004294
1874.000000	0.004255
1873.000000	0.004220
1872.000000	0.004198
1871.000000	0.004184
1870.000000	0.004163
1869.000000	0.004126
1868.000000	0.004094
1867.000000	0.004095
1866.000000	0.004127
1865.000000	0.004162
1864.000000	0.004179
1863.000000	0.004180
1862.000000	0.004179
1861.000000	0.004186
1860.000000	0.004202
1859.000000	0.004226
1858.000000	0.004257
1857.000000	0.004293
1856.000000	0.004329
1855.000000	0.004360
1854.000000	0.004372
1853.000000	0.004352
1852.000000	0.004299
1851.000000	0.004237
1850.000000	0.004192
1849.000000	0.004161
1848.000000	0.004121
1847.000000	0.004070
1846.000000	0.004037
1845.000000	0.004049
1844.000000	0.004103
1843.000000	0.004180
1842.000000	0.004252
1841.000000	0.004296
1840.000000	0.004300
1839.000000	0.004270
1838.000000	0.004231
1837.000000	0.004216
1836.000000	0.004230
1835.000000	0.004243
1834.000000	0.004228
1833.000000	0.004179
1832.000000	0.004107
1831.000000	0.004037
1830.000000	0.003992
1829.000000	0.003986
1828.000000	0.004019
1827.000000	0.004079
1826.000000	0.004157
1825.000000	0.004229
1824.000000	0.004270
1823.000000	0.004278
1822.000000	0.004263
1821.000000	0.004233
1820.000000	0.004200
1819.000000	0.004188
1818.000000	0.004215
1817.000000	0.004264
1816.000000	0.004303
1815.000000	0.004319
1814.000000	0.004322
1813.000000	0.004312
1812.000000	0.004289
1811.000000	0.004267
1810.000000	0.004267
1809.000000	0.004287
1808.000000	0.004301
1807.000000	0.004295
1806.000000	0.004279
1805.000000	0.004265
1804.000000	0.004261
1803.000000	0.004262
1802.000000	0.004266
1801.000000	0.004257
1800.000000	0.004240
1799.000000	0.004237
1798.000000	0.004252
1797.000000	0.004250
1796.000000	0.004196
1795.000000	0.004112
1794.000000	0.004059
1793.000000	0.004065
1792.000000	0.004109
1791.000000	0.004165
1790.000000	0.004228
1789.000000	0.004281
1788.000000	0.004306
1787.000000	0.004300
1786.000000	0.004282
1785.000000	0.004265
1784.000000	0.004235
1783.000000	0.004180
1782.000000	0.004133
1781.000000	0.004121
1780.000000	0.004141
1779.000000	0.004170
1778.000000	0.004190
1777.000000	0.004176
1776.000000	0.004105
1775.000000	0.003996
1774.000000	0.003902
1773.000000	0.003854
1772.000000	0.003825
1771.000000	0.003805
1770.000000	0.003837
1769.000000	0.003939
1768.000000	0.004064
1767.000000	0.004129
1766.000000	0.004117
1765.000000	0.004066
1764.000000	0.004015
1763.000000	0.003974
1762.000000	0.003956
1761.000000	0.003975
1760.000000	0.004006
1759.000000	0.004014
1758.000000	0.004012
1757.000000	0.004034
1756.000000	0.004073
1755.000000	0.004113
1754.000000	0.004167
1753.000000	0.004265
1752.000000	0.004372
1751.000000	0.004415
1750.000000	0.004385
1749.000000	0.004357
1748.000000	0.004369
1747.000000	0.004404
1746.000000	0.004454
1745.000000	0.004510
1744.000000	0.004537
1743.000000	0.004491
1742.000000	0.004386
1741.000000	0.004297
1740.000000	0.004259
1739.000000	0.004226
1738.000000	0.004158
1737.000000	0.004086
1736.000000	0.004062
1735.000000	0.004076
1734.000000	0.004080
1733.000000	0.004086
1732.000000	0.004081
1731.000000	0.004038
1730.000000	0.003997
1729.000000	0.003997
1728.000000	0.004021
1727.000000	0.004033
1726.000000	0.004032
1725.000000	0.004037
1724.000000	0.004050
1723.000000	0.004028
1722.000000	0.003937
1721.000000	0.003813
1720.000000	0.003745
1719.000000	0.003795
1718.000000	0.003932
1717.000000	0.004062
1716.000000	0.004138
1715.000000	0.004189
1714.000000	0.004281
1713.000000	0.004453
1712.000000	0.004676
1711.000000	0.004887
1710.000000	0.005060
1709.000000	0.005205
1708.000000	0.005339
1707.000000	0.005498
1706.000000	0.005708
1705.000000	0.005942
1704.000000	0.006145
1703.000000	0.006328
1702.000000	0.006594
1701.000000	0.007021
1700.000000	0.007540
1699.000000	0.008034
1698.000000	0.008501
1697.000000	0.009043
1696.000000	0.009663
1695.000000	0.010213
1694.000000	0.010607
1693.000000	0.010900
1692.000000	0.011218
1691.000000	0.011597
1690.000000	0.011994
1689.000000	0.012375
1688.000000	0.012738
1687.000000	0.013115
1686.000000	0.013541
1685.000000	0.014028
1684.000000	0.014514
1683.000000	0.014958
1682.000000	0.015436
1681.000000	0.016004
1680.000000	0.016623
1679.000000	0.017183
1678.000000	0.017661
1677.000000	0.018169
1676.000000	0.018800
1675.000000	0.019501
1674.000000	0.020166
1673.000000	0.020772
1672.000000	0.021365
1671.000000	0.021980
1670.000000	0.022628
1669.000000	0.023336
1668.000000	0.024087
1667.000000	0.024789
1666.000000	0.025399
1665.000000	0.025978
1664.000000	0.026595
1663.000000	0.027228
1662.000000	0.027834
1661.000000	0.028423
1660.000000	0.028997
1659.000000	0.029508
1658.000000	0.029890
1657.000000	0.030152
1656.000000	0.030394
1655.000000	0.030720
1654.000000	0.031109
1653.000000	0.031475
1652.000000	0.031871
1651.000000	0.032166
1650.000000	0.032271
1649.000000	0.032388
1648.000000	0.032614
1647.000000	0.032869
1646.000000	0.033109
1645.000000	0.033395
1644.000000	0.033699
1643.000000	0.033954
1642.000000	0.034154
1641.000000	0.034302
1640.000000	0.034400
1639.000000	0.034468
1638.000000	0.034534
1637.000000	0.034595
1636.000000	0.034600
1635.000000	0.034586
1634.000000	0.034649
1633.000000	0.034765
1632.000000	0.034864
1631.000000	0.034889
1630.000000	0.034795
1629.000000	0.034575
1628.000000	0.034272
1627.000000	0.033926
1626.000000	0.033548
1625.000000	0.033117
1624.000000	0.032607
1623.000000	0.032030
1622.000000	0.031461
1621.000000	0.030954
1620.000000	0.030492
1619.000000	0.030024
1618.000000	0.029461
1617.000000	0.028740
1616.000000	0.027957
1615.000000	0.027262
1614.000000	0.026673
1613.000000	0.026137
1612.000000	0.025597
1611.000000	0.025012
1610.000000	0.024396
1609.000000	0.023793
1608.000000	0.023240
1607.000000	0.022745
1606.000000	0.022308
1605.000000	0.021908
1604.000000	0.021515
1603.000000	0.021123
1602.000000	0.020749
1601.000000	0.020413
1600.000000	0.020123
1599.000000	0.019871
1598.000000	0.019648
1597.000000	0.019445
1596.000000	0.019268
1595.000000	0.019128
1594.000000	0.019025
1593.000000	0.018943
1592.000000	0.018874
1591.000000	0.018829
1590.000000	0.018822
1589.000000	0.018846
1588.000000	0.018891
1587.000000	0.018958
1586.000000	0.019052
1585.000000	0.019171
1584.000000	0.019302
1583.000000	0.019446
1582.000000	0.019606
1581.000000	0.019759
1580.000000	0.019887
1579.000000	0.020033
1578.000000	0.020261
1577.000000	0.020571
1576.000000	0.020897
1575.000000	0.021177
1574.000000	0.021398
1573.000000	0.021593
1572.000000	0.021820
1571.000000	0.022100
1570.000000	0.022437
1569.000000	0.022836
1568.000000	0.023277
1567.000000	0.023724
1566.000000	0.024159
1565.000000	0.024584
1564.000000	0.024965
1563.000000	0.025288
1562.000000	0.025585
1561.000000	0.025901
1560.000000	0.026246
1559.000000	0.026557
1558.000000	0.026862
1557.000000	0.027335
1556.000000	0.027871
1555.000000	0.028385
1554.000000	0.028840
1553.000000	0.029216
1552.000000	0.029529
1551.000000	0.029812
1550.000000	0.030058
1549.000000	0.030258
1548.000000	0.030431
1547.000000	0.030591
1546.000000	0.030725
1545.000000	0.030798
1544.000000	0.030805
1543.000000	0.030801
1542.000000	0.030838
1541.000000	0.030891
1540.000000	0.030883
1539.000000	0.030862
1538.000000	0.030890
1537.000000	0.030886
1536.000000	0.030835
1535.000000	0.030743
1534.000000	0.030579
1533.000000	0.030367
1532.000000	0.030230
1531.000000	0.030188
1530.000000	0.030143
1529.000000	0.030019
1528.000000	0.029819
1527.000000	0.029579
1526.000000	0.029316
1525.000000	0.029042
1524.000000	0.028786
1523.000000	0.028560
1522.000000	0.028311
1521.000000	0.027997
1520.000000	0.027682
1519.000000	0.027413
1518.000000	0.027178
1517.000000	0.026945
1516.000000	0.026706
1515.000000	0.026492
1514.000000	0.026300
1513.000000	0.026067
1512.000000	0.025741
1511.000000	0.025336
1510.000000	0.024929
1509.000000	0.024562
1508.000000	0.024159
1507.000000	0.023575
1506.000000	0.022950
1505.000000	0.022589
1504.000000	0.022376
1503.000000	0.022135
1502.000000	0.021837
1501.000000	0.021472
1500.000000	0.021036
1499.000000	0.020569
1498.000000	0.020118
1497.000000	0.019694
1496.000000	0.019297
1495.000000	0.018927
1494.000000	0.018574
1493.000000	0.018228
1492.000000	0.017873
1491.000000	0.017480
1490.000000	0.017057
1489.000000	0.016678
1488.000000	0.016417
1487.000000	0.016268
1486.000000	0.016176
1485.000000	0.016120
1484.000000	0.016086
1483.000000	0.016063
1482.000000	0.016038
1481.000000	0.016018
1480.000000	0.016016
1479.000000	0.016036
1478.000000	0.016069
1477.000000	0.016115
1476.000000	0.016198
1475.000000	0.016346
1474.000000	0.016581
1473.000000	0.016884
1472.000000	0.017210
1471.000000	0.017537
1470.000000	0.017853
1469.000000	0.018136
1468.000000	0.018375
1467.000000	0.018570
1466.000000	0.018759
1465.000000	0.018979
1464.000000	0.019234
1463.000000	0.019496
1462.000000	0.019722
1461.000000	0.019899
1460.000000	0.020054
1459.000000	0.020253
1458.000000	0.020551
1457.000000	0.020941
1456.000000	0.021341
1455.000000	0.021653
1454.000000	0.021856
1453.000000	0.022015
1452.000000	0.022152
1451.000000	0.022247
1450.000000	0.022304
1449.000000	0.022331
1448.000000	0.022317
1447.000000	0.022266
1446.000000	0.022228
1445.000000	0.022217
1444.000000	0.022193
1443.000000	0.022126
1442.000000	0.022015
1441.000000	0.021871
1440.000000	0.021694
1439.000000	0.021483
1438.000000	0.021241
1437.000000	0.020976
1436.000000	0.020726
1435.000000	0.020538
1434.000000	0.020395
1433.000000	0.020246
1432.000000	0.020055
1431.000000	0.019822
1430.000000	0.019595
1429.000000	0.019418
1428.000000	0.019292
1427.000000	0.019183
1426.000000	0.019084
1425.000000	0.018998
1424.000000	0.018912
1423.000000	0.018826
1422.000000	0.018767
1421.000000	0.018755
1420.000000	0.018756
1419.000000	0.018729
1418.000000	0.018697
1417.000000	0.018707
1416.000000	0.018756
1415.000000	0.018818
1414.000000	0.018878
1413.000000	0.018938
1412.000000	0.019006
1411.000000	0.019089
1410.000000	0.019187
1409.000000	0.019298
1408.000000	0.019409
1407.000000	0.019506
1406.000000	0.019602
1405.000000	0.019713
1404.000000	0.019825
1403.000000	0.019910
1402.000000	0.019961
1401.000000	0.019990
1400.000000	0.019997
1399.000000	0.019978
1398.000000	0.019948
1397.000000	0.019926
1396.000000	0.019889
1395.000000	0.019808
1394.000000	0.019710
1393.000000	0.019653
1392.000000	0.019631
1391.000000	0.019599
1390.000000	0.019537
1389.000000	0.019447
1388.000000	0.019331
1387.000000	0.019189
1386.000000	0.019040
1385.000000	0.018912
1384.000000	0.018807
1383.000000	0.018705
1382.000000	0.018594
1381.000000	0.018478
1380.000000	0.018359
1379.000000	0.018218
1378.000000	0.018043
1377.000000	0.017839
1376.000000	0.017620
1375.000000	0.017393
1374.000000	0.017169
1373.000000	0.016971
1372.000000	0.016809
1371.000000	0.016658
1370.000000	0.016486
1369.000000	0.016281
1368.000000	0.016051
1367.000000	0.015813
1366.000000	0.015584
1365.000000	0.015375
1364.000000	0.015180
1363.000000	0.014992
1362.000000	0.014814
1361.000000	0.014672
1360.000000	0.014579
1359.000000	0.014523
1358.000000	0.014484
1357.000000	0.014459
1356.000000	0.014452
1355.000000	0.014470
1354.000000	0.014511
1353.000000	0.014573
1352.000000	0.014654
1351.000000	0.014751
1350.000000	0.014863
1349.000000	0.014997
1348.000000	0.015159
1347.000000	0.015346
1346.000000	0.015540
1345.000000	0.015724
1344.000000	0.015896
1343.000000	0.016064
1342.000000	0.016238
1341.000000	0.016411
1340.000000	0.016562
1339.000000	0.016669
1338.000000	0.016735
1337.000000	0.016771
1336.000000	0.016779
1335.000000	0.016751
1334.000000	0.016687
1333.000000	0.016597
1332.000000	0.016487
1331.000000	0.016357
1330.000000	0.016213
1329.000000	0.016065
1328.000000	0.015923
1327.000000	0.015788
1326.000000	0.015671
1325.000000	0.015586
1324.000000	0.015532
1323.000000	0.015493
1322.000000	0.015455
1321.000000	0.015415
1320.000000	0.015377
1319.000000	0.015335
1318.000000	0.015288
1317.000000	0.015242
1316.000000	0.015201
1315.000000	0.015159
1314.000000	0.015108
1313.000000	0.015047
1312.000000	0.014972
1311.000000	0.014872
1310.000000	0.014749
1309.000000	0.014624
1308.000000	0.014521
1307.000000	0.014444
1306.000000	0.014377
1305.000000	0.014310
1304.000000	0.014240
1303.000000	0.014165
1302.000000	0.014085
1301.000000	0.014004
1300.000000	0.013933
1299.000000	0.013874
1298.000000	0.013824
1297.000000	0.013785
1296.000000	0.013767
1295.000000	0.013773
1294.000000	0.013800
1293.000000	0.013841
1292.000000	0.013893
1291.000000	0.013960
1290.000000	0.014044
1289.000000	0.014151
1288.000000	0.014279
1287.000000	0.014417
1286.000000	0.014551
1285.000000	0.014676
1284.000000	0.014796
1283.000000	0.014915
1282.000000	0.015021
1281.000000	0.015095
1280.000000	0.015125
1279.000000	0.015117
1278.000000	0.015089
1277.000000	0.015056
1276.000000	0.015018
1275.000000	0.014975
1274.000000	0.014936
1273.000000	0.014916
1272.000000	0.014918
1271.000000	0.014933
1270.000000	0.014959
1269.000000	0.015000
1268.000000	0.015059
1267.000000	0.015130
1266.000000	0.015209
1265.000000	0.015294
1264.000000	0.015384
1263.000000	0.015472
1262.000000	0.015557
1261.000000	0.015648
1260.000000	0.015746
1259.000000	0.015846
1258.000000	0.015949
1257.000000	0.016070
1256.000000	0.016225
1255.000000	0.016411
1254.000000	0.016617
1253.000000	0.016829
1252.000000	0.017041
1251.000000	0.017249
1250.000000	0.017457
1249.000000	0.017673
1248.000000	0.017900
1247.000000	0.018133
1246.000000	0.018369
1245.000000	0.018605
1244.000000	0.018836
1243.000000	0.019052
1242.000000	0.019255
1241.000000	0.019451
1240.000000	0.019637
1239.000000	0.019792
1238.000000	0.019904
1237.000000	0.019976
1236.000000	0.020015
1235.000000	0.020019
1234.000000	0.019991
1233.000000	0.019944
1232.000000	0.019876
1231.000000	0.019767
1230.000000	0.019599
1229.000000	0.019373
1228.000000	0.019112
1227.000000	0.018837
1226.000000	0.018553
1225.000000	0.018257
1224.000000	0.017940
1223.000000	0.017601
1222.000000	0.017251
1221.000000	0.016905
1220.000000	0.016571
1219.000000	0.016259
1218.000000	0.015984
1217.000000	0.015764
1216.000000	0.015607
1215.000000	0.015500
1214.000000	0.015429
1213.000000	0.015391
1212.000000	0.015389
1211.000000	0.015417
1210.000000	0.015468
1209.000000	0.015538
1208.000000	0.015622
1207.000000	0.015708
1206.000000	0.015776
1205.000000	0.015819
1204.000000	0.015837
1203.000000	0.015834
1202.000000	0.015805
1201.000000	0.015738
1200.000000	0.015622
1199.000000	0.015458
1198.000000	0.015264
1197.000000	0.015065
1196.000000	0.014872
1195.000000	0.014675
1194.000000	0.014462
1193.000000	0.014230
1192.000000	0.013991
1191.000000	0.013754
1190.000000	0.013527
1189.000000	0.013315
1188.000000	0.013117
1187.000000	0.012926
1186.000000	0.012731
1185.000000	0.012531
1184.000000	0.012337
1183.000000	0.012174
1182.000000	0.012059
1181.000000	0.011985
1180.000000	0.011931
1179.000000	0.011875
1178.000000	0.011822
1177.000000	0.011788
1176.000000	0.011778
1175.000000	0.011776
1174.000000	0.011760
1173.000000	0.011728
1172.000000	0.011699
1171.000000	0.011689
1170.000000	0.011697
1169.000000	0.011715
1168.000000	0.011740
1167.000000	0.011783
1166.000000	0.011845
1165.000000	0.011915
1164.000000	0.011978
1163.000000	0.012028
1162.000000	0.012071
1161.000000	0.012104
1160.000000	0.012109
1159.000000	0.012064
1158.000000	0.011968
1157.000000	0.011844
1156.000000	0.011721
1155.000000	0.011614
1154.000000	0.011515
1153.000000	0.011407
1152.000000	0.011274
1151.000000	0.011118
1150.000000	0.010959
1149.000000	0.010821
1148.000000	0.010714
1147.000000	0.010622
1146.000000	0.010521
1145.000000	0.010401
1144.000000	0.010266
1143.000000	0.010133
1142.000000	0.010019
1141.000000	0.009932
1140.000000	0.009863
1139.000000	0.009795
1138.000000	0.009720
1137.000000	0.009643
1136.000000	0.009578
1135.000000	0.009525
1134.000000	0.009476
1133.000000	0.009431
1132.000000	0.009398
1131.000000	0.009377
1130.000000	0.009358
1129.000000	0.009336
1128.000000	0.009321
1127.000000	0.009329
1126.000000	0.009353
1125.000000	0.009364
1124.000000	0.009348
1123.000000	0.009315
1122.000000	0.009288
1121.000000	0.009279
1120.000000	0.009286
1119.000000	0.009310
1118.000000	0.009353
1117.000000	0.009400
1116.000000	0.009426
1115.000000	0.009423
1114.000000	0.009415
1113.000000	0.009437
1112.000000	0.009493
1111.000000	0.009554
1110.000000	0.009592
1109.000000	0.009612
1108.000000	0.009641
1107.000000	0.009696
1106.000000	0.009765
1105.000000	0.009823
1104.000000	0.009863
1103.000000	0.009896
1102.000000	0.009934
1101.000000	0.009977
1100.000000	0.010015
1099.000000	0.010045
1098.000000	0.010072
1097.000000	0.010103
1096.000000	0.010142
1095.000000	0.010193
1094.000000	0.010268
1093.000000	0.010384
1092.000000	0.010541
1091.000000	0.010722
1090.000000	0.010903
1089.000000	0.011071
1088.000000	0.011232
1087.000000	0.011406
1086.000000	0.011610
1085.000000	0.011841
1084.000000	0.012067
1083.000000	0.012249
1082.000000	0.012360
1081.000000	0.012399
1080.000000	0.012377
1079.000000	0.012310
1078.000000	0.012213
1077.000000	0.012101
1076.000000	0.011972
1075.000000	0.011822
1074.000000	0.011655
1073.000000	0.011494
1072.000000	0.011357
1071.000000	0.011245
1070.000000	0.011156
1069.000000	0.011094
1068.000000	0.011066
1067.000000	0.011062
1066.000000	0.011069
1065.000000	0.011077
1064.000000	0.011091
1063.000000	0.011115
1062.000000	0.011142
1061.000000	0.011158
1060.000000	0.011150
1059.000000	0.011115
1058.000000	0.011060
1057.000000	0.011002
1056.000000	0.010953
1055.000000	0.010905
1054.000000	0.010838
1053.000000	0.010741
1052.000000	0.010630
1051.000000	0.010539
1050.000000	0.010483
1049.000000	0.010455
1048.000000	0.010437
1047.000000	0.010425
1046.000000	0.010425
1045.000000	0.010433
1044.000000	0.010435
1043.000000	0.010422
1042.000000	0.010399
1041.000000	0.010388
1040.000000	0.010412
1039.000000	0.010489
1038.000000	0.010622
1037.000000	0.010792
1036.000000	0.010964
1035.000000	0.011105
1034.000000	0.011212
1033.000000	0.011300
1032.000000	0.011379
1031.000000	0.011434
1030.000000	0.011446
1029.000000	0.011411
1028.000000	0.011344
1027.000000	0.011254
1026.000000	0.011139
1025.000000	0.011001
1024.000000	0.010853
1023.000000	0.010715
1022.000000	0.010600
1021.000000	0.010505
1020.000000	0.010420
1019.000000	0.010341
1018.000000	0.010264
1017.000000	0.010185
1016.000000	0.010103
1015.000000	0.010017
1014.000000	0.009923
1013.000000	0.009808
1012.000000	0.009666
1011.000000	0.009508
1010.000000	0.009353
1009.000000	0.009210
1008.000000	0.009072
1007.000000	0.008927
1006.000000	0.008780
1005.000000	0.008646
1004.000000	0.008535
1003.000000	0.008439
1002.000000	0.008338
1001.000000	0.008214
1000.000000	0.008065
999.000000	0.007908
998.000000	0.007766
997.000000	0.007651
996.000000	0.007553
995.000000	0.007455
994.000000	0.007347
993.000000	0.007232
992.000000	0.007120
991.000000	0.007023
990.000000	0.006948
989.000000	0.006894
988.000000	0.006861
987.000000	0.006841
986.000000	0.006826
985.000000	0.006799
984.000000	0.006753
983.000000	0.006695
982.000000	0.006649
981.000000	0.006634
980.000000	0.006645
979.000000	0.006661
978.000000	0.006668
977.000000	0.006675
976.000000	0.006697
975.000000	0.006724
974.000000	0.006728
973.000000	0.006697
972.000000	0.006647
971.000000	0.006604
970.000000	0.006569
969.000000	0.006524
968.000000	0.006457
967.000000	0.006377
966.000000	0.006298
965.000000	0.006222
964.000000	0.006143
963.000000	0.006064
962.000000	0.005993
961.000000	0.005929
960.000000	0.005866
959.000000	0.005803
958.000000	0.005742
957.000000	0.005684
956.000000	0.005627
955.000000	0.005572
954.000000	0.005525
953.000000	0.005486
952.000000	0.005448
951.000000	0.005407
950.000000	0.005366
949.000000	0.005332
948.000000	0.005314
947.000000	0.005306
946.000000	0.005298
945.000000	0.005285
944.000000	0.005271
943.000000	0.005271
942.000000	0.005284
941.000000	0.005292
940.000000	0.005285
939.000000	0.005271
938.000000	0.005267
937.000000	0.005265
936.000000	0.005243
935.000000	0.005197
934.000000	0.005149
933.000000	0.005125
932.000000	0.005125
931.000000	0.005128
930.000000	0.005108
929.000000	0.005056
928.000000	0.004987
927.000000	0.004932
926.000000	0.004912
925.000000	0.004906
924.000000	0.004880
923.000000	0.004830
922.000000	0.004788
921.000000	0.004782
920.000000	0.004788
919.000000	0.004765
918.000000	0.004703
917.000000	0.004635
916.000000	0.004591
915.000000	0.004569
914.000000	0.004544
913.000000	0.004492
912.000000	0.004408
911.000000	0.004305
910.000000	0.004213
909.000000	0.004157
908.000000	0.004141
907.000000	0.004156
906.000000	0.004185
905.000000	0.004217
904.000000	0.004239
903.000000	0.004241
902.000000	0.004222
901.000000	0.004185
900.000000	0.004132
899.000000	0.004073
898.000000	0.004021
897.000000	0.003986
896.000000	0.003962
895.000000	0.003936
894.000000	0.003904
893.000000	0.003876
892.000000	0.003863
891.000000	0.003870
890.000000	0.003900
889.000000	0.003943
888.000000	0.003976
887.000000	0.003986
886.000000	0.003993
885.000000	0.004033
884.000000	0.004114
883.000000	0.004213
882.000000	0.004311
881.000000	0.004420
880.000000	0.004560
879.000000	0.004728
878.000000	0.004901
877.000000	0.005057
876.000000	0.005176
875.000000	0.005232
874.000000	0.005210
873.000000	0.005117
872.000000	0.004981
871.000000	0.004826
870.000000	0.004664
869.000000	0.004508
868.000000	0.004372
867.000000	0.004262
866.000000	0.004187
865.000000	0.004154
864.000000	0.004162
863.000000	0.004184
862.000000	0.004195
861.000000	0.004192
860.000000	0.004193
859.000000	0.004203
858.000000	0.004202
857.000000	0.004174
856.000000	0.004133
855.000000	0.004117
854.000000	0.004154
853.000000	0.004238
852.000000	0.004341
851.000000	0.004427
850.000000	0.004474
849.000000	0.004474
848.000000	0.004435
847.000000	0.004373
846.000000	0.004307
845.000000	0.004244
844.000000	0.004179
843.000000	0.004109
842.000000	0.004047
841.000000	0.004016
840.000000	0.004023
839.000000	0.004048
838.000000	0.004070
837.000000	0.004083
836.000000	0.004090
835.000000	0.004080
834.000000	0.004037
833.000000	0.003964
832.000000	0.003892
831.000000	0.003855
830.000000	0.003858
829.000000	0.003879
828.000000	0.003890
827.000000	0.003881
826.000000	0.003865
825.000000	0.003865
824.000000	0.003890
823.000000	0.003927
822.000000	0.003959
821.000000	0.003985
820.000000	0.004018
819.000000	0.004064
818.000000	0.004120
817.000000	0.004169
816.000000	0.004187
815.000000	0.004161
814.000000	0.004106
813.000000	0.004061
812.000000	0.004057
811.000000	0.004085
810.000000	0.004107
809.000000	0.004095
808.000000	0.004055
807.000000	0.004017
806.000000	0.003996
805.000000	0.003981
804.000000	0.003956
803.000000	0.003919
802.000000	0.003881
801.000000	0.003859
800.000000	0.003860
799.000000	0.003892
798.000000	0.003953
797.000000	0.004027
796.000000	0.004080
795.000000	0.004085
794.000000	0.004043
793.000000	0.003986
792.000000	0.003938
791.000000	0.003908
790.000000	0.003905
789.000000	0.003939
788.000000	0.004011
787.000000	0.004095
786.000000	0.004160
785.000000	0.004200
784.000000	0.004227
783.000000	0.004252
782.000000	0.004274
781.000000	0.004293
780.000000	0.004322
779.000000	0.004368
778.000000	0.004425
777.000000	0.004473
776.000000	0.004495
775.000000	0.004485
774.000000	0.004447
773.000000	0.004389
772.000000	0.004330
771.000000	0.004296
770.000000	0.004309
769.000000	0.004370
768.000000	0.004448
767.000000	0.004511
766.000000	0.004551
765.000000	0.004580
764.000000	0.004602
763.000000	0.004609
762.000000	0.004597
761.000000	0.004589
760.000000	0.004610
759.000000	0.004661
758.000000	0.004710
757.000000	0.004727
756.000000	0.004717
755.000000	0.004713
754.000000	0.004740
753.000000	0.004783
752.000000	0.004800
751.000000	0.004774
750.000000	0.004734
749.000000	0.004723
748.000000	0.004746
747.000000	0.004779
746.000000	0.004807
745.000000	0.004851
744.000000	0.004931
743.000000	0.005042
742.000000	0.005159
741.000000	0.005262
740.000000	0.005336
739.000000	0.005366
738.000000	0.005349
737.000000	0.005310
736.000000	0.005281
735.000000	0.005280
734.000000	0.005302
733.000000	0.005345
732.000000	0.005419
731.000000	0.005524
730.000000	0.005640
729.000000	0.005739
728.000000	0.005822
727.000000	0.005919
726.000000	0.006058
725.000000	0.006223
724.000000	0.006366
723.000000	0.006456
722.000000	0.006509
721.000000	0.006569
720.000000	0.006650
719.000000	0.006734
718.000000	0.006800
717.000000	0.006847
716.000000	0.006884
715.000000	0.006918
714.000000	0.006956
713.000000	0.006994
712.000000	0.007002
711.000000	0.006955
710.000000	0.006878
709.000000	0.006852
708.000000	0.006943
707.000000	0.007146
706.000000	0.007396
705.000000	0.007625
704.000000	0.007793
703.000000	0.007898
702.000000	0.007964
701.000000	0.008013
700.000000	0.008043
699.000000	0.008025
698.000000	0.007939
697.000000	0.007816
696.000000	0.007709
695.000000	0.007653
694.000000	0.007641
693.000000	0.007655
692.000000	0.007694
691.000000	0.007769
690.000000	0.007879
689.000000	0.008001
688.000000	0.008099
687.000000	0.008158
686.000000	0.008197
685.000000	0.008243
684.000000	0.008308
683.000000	0.008373
682.000000	0.008413
681.000000	0.008415
680.000000	0.008388
679.000000	0.008365
678.000000	0.008380
677.000000	0.008457
676.000000	0.008584
675.000000	0.008710
674.000000	0.008785
673.000000	0.008795
672.000000	0.008741
671.000000	0.008604
670.000000	0.008374
669.000000	0.008106
668.000000	0.007952
667.000000	0.008091
666.000000	0.008443
665.000000	0.008831
664.000000	0.009163
663.000000	0.009407
662.000000	0.009574
661.000000	0.009691
660.000000	0.009764
659.000000	0.009767
658.000000	0.009696
657.000000	0.009605
656.000000	0.009547
655.000000	0.009509
654.000000	0.009465
653.000000	0.009436
652.000000	0.009444
651.000000	0.009469
650.000000	0.009470
649.000000	0.009446
648.000000	0.009422
647.000000	0.009405
646.000000	0.009396
645.000000	0.009403
644.000000	0.009428
643.000000	0.009443
642.000000	0.009419
641.000000	0.009344
640.000000	0.009230
639.000000	0.009115
638.000000	0.009066
637.000000	0.009126
636.000000	0.009255
635.000000	0.009362
634.000000	0.009405
633.000000	0.009434
632.000000	0.009494
631.000000	0.009565
630.000000	0.009601
629.000000	0.009608
628.000000	0.009633
627.000000	0.009699
626.000000	0.009782
625.000000	0.009837
624.000000	0.009825
623.000000	0.009748
622.000000	0.009653
621.000000	0.009589
620.000000	0.009559
619.000000	0.009542
618.000000	0.009543
617.000000	0.009597
616.000000	0.009703
615.000000	0.009819
614.000000	0.009910
613.000000	0.009964
612.000000	0.009946
611.000000	0.009820
610.000000	0.009624
609.000000	0.009461
608.000000	0.009401
607.000000	0.009430
606.000000	0.009525
605.000000	0.009689
604.000000	0.009889
603.000000	0.010030
602.000000	0.010040
601.000000	0.009949
600.000000	0.009832
599.000000	0.009737
598.000000	0.009691
597.000000	0.009715
596.000000	0.009784
595.000000	0.009818
594.000000	0.009769
593.000000	0.009674
592.000000	0.009585
591.000000	0.009498
590.000000	0.009397
589.000000	0.009311
588.000000	0.009269
587.000000	0.009251
586.000000	0.009235
585.000000	0.009241
584.000000	0.009294
583.000000	0.009381
582.000000	0.009481
581.000000	0.009608
580.000000	0.009752
579.000000	0.009850
578.000000	0.009848
577.000000	0.009766
576.000000	0.009658
575.000000	0.009573
574.000000	0.009583
573.000000	0.009763
572.000000	0.010080
571.000000	0.010384
570.000000	0.010566
569.000000	0.010662
568.000000	0.010742
567.000000	0.010780
566.000000	0.010745
565.000000	0.010711
564.000000	0.010763
563.000000	0.010854
562.000000	0.010875
561.000000	0.010816
560.000000	0.010767
559.000000	0.010783
558.000000	0.010851
557.000000	0.010947
556.000000	0.011046
555.000000	0.011120
554.000000	0.011177
553.000000	0.011260
552.000000	0.011346
551.000000	0.011318
550.000000	0.011118
549.000000	0.010841
548.000000	0.010604
547.000000	0.010411
546.000000	0.010248
545.000000	0.010184
544.000000	0.010270
543.000000	0.010416
542.000000	0.010510
541.000000	0.010590
540.000000	0.010760
539.000000	0.010987
538.000000	0.011133
537.000000	0.011148
536.000000	0.011098
535.000000	0.011029
534.000000	0.010941
533.000000	0.010860
532.000000	0.010841
531.000000	0.010884
530.000000	0.010954
529.000000	0.011047
528.000000	0.011164
527.000000	0.011242
526.000000	0.011228
525.000000	0.011166
524.000000	0.011120
523.000000	0.011063
522.000000	0.010958
521.000000	0.010859
520.000000	0.010802
519.000000	0.010680
518.000000	0.010378
517.000000	0.009981
516.000000	0.009687
515.000000	0.009553
514.000000	0.009487
513.000000	0.009446
512.000000	0.009466
511.000000	0.009538
510.000000	0.009575
509.000000	0.009517
508.000000	0.009366
507.000000	0.009124
506.000000	0.008834
505.000000	0.008629
504.000000	0.008612
503.000000	0.008708
502.000000	0.008736
501.000000	0.008625
500.000000	0.008447
499.000000	0.008257
498.000000	0.008071
497.000000	0.007948
496.000000	0.007919
495.000000	0.007887
494.000000	0.007742
493.000000	0.007554
492.000000	0.007469
491.000000	0.007433
490.000000	0.007243
489.000000	0.006884
488.000000	0.006605
487.000000	0.006591
486.000000	0.006765
485.000000	0.006973
484.000000	0.007193
483.000000	0.007435
482.000000	0.007610
481.000000	0.007642
480.000000	0.007578
479.000000	0.007481
478.000000	0.007330
477.000000	0.007092
476.000000	0.006802
475.000000	0.006501
474.000000	0.006205
473.000000	0.005960
472.000000	0.005841
471.000000	0.005832
470.000000	0.005834
469.000000	0.005812
468.000000	0.005811
467.000000	0.005843
466.000000	0.005881
465.000000	0.005964
464.000000	0.006200
463.000000	0.006596
462.000000	0.006967
461.000000	0.007079
460.000000	0.006798
459.000000	0.006122
458.000000	0.006102
457.000000	0.005384
456.000000	0.004855
455.000000	0.004442
454.000000	0.003974
453.000000	0.003533
452.000000	0.003408
451.000000	0.003708
450.000000	0.004206
