PE IR       SUBTECH     SPECTRUM    ASCII       PEDS        4.00        
   -1
3C-H10-C034_1.ASC
22/02/24
11:12:00.00
22/02/24
11:18:49.00
uco
Sample 003 By uco Date Thursday, February 24 2022
450.000000
#HDR
-1
-1
#GR
cm-1
A
1.0
0.0
4000.000000
-1.000000
3551
8
0.043358
0.006596
#DATA
4000.000000	0.007057
3999.000000	0.007070
3998.000000	0.007069
3997.000000	0.007069
3996.000000	0.007057
3995.000000	0.007038
3994.000000	0.007021
3993.000000	0.007013
3992.000000	0.007021
3991.000000	0.007042
3990.000000	0.007066
3989.000000	0.007085
3988.000000	0.007094
3987.000000	0.007093
3986.000000	0.007086
3985.000000	0.007077
3984.000000	0.007072
3983.000000	0.007075
3982.000000	0.007089
3981.000000	0.007111
3980.000000	0.007134
3979.000000	0.007154
3978.000000	0.007168
3977.000000	0.007179
3976.000000	0.007183
3975.000000	0.007178
3974.000000	0.007162
3973.000000	0.007138
3972.000000	0.007115
3971.000000	0.007100
3970.000000	0.007097
3969.000000	0.007103
3968.000000	0.007116
3967.000000	0.007134
3966.000000	0.007158
3965.000000	0.007186
3964.000000	0.007215
3963.000000	0.007241
3962.000000	0.007258
3961.000000	0.007258
3960.000000	0.007238
3959.000000	0.007201
3958.000000	0.007158
3957.000000	0.007126
3956.000000	0.007114
3955.000000	0.007121
3954.000000	0.007138
3953.000000	0.007152
3952.000000	0.007161
3951.000000	0.007169
3950.000000	0.007181
3949.000000	0.007194
3948.000000	0.007201
3947.000000	0.007195
3946.000000	0.007174
3945.000000	0.007149
3944.000000	0.007133
3943.000000	0.007136
3942.000000	0.007165
3941.000000	0.007208
3940.000000	0.007247
3939.000000	0.007265
3938.000000	0.007259
3937.000000	0.007240
3936.000000	0.007226
3935.000000	0.007226
3934.000000	0.007239
3933.000000	0.007254
3932.000000	0.007262
3931.000000	0.007266
3930.000000	0.007269
3929.000000	0.007274
3928.000000	0.007276
3927.000000	0.007274
3926.000000	0.007267
3925.000000	0.007256
3924.000000	0.007244
3923.000000	0.007235
3922.000000	0.007228
3921.000000	0.007221
3920.000000	0.007210
3919.000000	0.007196
3918.000000	0.007183
3917.000000	0.007178
3916.000000	0.007187
3915.000000	0.007205
3914.000000	0.007226
3913.000000	0.007239
3912.000000	0.007241
3911.000000	0.007235
3910.000000	0.007230
3909.000000	0.007232
3908.000000	0.007242
3907.000000	0.007257
3906.000000	0.007276
3905.000000	0.007296
3904.000000	0.007313
3903.000000	0.007326
3902.000000	0.007331
3901.000000	0.007328
3900.000000	0.007317
3899.000000	0.007303
3898.000000	0.007294
3897.000000	0.007291
3896.000000	0.007292
3895.000000	0.007291
3894.000000	0.007286
3893.000000	0.007277
3892.000000	0.007268
3891.000000	0.007267
3890.000000	0.007277
3889.000000	0.007293
3888.000000	0.007307
3887.000000	0.007313
3886.000000	0.007303
3885.000000	0.007284
3884.000000	0.007269
3883.000000	0.007259
3882.000000	0.007247
3881.000000	0.007231
3880.000000	0.007216
3879.000000	0.007215
3878.000000	0.007230
3877.000000	0.007251
3876.000000	0.007271
3875.000000	0.007286
3874.000000	0.007301
3873.000000	0.007326
3872.000000	0.007361
3871.000000	0.007392
3870.000000	0.007404
3869.000000	0.007399
3868.000000	0.007396
3867.000000	0.007401
3866.000000	0.007409
3865.000000	0.007402
3864.000000	0.007376
3863.000000	0.007343
3862.000000	0.007318
3861.000000	0.007311
3860.000000	0.007319
3859.000000	0.007330
3858.000000	0.007327
3857.000000	0.007308
3856.000000	0.007278
3855.000000	0.007250
3854.000000	0.007245
3853.000000	0.007275
3852.000000	0.007320
3851.000000	0.007346
3850.000000	0.007348
3849.000000	0.007343
3848.000000	0.007340
3847.000000	0.007340
3846.000000	0.007336
3845.000000	0.007326
3844.000000	0.007317
3843.000000	0.007315
3842.000000	0.007326
3841.000000	0.007349
3840.000000	0.007375
3839.000000	0.007389
3838.000000	0.007378
3837.000000	0.007343
3836.000000	0.007295
3835.000000	0.007256
3834.000000	0.007242
3833.000000	0.007254
3832.000000	0.007275
3831.000000	0.007290
3830.000000	0.007294
3829.000000	0.007285
3828.000000	0.007267
3827.000000	0.007247
3826.000000	0.007234
3825.000000	0.007237
3824.000000	0.007257
3823.000000	0.007285
3822.000000	0.007310
3821.000000	0.007326
3820.000000	0.007345
3819.000000	0.007371
3818.000000	0.007396
3817.000000	0.007405
3816.000000	0.007391
3815.000000	0.007359
3814.000000	0.007322
3813.000000	0.007291
3812.000000	0.007269
3811.000000	0.007260
3810.000000	0.007269
3809.000000	0.007295
3808.000000	0.007330
3807.000000	0.007360
3806.000000	0.007383
3805.000000	0.007403
3804.000000	0.007422
3803.000000	0.007430
3802.000000	0.007409
3801.000000	0.007366
3800.000000	0.007326
3799.000000	0.007299
3798.000000	0.007279
3797.000000	0.007256
3796.000000	0.007230
3795.000000	0.007207
3794.000000	0.007197
3793.000000	0.007197
3792.000000	0.007202
3791.000000	0.007209
3790.000000	0.007214
3789.000000	0.007218
3788.000000	0.007218
3787.000000	0.007213
3786.000000	0.007203
3785.000000	0.007192
3784.000000	0.007187
3783.000000	0.007196
3782.000000	0.007217
3781.000000	0.007242
3780.000000	0.007258
3779.000000	0.007265
3778.000000	0.007267
3777.000000	0.007268
3776.000000	0.007267
3775.000000	0.007264
3774.000000	0.007263
3773.000000	0.007264
3772.000000	0.007262
3771.000000	0.007248
3770.000000	0.007225
3769.000000	0.007206
3768.000000	0.007194
3767.000000	0.007181
3766.000000	0.007164
3765.000000	0.007147
3764.000000	0.007140
3763.000000	0.007141
3762.000000	0.007144
3761.000000	0.007139
3760.000000	0.007131
3759.000000	0.007133
3758.000000	0.007150
3757.000000	0.007171
3756.000000	0.007187
3755.000000	0.007202
3754.000000	0.007224
3753.000000	0.007255
3752.000000	0.007288
3751.000000	0.007322
3750.000000	0.007354
3749.000000	0.007368
3748.000000	0.007355
3747.000000	0.007331
3746.000000	0.007316
3745.000000	0.007320
3744.000000	0.007335
3743.000000	0.007342
3742.000000	0.007328
3741.000000	0.007301
3740.000000	0.007282
3739.000000	0.007280
3738.000000	0.007287
3737.000000	0.007280
3736.000000	0.007236
3735.000000	0.007162
3734.000000	0.007098
3733.000000	0.007075
3732.000000	0.007093
3731.000000	0.007129
3730.000000	0.007160
3729.000000	0.007181
3728.000000	0.007193
3727.000000	0.007198
3726.000000	0.007198
3725.000000	0.007200
3724.000000	0.007201
3723.000000	0.007191
3722.000000	0.007170
3721.000000	0.007143
3720.000000	0.007120
3719.000000	0.007108
3718.000000	0.007107
3717.000000	0.007105
3716.000000	0.007096
3715.000000	0.007086
3714.000000	0.007091
3713.000000	0.007125
3712.000000	0.007177
3711.000000	0.007221
3710.000000	0.007238
3709.000000	0.007230
3708.000000	0.007211
3707.000000	0.007188
3706.000000	0.007164
3705.000000	0.007135
3704.000000	0.007098
3703.000000	0.007053
3702.000000	0.007010
3701.000000	0.006984
3700.000000	0.006985
3699.000000	0.007009
3698.000000	0.007047
3697.000000	0.007084
3696.000000	0.007119
3695.000000	0.007158
3694.000000	0.007206
3693.000000	0.007253
3692.000000	0.007280
3691.000000	0.007271
3690.000000	0.007233
3689.000000	0.007199
3688.000000	0.007195
3687.000000	0.007216
3686.000000	0.007237
3685.000000	0.007245
3684.000000	0.007241
3683.000000	0.007238
3682.000000	0.007252
3681.000000	0.007304
3680.000000	0.007397
3679.000000	0.007519
3678.000000	0.007642
3677.000000	0.007714
3676.000000	0.007689
3675.000000	0.007593
3674.000000	0.007502
3673.000000	0.007457
3672.000000	0.007453
3671.000000	0.007466
3670.000000	0.007472
3669.000000	0.007472
3668.000000	0.007477
3667.000000	0.007482
3666.000000	0.007482
3665.000000	0.007472
3664.000000	0.007452
3663.000000	0.007427
3662.000000	0.007402
3661.000000	0.007382
3660.000000	0.007372
3659.000000	0.007374
3658.000000	0.007389
3657.000000	0.007421
3656.000000	0.007475
3655.000000	0.007551
3654.000000	0.007637
3653.000000	0.007718
3652.000000	0.007774
3651.000000	0.007790
3650.000000	0.007763
3649.000000	0.007715
3648.000000	0.007670
3647.000000	0.007638
3646.000000	0.007623
3645.000000	0.007630
3644.000000	0.007656
3643.000000	0.007697
3642.000000	0.007746
3641.000000	0.007796
3640.000000	0.007837
3639.000000	0.007864
3638.000000	0.007880
3637.000000	0.007893
3636.000000	0.007909
3635.000000	0.007928
3634.000000	0.007950
3633.000000	0.007977
3632.000000	0.008018
3631.000000	0.008068
3630.000000	0.008112
3629.000000	0.008131
3628.000000	0.008130
3627.000000	0.008119
3626.000000	0.008099
3625.000000	0.008077
3624.000000	0.008064
3623.000000	0.008064
3622.000000	0.008075
3621.000000	0.008093
3620.000000	0.008117
3619.000000	0.008151
3618.000000	0.008199
3617.000000	0.008257
3616.000000	0.008315
3615.000000	0.008368
3614.000000	0.008417
3613.000000	0.008469
3612.000000	0.008528
3611.000000	0.008587
3610.000000	0.008634
3609.000000	0.008654
3608.000000	0.008649
3607.000000	0.008636
3606.000000	0.008635
3605.000000	0.008653
3604.000000	0.008685
3603.000000	0.008721
3602.000000	0.008758
3601.000000	0.008795
3600.000000	0.008839
3599.000000	0.008891
3598.000000	0.008946
3597.000000	0.008990
3596.000000	0.009010
3595.000000	0.009008
3594.000000	0.009005
3593.000000	0.009025
3592.000000	0.009076
3591.000000	0.009142
3590.000000	0.009199
3589.000000	0.009225
3588.000000	0.009226
3587.000000	0.009233
3586.000000	0.009268
3585.000000	0.009322
3584.000000	0.009370
3583.000000	0.009403
3582.000000	0.009428
3581.000000	0.009457
3580.000000	0.009497
3579.000000	0.009547
3578.000000	0.009605
3577.000000	0.009670
3576.000000	0.009741
3575.000000	0.009816
3574.000000	0.009888
3573.000000	0.009950
3572.000000	0.009999
3571.000000	0.010038
3570.000000	0.010078
3569.000000	0.010128
3568.000000	0.010184
3567.000000	0.010234
3566.000000	0.010274
3565.000000	0.010307
3564.000000	0.010333
3563.000000	0.010353
3562.000000	0.010367
3561.000000	0.010382
3560.000000	0.010400
3559.000000	0.010429
3558.000000	0.010474
3557.000000	0.010537
3556.000000	0.010611
3555.000000	0.010685
3554.000000	0.010750
3553.000000	0.010805
3552.000000	0.010856
3551.000000	0.010906
3550.000000	0.010955
3549.000000	0.010999
3548.000000	0.011044
3547.000000	0.011092
3546.000000	0.011142
3545.000000	0.011187
3544.000000	0.011219
3543.000000	0.011242
3542.000000	0.011264
3541.000000	0.011292
3540.000000	0.011327
3539.000000	0.011367
3538.000000	0.011416
3537.000000	0.011473
3536.000000	0.011532
3535.000000	0.011583
3534.000000	0.011625
3533.000000	0.011661
3532.000000	0.011699
3531.000000	0.011746
3530.000000	0.011806
3529.000000	0.011873
3528.000000	0.011935
3527.000000	0.011984
3526.000000	0.012022
3525.000000	0.012056
3524.000000	0.012089
3523.000000	0.012121
3522.000000	0.012154
3521.000000	0.012192
3520.000000	0.012238
3519.000000	0.012287
3518.000000	0.012334
3517.000000	0.012379
3516.000000	0.012424
3515.000000	0.012466
3514.000000	0.012498
3513.000000	0.012525
3512.000000	0.012558
3511.000000	0.012608
3510.000000	0.012667
3509.000000	0.012720
3508.000000	0.012758
3507.000000	0.012791
3506.000000	0.012836
3505.000000	0.012901
3504.000000	0.012976
3503.000000	0.013041
3502.000000	0.013082
3501.000000	0.013100
3500.000000	0.013103
3499.000000	0.013109
3498.000000	0.013132
3497.000000	0.013176
3496.000000	0.013228
3495.000000	0.013276
3494.000000	0.013311
3493.000000	0.013338
3492.000000	0.013363
3491.000000	0.013397
3490.000000	0.013443
3489.000000	0.013496
3488.000000	0.013540
3487.000000	0.013566
3486.000000	0.013580
3485.000000	0.013602
3484.000000	0.013640
3483.000000	0.013691
3482.000000	0.013744
3481.000000	0.013793
3480.000000	0.013836
3479.000000	0.013872
3478.000000	0.013903
3477.000000	0.013936
3476.000000	0.013973
3475.000000	0.014013
3474.000000	0.014056
3473.000000	0.014103
3472.000000	0.014154
3471.000000	0.014201
3470.000000	0.014243
3469.000000	0.014280
3468.000000	0.014317
3467.000000	0.014354
3466.000000	0.014386
3465.000000	0.014413
3464.000000	0.014440
3463.000000	0.014473
3462.000000	0.014511
3461.000000	0.014546
3460.000000	0.014573
3459.000000	0.014600
3458.000000	0.014643
3457.000000	0.014711
3456.000000	0.014793
3455.000000	0.014864
3454.000000	0.014911
3453.000000	0.014933
3452.000000	0.014943
3451.000000	0.014952
3450.000000	0.014971
3449.000000	0.015008
3448.000000	0.015066
3447.000000	0.015136
3446.000000	0.015208
3445.000000	0.015276
3444.000000	0.015339
3443.000000	0.015389
3442.000000	0.015417
3441.000000	0.015429
3440.000000	0.015437
3439.000000	0.015457
3438.000000	0.015491
3437.000000	0.015532
3436.000000	0.015577
3435.000000	0.015622
3434.000000	0.015665
3433.000000	0.015704
3432.000000	0.015738
3431.000000	0.015774
3430.000000	0.015818
3429.000000	0.015872
3428.000000	0.015931
3427.000000	0.015985
3426.000000	0.016025
3425.000000	0.016051
3424.000000	0.016069
3423.000000	0.016086
3422.000000	0.016111
3421.000000	0.016149
3420.000000	0.016205
3419.000000	0.016271
3418.000000	0.016332
3417.000000	0.016375
3416.000000	0.016399
3415.000000	0.016415
3414.000000	0.016434
3413.000000	0.016461
3412.000000	0.016495
3411.000000	0.016534
3410.000000	0.016577
3409.000000	0.016623
3408.000000	0.016671
3407.000000	0.016718
3406.000000	0.016761
3405.000000	0.016801
3404.000000	0.016841
3403.000000	0.016881
3402.000000	0.016916
3401.000000	0.016943
3400.000000	0.016967
3399.000000	0.017000
3398.000000	0.017051
3397.000000	0.017115
3396.000000	0.017178
3395.000000	0.017225
3394.000000	0.017251
3393.000000	0.017267
3392.000000	0.017282
3391.000000	0.017300
3390.000000	0.017318
3389.000000	0.017332
3388.000000	0.017349
3387.000000	0.017379
3386.000000	0.017427
3385.000000	0.017488
3384.000000	0.017558
3383.000000	0.017631
3382.000000	0.017698
3381.000000	0.017746
3380.000000	0.017773
3379.000000	0.017789
3378.000000	0.017815
3377.000000	0.017858
3376.000000	0.017916
3375.000000	0.017976
3374.000000	0.018027
3373.000000	0.018066
3372.000000	0.018097
3371.000000	0.018128
3370.000000	0.018165
3369.000000	0.018208
3368.000000	0.018256
3367.000000	0.018312
3366.000000	0.018379
3365.000000	0.018450
3364.000000	0.018511
3363.000000	0.018558
3362.000000	0.018595
3361.000000	0.018636
3360.000000	0.018691
3359.000000	0.018759
3358.000000	0.018835
3357.000000	0.018907
3356.000000	0.018965
3355.000000	0.019009
3354.000000	0.019048
3353.000000	0.019094
3352.000000	0.019155
3351.000000	0.019226
3350.000000	0.019297
3349.000000	0.019361
3348.000000	0.019418
3347.000000	0.019474
3346.000000	0.019533
3345.000000	0.019590
3344.000000	0.019638
3343.000000	0.019679
3342.000000	0.019724
3341.000000	0.019784
3340.000000	0.019858
3339.000000	0.019931
3338.000000	0.019992
3337.000000	0.020036
3336.000000	0.020068
3335.000000	0.020101
3334.000000	0.020142
3333.000000	0.020193
3332.000000	0.020247
3331.000000	0.020300
3330.000000	0.020350
3329.000000	0.020395
3328.000000	0.020432
3327.000000	0.020462
3326.000000	0.020495
3325.000000	0.020544
3324.000000	0.020613
3323.000000	0.020691
3322.000000	0.020765
3321.000000	0.020825
3320.000000	0.020873
3319.000000	0.020918
3318.000000	0.020968
3317.000000	0.021024
3316.000000	0.021084
3315.000000	0.021139
3314.000000	0.021184
3313.000000	0.021217
3312.000000	0.021240
3311.000000	0.021260
3310.000000	0.021280
3309.000000	0.021301
3308.000000	0.021323
3307.000000	0.021352
3306.000000	0.021389
3305.000000	0.021432
3304.000000	0.021471
3303.000000	0.021504
3302.000000	0.021537
3301.000000	0.021571
3300.000000	0.021602
3299.000000	0.021622
3298.000000	0.021631
3297.000000	0.021637
3296.000000	0.021648
3295.000000	0.021671
3294.000000	0.021708
3293.000000	0.021754
3292.000000	0.021798
3291.000000	0.021828
3290.000000	0.021840
3289.000000	0.021842
3288.000000	0.021844
3287.000000	0.021852
3286.000000	0.021864
3285.000000	0.021874
3284.000000	0.021872
3283.000000	0.021855
3282.000000	0.021828
3281.000000	0.021798
3280.000000	0.021774
3279.000000	0.021755
3278.000000	0.021740
3277.000000	0.021726
3276.000000	0.021710
3275.000000	0.021691
3274.000000	0.021668
3273.000000	0.021642
3272.000000	0.021610
3271.000000	0.021575
3270.000000	0.021543
3269.000000	0.021528
3268.000000	0.021529
3267.000000	0.021531
3266.000000	0.021514
3265.000000	0.021473
3264.000000	0.021420
3263.000000	0.021369
3262.000000	0.021325
3261.000000	0.021284
3260.000000	0.021237
3259.000000	0.021184
3258.000000	0.021132
3257.000000	0.021089
3256.000000	0.021058
3255.000000	0.021033
3254.000000	0.021002
3253.000000	0.020959
3252.000000	0.020907
3251.000000	0.020851
3250.000000	0.020798
3249.000000	0.020750
3248.000000	0.020706
3247.000000	0.020672
3246.000000	0.020645
3245.000000	0.020623
3244.000000	0.020594
3243.000000	0.020552
3242.000000	0.020497
3241.000000	0.020433
3240.000000	0.020367
3239.000000	0.020305
3238.000000	0.020252
3237.000000	0.020211
3236.000000	0.020181
3235.000000	0.020160
3234.000000	0.020140
3233.000000	0.020117
3232.000000	0.020083
3231.000000	0.020040
3230.000000	0.019993
3229.000000	0.019949
3228.000000	0.019913
3227.000000	0.019883
3226.000000	0.019860
3225.000000	0.019843
3224.000000	0.019828
3223.000000	0.019813
3222.000000	0.019789
3221.000000	0.019752
3220.000000	0.019701
3219.000000	0.019650
3218.000000	0.019617
3217.000000	0.019607
3216.000000	0.019610
3215.000000	0.019602
3214.000000	0.019568
3213.000000	0.019510
3212.000000	0.019442
3211.000000	0.019383
3210.000000	0.019342
3209.000000	0.019322
3208.000000	0.019319
3207.000000	0.019329
3206.000000	0.019344
3205.000000	0.019352
3204.000000	0.019333
3203.000000	0.019277
3202.000000	0.019194
3201.000000	0.019113
3200.000000	0.019059
3199.000000	0.019029
3198.000000	0.019001
3197.000000	0.018959
3196.000000	0.018909
3195.000000	0.018866
3194.000000	0.018838
3193.000000	0.018816
3192.000000	0.018782
3191.000000	0.018729
3190.000000	0.018663
3189.000000	0.018604
3188.000000	0.018565
3187.000000	0.018546
3186.000000	0.018532
3185.000000	0.018507
3184.000000	0.018470
3183.000000	0.018431
3182.000000	0.018398
3181.000000	0.018371
3180.000000	0.018339
3179.000000	0.018293
3178.000000	0.018230
3177.000000	0.018154
3176.000000	0.018077
3175.000000	0.018011
3174.000000	0.017962
3173.000000	0.017927
3172.000000	0.017900
3171.000000	0.017881
3170.000000	0.017864
3169.000000	0.017840
3168.000000	0.017792
3167.000000	0.017718
3166.000000	0.017630
3165.000000	0.017549
3164.000000	0.017490
3163.000000	0.017453
3162.000000	0.017429
3161.000000	0.017410
3160.000000	0.017394
3159.000000	0.017375
3158.000000	0.017344
3157.000000	0.017295
3156.000000	0.017228
3155.000000	0.017148
3154.000000	0.017071
3153.000000	0.017011
3152.000000	0.016978
3151.000000	0.016969
3150.000000	0.016966
3149.000000	0.016946
3148.000000	0.016901
3147.000000	0.016842
3146.000000	0.016793
3145.000000	0.016768
3144.000000	0.016761
3143.000000	0.016754
3142.000000	0.016732
3141.000000	0.016697
3140.000000	0.016656
3139.000000	0.016615
3138.000000	0.016573
3137.000000	0.016527
3136.000000	0.016480
3135.000000	0.016438
3134.000000	0.016402
3133.000000	0.016365
3132.000000	0.016325
3131.000000	0.016287
3130.000000	0.016256
3129.000000	0.016232
3128.000000	0.016211
3127.000000	0.016195
3126.000000	0.016187
3125.000000	0.016185
3124.000000	0.016182
3123.000000	0.016167
3122.000000	0.016137
3121.000000	0.016100
3120.000000	0.016066
3119.000000	0.016046
3118.000000	0.016042
3117.000000	0.016050
3116.000000	0.016060
3115.000000	0.016067
3114.000000	0.016064
3113.000000	0.016050
3112.000000	0.016029
3111.000000	0.016015
3110.000000	0.016022
3109.000000	0.016051
3108.000000	0.016089
3107.000000	0.016116
3106.000000	0.016121
3105.000000	0.016111
3104.000000	0.016099
3103.000000	0.016089
3102.000000	0.016074
3101.000000	0.016047
3100.000000	0.016016
3099.000000	0.016003
3098.000000	0.016020
3097.000000	0.016061
3096.000000	0.016103
3095.000000	0.016132
3094.000000	0.016143
3093.000000	0.016145
3092.000000	0.016148
3091.000000	0.016162
3090.000000	0.016185
3089.000000	0.016209
3088.000000	0.016224
3087.000000	0.016224
3086.000000	0.016211
3085.000000	0.016192
3084.000000	0.016182
3083.000000	0.016185
3082.000000	0.016198
3081.000000	0.016209
3080.000000	0.016211
3079.000000	0.016213
3078.000000	0.016229
3077.000000	0.016257
3076.000000	0.016284
3075.000000	0.016293
3074.000000	0.016281
3073.000000	0.016257
3072.000000	0.016234
3071.000000	0.016218
3070.000000	0.016207
3069.000000	0.016197
3068.000000	0.016186
3067.000000	0.016176
3066.000000	0.016166
3065.000000	0.016151
3064.000000	0.016128
3063.000000	0.016101
3062.000000	0.016077
3061.000000	0.016056
3060.000000	0.016032
3059.000000	0.015999
3058.000000	0.015962
3057.000000	0.015930
3056.000000	0.015909
3055.000000	0.015897
3054.000000	0.015889
3053.000000	0.015881
3052.000000	0.015870
3051.000000	0.015851
3050.000000	0.015820
3049.000000	0.015777
3048.000000	0.015724
3047.000000	0.015669
3046.000000	0.015619
3045.000000	0.015579
3044.000000	0.015550
3043.000000	0.015523
3042.000000	0.015489
3041.000000	0.015445
3040.000000	0.015397
3039.000000	0.015357
3038.000000	0.015331
3037.000000	0.015316
3036.000000	0.015300
3035.000000	0.015274
3034.000000	0.015235
3033.000000	0.015189
3032.000000	0.015144
3031.000000	0.015107
3030.000000	0.015078
3029.000000	0.015052
3028.000000	0.015024
3027.000000	0.014992
3026.000000	0.014956
3025.000000	0.014916
3024.000000	0.014871
3023.000000	0.014826
3022.000000	0.014789
3021.000000	0.014765
3020.000000	0.014750
3019.000000	0.014730
3018.000000	0.014697
3017.000000	0.014657
3016.000000	0.014624
3015.000000	0.014608
3014.000000	0.014607
3013.000000	0.014608
3012.000000	0.014601
3011.000000	0.014585
3010.000000	0.014569
3009.000000	0.014562
3008.000000	0.014565
3007.000000	0.014576
3006.000000	0.014587
3005.000000	0.014592
3004.000000	0.014589
3003.000000	0.014582
3002.000000	0.014576
3001.000000	0.014576
3000.000000	0.014583
2999.000000	0.014598
2998.000000	0.014618
2997.000000	0.014641
2996.000000	0.014668
2995.000000	0.014702
2994.000000	0.014751
2993.000000	0.014811
2992.000000	0.014872
2991.000000	0.014926
2990.000000	0.014975
2989.000000	0.015029
2988.000000	0.015089
2987.000000	0.015155
2986.000000	0.015230
2985.000000	0.015319
2984.000000	0.015426
2983.000000	0.015550
2982.000000	0.015683
2981.000000	0.015812
2980.000000	0.015927
2979.000000	0.016024
2978.000000	0.016112
2977.000000	0.016202
2976.000000	0.016300
2975.000000	0.016409
2974.000000	0.016528
2973.000000	0.016657
2972.000000	0.016802
2971.000000	0.016966
2970.000000	0.017150
2969.000000	0.017349
2968.000000	0.017551
2967.000000	0.017746
2966.000000	0.017929
2965.000000	0.018100
2964.000000	0.018263
2963.000000	0.018422
2962.000000	0.018581
2961.000000	0.018742
2960.000000	0.018900
2959.000000	0.019047
2958.000000	0.019172
2957.000000	0.019268
2956.000000	0.019334
2955.000000	0.019375
2954.000000	0.019396
2953.000000	0.019400
2952.000000	0.019389
2951.000000	0.019370
2950.000000	0.019355
2949.000000	0.019354
2948.000000	0.019377
2947.000000	0.019425
2946.000000	0.019495
2945.000000	0.019590
2944.000000	0.019715
2943.000000	0.019875
2942.000000	0.020067
2941.000000	0.020283
2940.000000	0.020520
2939.000000	0.020784
2938.000000	0.021084
2937.000000	0.021418
2936.000000	0.021771
2935.000000	0.022130
2934.000000	0.022496
2933.000000	0.022884
2932.000000	0.023298
2931.000000	0.023721
2930.000000	0.024119
2929.000000	0.024474
2928.000000	0.024800
2927.000000	0.025126
2926.000000	0.025470
2925.000000	0.025818
2924.000000	0.026140
2923.000000	0.026408
2922.000000	0.026611
2921.000000	0.026740
2920.000000	0.026785
2919.000000	0.026730
2918.000000	0.026556
2917.000000	0.026251
2916.000000	0.025817
2915.000000	0.025280
2914.000000	0.024677
2913.000000	0.024048
2912.000000	0.023430
2911.000000	0.022857
2910.000000	0.022352
2909.000000	0.021926
2908.000000	0.021568
2907.000000	0.021257
2906.000000	0.020977
2905.000000	0.020724
2904.000000	0.020498
2903.000000	0.020297
2902.000000	0.020108
2901.000000	0.019921
2900.000000	0.019739
2899.000000	0.019572
2898.000000	0.019428
2897.000000	0.019298
2896.000000	0.019169
2895.000000	0.019031
2894.000000	0.018887
2893.000000	0.018745
2892.000000	0.018611
2891.000000	0.018484
2890.000000	0.018360
2889.000000	0.018241
2888.000000	0.018137
2887.000000	0.018054
2886.000000	0.017995
2885.000000	0.017951
2884.000000	0.017914
2883.000000	0.017878
2882.000000	0.017841
2881.000000	0.017812
2880.000000	0.017801
2879.000000	0.017812
2878.000000	0.017840
2877.000000	0.017875
2876.000000	0.017909
2875.000000	0.017939
2874.000000	0.017964
2873.000000	0.017978
2872.000000	0.017974
2871.000000	0.017952
2870.000000	0.017923
2869.000000	0.017902
2868.000000	0.017900
2867.000000	0.017918
2866.000000	0.017952
2865.000000	0.018000
2864.000000	0.018066
2863.000000	0.018161
2862.000000	0.018297
2861.000000	0.018480
2860.000000	0.018709
2859.000000	0.018978
2858.000000	0.019282
2857.000000	0.019611
2856.000000	0.019960
2855.000000	0.020320
2854.000000	0.020678
2853.000000	0.021003
2852.000000	0.021246
2851.000000	0.021349
2850.000000	0.021260
2849.000000	0.020964
2848.000000	0.020485
2847.000000	0.019887
2846.000000	0.019243
2845.000000	0.018613
2844.000000	0.018038
2843.000000	0.017539
2842.000000	0.017117
2841.000000	0.016767
2840.000000	0.016480
2839.000000	0.016244
2838.000000	0.016046
2837.000000	0.015871
2836.000000	0.015712
2835.000000	0.015567
2834.000000	0.015439
2833.000000	0.015330
2832.000000	0.015241
2831.000000	0.015166
2830.000000	0.015098
2829.000000	0.015028
2828.000000	0.014951
2827.000000	0.014870
2826.000000	0.014789
2825.000000	0.014717
2824.000000	0.014660
2823.000000	0.014612
2822.000000	0.014562
2821.000000	0.014501
2820.000000	0.014433
2819.000000	0.014372
2818.000000	0.014328
2817.000000	0.014294
2816.000000	0.014261
2815.000000	0.014224
2814.000000	0.014182
2813.000000	0.014132
2812.000000	0.014070
2811.000000	0.014001
2810.000000	0.013934
2809.000000	0.013883
2808.000000	0.013851
2807.000000	0.013836
2806.000000	0.013825
2805.000000	0.013806
2804.000000	0.013780
2803.000000	0.013754
2802.000000	0.013730
2801.000000	0.013703
2800.000000	0.013673
2799.000000	0.013648
2798.000000	0.013631
2797.000000	0.013617
2796.000000	0.013595
2795.000000	0.013565
2794.000000	0.013535
2793.000000	0.013512
2792.000000	0.013499
2791.000000	0.013493
2790.000000	0.013489
2789.000000	0.013477
2788.000000	0.013448
2787.000000	0.013406
2786.000000	0.013363
2785.000000	0.013327
2784.000000	0.013300
2783.000000	0.013276
2782.000000	0.013250
2781.000000	0.013218
2780.000000	0.013180
2779.000000	0.013147
2778.000000	0.013128
2777.000000	0.013122
2776.000000	0.013120
2775.000000	0.013116
2774.000000	0.013107
2773.000000	0.013099
2772.000000	0.013092
2771.000000	0.013087
2770.000000	0.013079
2769.000000	0.013063
2768.000000	0.013035
2767.000000	0.013003
2766.000000	0.012976
2765.000000	0.012953
2764.000000	0.012931
2763.000000	0.012910
2762.000000	0.012898
2761.000000	0.012892
2760.000000	0.012880
2759.000000	0.012857
2758.000000	0.012834
2757.000000	0.012826
2756.000000	0.012831
2755.000000	0.012836
2754.000000	0.012826
2753.000000	0.012803
2752.000000	0.012778
2751.000000	0.012762
2750.000000	0.012755
2749.000000	0.012751
2748.000000	0.012736
2747.000000	0.012704
2746.000000	0.012664
2745.000000	0.012628
2744.000000	0.012609
2743.000000	0.012608
2742.000000	0.012619
2741.000000	0.012632
2740.000000	0.012640
2739.000000	0.012638
2738.000000	0.012621
2737.000000	0.012592
2736.000000	0.012561
2735.000000	0.012539
2734.000000	0.012529
2733.000000	0.012524
2732.000000	0.012518
2731.000000	0.012514
2730.000000	0.012513
2729.000000	0.012514
2728.000000	0.012508
2727.000000	0.012494
2726.000000	0.012472
2725.000000	0.012448
2724.000000	0.012421
2723.000000	0.012394
2722.000000	0.012370
2721.000000	0.012352
2720.000000	0.012341
2719.000000	0.012336
2718.000000	0.012330
2717.000000	0.012317
2716.000000	0.012289
2715.000000	0.012253
2714.000000	0.012225
2713.000000	0.012214
2712.000000	0.012218
2711.000000	0.012229
2710.000000	0.012239
2709.000000	0.012243
2708.000000	0.012241
2707.000000	0.012234
2706.000000	0.012221
2705.000000	0.012200
2704.000000	0.012174
2703.000000	0.012149
2702.000000	0.012135
2701.000000	0.012131
2700.000000	0.012128
2699.000000	0.012121
2698.000000	0.012112
2697.000000	0.012107
2696.000000	0.012106
2695.000000	0.012109
2694.000000	0.012110
2693.000000	0.012102
2692.000000	0.012086
2691.000000	0.012069
2690.000000	0.012063
2689.000000	0.012067
2688.000000	0.012070
2687.000000	0.012065
2686.000000	0.012060
2685.000000	0.012062
2684.000000	0.012073
2683.000000	0.012084
2682.000000	0.012089
2681.000000	0.012086
2680.000000	0.012077
2679.000000	0.012065
2678.000000	0.012054
2677.000000	0.012041
2676.000000	0.012025
2675.000000	0.012003
2674.000000	0.011981
2673.000000	0.011963
2672.000000	0.011955
2671.000000	0.011957
2670.000000	0.011968
2669.000000	0.011980
2668.000000	0.011983
2667.000000	0.011975
2666.000000	0.011963
2665.000000	0.011955
2664.000000	0.011950
2663.000000	0.011945
2662.000000	0.011938
2661.000000	0.011928
2660.000000	0.011914
2659.000000	0.011896
2658.000000	0.011877
2657.000000	0.011857
2656.000000	0.011834
2655.000000	0.011810
2654.000000	0.011791
2653.000000	0.011778
2652.000000	0.011766
2651.000000	0.011744
2650.000000	0.011714
2649.000000	0.011690
2648.000000	0.011679
2647.000000	0.011674
2646.000000	0.011659
2645.000000	0.011623
2644.000000	0.011570
2643.000000	0.011515
2642.000000	0.011471
2641.000000	0.011447
2640.000000	0.011441
2639.000000	0.011449
2638.000000	0.011455
2637.000000	0.011442
2636.000000	0.011400
2635.000000	0.011337
2634.000000	0.011280
2633.000000	0.011247
2632.000000	0.011236
2631.000000	0.011234
2630.000000	0.011232
2629.000000	0.011230
2628.000000	0.011224
2627.000000	0.011209
2626.000000	0.011185
2625.000000	0.011162
2624.000000	0.011143
2623.000000	0.011124
2622.000000	0.011098
2621.000000	0.011063
2620.000000	0.011031
2619.000000	0.011010
2618.000000	0.011000
2617.000000	0.010990
2616.000000	0.010971
2615.000000	0.010943
2614.000000	0.010918
2613.000000	0.010905
2612.000000	0.010902
2611.000000	0.010894
2610.000000	0.010875
2609.000000	0.010847
2608.000000	0.010819
2607.000000	0.010799
2606.000000	0.010790
2605.000000	0.010786
2604.000000	0.010775
2603.000000	0.010750
2602.000000	0.010711
2601.000000	0.010671
2600.000000	0.010644
2599.000000	0.010640
2598.000000	0.010658
2597.000000	0.010686
2596.000000	0.010708
2595.000000	0.010716
2594.000000	0.010709
2593.000000	0.010692
2592.000000	0.010669
2591.000000	0.010641
2590.000000	0.010616
2589.000000	0.010598
2588.000000	0.010588
2587.000000	0.010587
2586.000000	0.010595
2585.000000	0.010610
2584.000000	0.010630
2583.000000	0.010648
2582.000000	0.010650
2581.000000	0.010627
2580.000000	0.010578
2579.000000	0.010523
2578.000000	0.010490
2577.000000	0.010488
2576.000000	0.010497
2575.000000	0.010495
2574.000000	0.010475
2573.000000	0.010452
2572.000000	0.010441
2571.000000	0.010445
2570.000000	0.010455
2569.000000	0.010457
2568.000000	0.010446
2567.000000	0.010428
2566.000000	0.010420
2565.000000	0.010426
2564.000000	0.010435
2563.000000	0.010438
2562.000000	0.010432
2561.000000	0.010417
2560.000000	0.010389
2559.000000	0.010357
2558.000000	0.010336
2557.000000	0.010336
2556.000000	0.010341
2555.000000	0.010329
2554.000000	0.010299
2553.000000	0.010267
2552.000000	0.010249
2551.000000	0.010239
2550.000000	0.010227
2549.000000	0.010212
2548.000000	0.010201
2547.000000	0.010198
2546.000000	0.010201
2545.000000	0.010204
2544.000000	0.010210
2543.000000	0.010223
2542.000000	0.010241
2541.000000	0.010259
2540.000000	0.010271
2539.000000	0.010280
2538.000000	0.010287
2537.000000	0.010287
2536.000000	0.010266
2535.000000	0.010221
2534.000000	0.010168
2533.000000	0.010129
2532.000000	0.010115
2531.000000	0.010117
2530.000000	0.010118
2529.000000	0.010105
2528.000000	0.010078
2527.000000	0.010055
2526.000000	0.010056
2525.000000	0.010083
2524.000000	0.010121
2523.000000	0.010154
2522.000000	0.010173
2521.000000	0.010168
2520.000000	0.010135
2519.000000	0.010083
2518.000000	0.010038
2517.000000	0.010023
2516.000000	0.010033
2515.000000	0.010052
2514.000000	0.010067
2513.000000	0.010082
2512.000000	0.010098
2511.000000	0.010112
2510.000000	0.010116
2509.000000	0.010106
2508.000000	0.010087
2507.000000	0.010070
2506.000000	0.010062
2505.000000	0.010057
2504.000000	0.010047
2503.000000	0.010031
2502.000000	0.010020
2501.000000	0.010014
2500.000000	0.010006
2499.000000	0.009995
2498.000000	0.009988
2497.000000	0.009981
2496.000000	0.009955
2495.000000	0.009901
2494.000000	0.009847
2493.000000	0.009827
2492.000000	0.009850
2491.000000	0.009889
2490.000000	0.009919
2489.000000	0.009935
2488.000000	0.009948
2487.000000	0.009965
2486.000000	0.009980
2485.000000	0.009980
2484.000000	0.009956
2483.000000	0.009913
2482.000000	0.009871
2481.000000	0.009840
2480.000000	0.009821
2479.000000	0.009813
2478.000000	0.009823
2477.000000	0.009852
2476.000000	0.009886
2475.000000	0.009909
2474.000000	0.009914
2473.000000	0.009905
2472.000000	0.009884
2471.000000	0.009855
2470.000000	0.009828
2469.000000	0.009811
2468.000000	0.009803
2467.000000	0.009793
2466.000000	0.009779
2465.000000	0.009764
2464.000000	0.009746
2463.000000	0.009730
2462.000000	0.009728
2461.000000	0.009752
2460.000000	0.009792
2459.000000	0.009829
2458.000000	0.009854
2457.000000	0.009872
2456.000000	0.009886
2455.000000	0.009884
2454.000000	0.009862
2453.000000	0.009824
2452.000000	0.009784
2451.000000	0.009752
2450.000000	0.009736
2449.000000	0.009742
2448.000000	0.009769
2447.000000	0.009805
2446.000000	0.009831
2445.000000	0.009830
2444.000000	0.009801
2443.000000	0.009757
2442.000000	0.009721
2441.000000	0.009705
2440.000000	0.009701
2439.000000	0.009690
2438.000000	0.009669
2437.000000	0.009652
2436.000000	0.009658
2435.000000	0.009690
2434.000000	0.009734
2433.000000	0.009765
2432.000000	0.009765
2431.000000	0.009740
2430.000000	0.009709
2429.000000	0.009686
2428.000000	0.009665
2427.000000	0.009638
2426.000000	0.009606
2425.000000	0.009584
2424.000000	0.009578
2423.000000	0.009586
2422.000000	0.009599
2421.000000	0.009614
2420.000000	0.009620
2419.000000	0.009611
2418.000000	0.009586
2417.000000	0.009561
2416.000000	0.009556
2415.000000	0.009584
2414.000000	0.009636
2413.000000	0.009687
2412.000000	0.009715
2411.000000	0.009715
2410.000000	0.009696
2409.000000	0.009667
2408.000000	0.009634
2407.000000	0.009604
2406.000000	0.009579
2405.000000	0.009554
2404.000000	0.009527
2403.000000	0.009512
2402.000000	0.009529
2401.000000	0.009576
2400.000000	0.009622
2399.000000	0.009637
2398.000000	0.009620
2397.000000	0.009590
2396.000000	0.009565
2395.000000	0.009559
2394.000000	0.009578
2393.000000	0.009612
2392.000000	0.009632
2391.000000	0.009616
2390.000000	0.009576
2389.000000	0.009547
2388.000000	0.009554
2387.000000	0.009590
2386.000000	0.009624
2385.000000	0.009625
2384.000000	0.009583
2383.000000	0.009514
2382.000000	0.009445
2381.000000	0.009392
2380.000000	0.009360
2379.000000	0.009353
2378.000000	0.009382
2377.000000	0.009436
2376.000000	0.009484
2375.000000	0.009504
2374.000000	0.009503
2373.000000	0.009494
2372.000000	0.009465
2371.000000	0.009405
2370.000000	0.009328
2369.000000	0.009259
2368.000000	0.009220
2367.000000	0.009225
2366.000000	0.009280
2365.000000	0.009359
2364.000000	0.009421
2363.000000	0.009471
2362.000000	0.009543
2361.000000	0.009631
2360.000000	0.009696
2359.000000	0.009699
2358.000000	0.009640
2357.000000	0.009546
2356.000000	0.009460
2355.000000	0.009440
2354.000000	0.009451
2353.000000	0.009411
2352.000000	0.009298
2351.000000	0.009193
2350.000000	0.009180
2349.000000	0.009266
2348.000000	0.009399
2347.000000	0.009494
2346.000000	0.009519
2345.000000	0.009533
2344.000000	0.009586
2343.000000	0.009668
2342.000000	0.009705
2341.000000	0.009667
2340.000000	0.009603
2339.000000	0.009576
2338.000000	0.009589
2337.000000	0.009593
2336.000000	0.009555
2335.000000	0.009482
2334.000000	0.009408
2333.000000	0.009361
2332.000000	0.009374
2331.000000	0.009440
2330.000000	0.009540
2329.000000	0.009621
2328.000000	0.009689
2327.000000	0.009743
2326.000000	0.009787
2325.000000	0.009800
2324.000000	0.009777
2323.000000	0.009731
2322.000000	0.009699
2321.000000	0.009718
2320.000000	0.009798
2319.000000	0.009894
2318.000000	0.009958
2317.000000	0.009958
2316.000000	0.009907
2315.000000	0.009818
2314.000000	0.009716
2313.000000	0.009610
2312.000000	0.009525
2311.000000	0.009465
2310.000000	0.009443
2309.000000	0.009448
2308.000000	0.009463
2307.000000	0.009459
2306.000000	0.009436
2305.000000	0.009414
2304.000000	0.009415
2303.000000	0.009428
2302.000000	0.009434
2301.000000	0.009424
2300.000000	0.009416
2299.000000	0.009419
2298.000000	0.009435
2297.000000	0.009450
2296.000000	0.009460
2295.000000	0.009464
2294.000000	0.009475
2293.000000	0.009498
2292.000000	0.009520
2291.000000	0.009512
2290.000000	0.009463
2289.000000	0.009397
2288.000000	0.009359
2287.000000	0.009376
2286.000000	0.009434
2285.000000	0.009500
2284.000000	0.009549
2283.000000	0.009576
2282.000000	0.009582
2281.000000	0.009568
2280.000000	0.009533
2279.000000	0.009482
2278.000000	0.009427
2277.000000	0.009384
2276.000000	0.009360
2275.000000	0.009346
2274.000000	0.009328
2273.000000	0.009300
2272.000000	0.009266
2271.000000	0.009236
2270.000000	0.009217
2269.000000	0.009212
2268.000000	0.009216
2267.000000	0.009221
2266.000000	0.009216
2265.000000	0.009191
2264.000000	0.009143
2263.000000	0.009090
2262.000000	0.009055
2261.000000	0.009047
2260.000000	0.009037
2259.000000	0.008999
2258.000000	0.008936
2257.000000	0.008879
2256.000000	0.008849
2255.000000	0.008837
2254.000000	0.008825
2253.000000	0.008806
2252.000000	0.008785
2251.000000	0.008767
2250.000000	0.008755
2249.000000	0.008744
2248.000000	0.008734
2247.000000	0.008732
2246.000000	0.008762
2245.000000	0.008831
2244.000000	0.008905
2243.000000	0.008928
2242.000000	0.008875
2241.000000	0.008774
2240.000000	0.008688
2239.000000	0.008667
2238.000000	0.008733
2237.000000	0.008865
2236.000000	0.009007
2235.000000	0.009087
2234.000000	0.009065
2233.000000	0.008957
2232.000000	0.008826
2231.000000	0.008741
2230.000000	0.008724
2229.000000	0.008738
2228.000000	0.008731
2227.000000	0.008694
2226.000000	0.008659
2225.000000	0.008649
2224.000000	0.008647
2223.000000	0.008633
2222.000000	0.008619
2221.000000	0.008612
2220.000000	0.008586
2219.000000	0.008518
2218.000000	0.008449
2217.000000	0.008461
2216.000000	0.008585
2215.000000	0.008766
2214.000000	0.008916
2213.000000	0.008958
2212.000000	0.008855
2211.000000	0.008622
2210.000000	0.008340
2209.000000	0.008105
2208.000000	0.007973
2207.000000	0.007949
2206.000000	0.008031
2205.000000	0.008211
2204.000000	0.008434
2203.000000	0.008601
2202.000000	0.008642
2201.000000	0.008580
2200.000000	0.008502
2199.000000	0.008468
2198.000000	0.008463
2197.000000	0.008433
2196.000000	0.008366
2195.000000	0.008330
2194.000000	0.008402
2193.000000	0.008569
2192.000000	0.008736
2191.000000	0.008826
2190.000000	0.008842
2189.000000	0.008800
2188.000000	0.008686
2187.000000	0.008507
2186.000000	0.008355
2185.000000	0.008327
2184.000000	0.008412
2183.000000	0.008499
2182.000000	0.008508
2181.000000	0.008448
2180.000000	0.008369
2179.000000	0.008318
2178.000000	0.008325
2177.000000	0.008379
2176.000000	0.008406
2175.000000	0.008339
2174.000000	0.008219
2173.000000	0.008152
2172.000000	0.008181
2171.000000	0.008248
2170.000000	0.008282
2169.000000	0.008264
2168.000000	0.008198
2167.000000	0.008095
2166.000000	0.007987
2165.000000	0.007933
2164.000000	0.007950
2163.000000	0.007991
2162.000000	0.007993
2161.000000	0.007899
2160.000000	0.007656
2159.000000	0.007268
2158.000000	0.006864
2157.000000	0.006621
2156.000000	0.006596
2155.000000	0.006730
2154.000000	0.006963
2153.000000	0.007258
2152.000000	0.007563
2151.000000	0.007820
2150.000000	0.008020
2149.000000	0.008186
2148.000000	0.008306
2147.000000	0.008337
2146.000000	0.008282
2145.000000	0.008210
2144.000000	0.008178
2143.000000	0.008183
2142.000000	0.008191
2141.000000	0.008185
2140.000000	0.008165
2139.000000	0.008129
2138.000000	0.008084
2137.000000	0.008036
2136.000000	0.007991
2135.000000	0.007958
2134.000000	0.007964
2133.000000	0.008023
2132.000000	0.008106
2131.000000	0.008166
2130.000000	0.008188
2129.000000	0.008197
2128.000000	0.008220
2127.000000	0.008270
2126.000000	0.008350
2125.000000	0.008455
2124.000000	0.008557
2123.000000	0.008631
2122.000000	0.008675
2121.000000	0.008708
2120.000000	0.008725
2119.000000	0.008707
2118.000000	0.008658
2117.000000	0.008615
2116.000000	0.008604
2115.000000	0.008614
2114.000000	0.008633
2113.000000	0.008657
2112.000000	0.008678
2111.000000	0.008668
2110.000000	0.008618
2109.000000	0.008560
2108.000000	0.008533
2107.000000	0.008543
2106.000000	0.008566
2105.000000	0.008584
2104.000000	0.008590
2103.000000	0.008591
2102.000000	0.008605
2101.000000	0.008664
2100.000000	0.008773
2099.000000	0.008885
2098.000000	0.008920
2097.000000	0.008838
2096.000000	0.008669
2095.000000	0.008501
2094.000000	0.008411
2093.000000	0.008426
2092.000000	0.008505
2091.000000	0.008580
2090.000000	0.008610
2089.000000	0.008596
2088.000000	0.008566
2087.000000	0.008546
2086.000000	0.008546
2085.000000	0.008551
2084.000000	0.008538
2083.000000	0.008492
2082.000000	0.008441
2081.000000	0.008442
2080.000000	0.008520
2079.000000	0.008630
2078.000000	0.008686
2077.000000	0.008633
2076.000000	0.008499
2075.000000	0.008369
2074.000000	0.008316
2073.000000	0.008352
2072.000000	0.008426
2071.000000	0.008483
2070.000000	0.008499
2069.000000	0.008479
2068.000000	0.008445
2067.000000	0.008417
2066.000000	0.008404
2065.000000	0.008391
2064.000000	0.008353
2063.000000	0.008283
2062.000000	0.008202
2061.000000	0.008136
2060.000000	0.008084
2059.000000	0.008027
2058.000000	0.007950
2057.000000	0.007857
2056.000000	0.007769
2055.000000	0.007715
2054.000000	0.007716
2053.000000	0.007752
2052.000000	0.007791
2051.000000	0.007841
2050.000000	0.007933
2049.000000	0.008042
2048.000000	0.008071
2047.000000	0.007979
2046.000000	0.007857
2045.000000	0.007823
2044.000000	0.007876
2043.000000	0.007923
2042.000000	0.007901
2041.000000	0.007806
2040.000000	0.007639
2039.000000	0.007427
2038.000000	0.007268
2037.000000	0.007266
2036.000000	0.007395
2035.000000	0.007508
2034.000000	0.007480
2033.000000	0.007306
2032.000000	0.007060
2031.000000	0.006844
2030.000000	0.006766
2029.000000	0.006871
2028.000000	0.007080
2027.000000	0.007252
2026.000000	0.007322
2025.000000	0.007318
2024.000000	0.007276
2023.000000	0.007208
2022.000000	0.007145
2021.000000	0.007120
2020.000000	0.007110
2019.000000	0.007074
2018.000000	0.007043
2017.000000	0.007109
2016.000000	0.007288
2015.000000	0.007463
2014.000000	0.007487
2013.000000	0.007328
2012.000000	0.007089
2011.000000	0.006925
2010.000000	0.006917
2009.000000	0.006999
2008.000000	0.007038
2007.000000	0.006995
2006.000000	0.006969
2005.000000	0.007048
2004.000000	0.007193
2003.000000	0.007316
2002.000000	0.007401
2001.000000	0.007485
2000.000000	0.007571
1999.000000	0.007644
1998.000000	0.007730
1997.000000	0.007871
1996.000000	0.008049
1995.000000	0.008185
1994.000000	0.008224
1993.000000	0.008167
1992.000000	0.008045
1991.000000	0.007905
1990.000000	0.007796
1989.000000	0.007732
1988.000000	0.007683
1987.000000	0.007636
1986.000000	0.007635
1985.000000	0.007711
1984.000000	0.007820
1983.000000	0.007924
1982.000000	0.008069
1981.000000	0.008292
1980.000000	0.008483
1979.000000	0.008456
1978.000000	0.008196
1977.000000	0.007912
1976.000000	0.007770
1975.000000	0.007715
1974.000000	0.007612
1973.000000	0.007432
1972.000000	0.007236
1971.000000	0.007088
1970.000000	0.007028
1969.000000	0.007063
1968.000000	0.007156
1967.000000	0.007267
1966.000000	0.007399
1965.000000	0.007574
1964.000000	0.007742
1963.000000	0.007814
1962.000000	0.007761
1961.000000	0.007644
1960.000000	0.007545
1959.000000	0.007499
1958.000000	0.007506
1957.000000	0.007548
1956.000000	0.007591
1955.000000	0.007609
1954.000000	0.007607
1953.000000	0.007607
1952.000000	0.007609
1951.000000	0.007604
1950.000000	0.007599
1949.000000	0.007595
1948.000000	0.007586
1947.000000	0.007588
1946.000000	0.007634
1945.000000	0.007720
1944.000000	0.007777
1943.000000	0.007757
1942.000000	0.007703
1941.000000	0.007683
1940.000000	0.007687
1939.000000	0.007671
1938.000000	0.007650
1937.000000	0.007673
1936.000000	0.007730
1935.000000	0.007757
1934.000000	0.007732
1933.000000	0.007683
1932.000000	0.007627
1931.000000	0.007554
1930.000000	0.007496
1929.000000	0.007522
1928.000000	0.007649
1927.000000	0.007803
1926.000000	0.007892
1925.000000	0.007892
1924.000000	0.007844
1923.000000	0.007799
1922.000000	0.007787
1921.000000	0.007793
1920.000000	0.007775
1919.000000	0.007703
1918.000000	0.007593
1917.000000	0.007495
1916.000000	0.007442
1915.000000	0.007437
1914.000000	0.007498
1913.000000	0.007634
1912.000000	0.007800
1911.000000	0.007922
1910.000000	0.007972
1909.000000	0.007979
1908.000000	0.007969
1907.000000	0.007929
1906.000000	0.007853
1905.000000	0.007781
1904.000000	0.007750
1903.000000	0.007749
1902.000000	0.007738
1901.000000	0.007701
1900.000000	0.007653
1899.000000	0.007621
1898.000000	0.007617
1897.000000	0.007640
1896.000000	0.007668
1895.000000	0.007683
1894.000000	0.007696
1893.000000	0.007731
1892.000000	0.007779
1891.000000	0.007788
1890.000000	0.007721
1889.000000	0.007609
1888.000000	0.007516
1887.000000	0.007470
1886.000000	0.007465
1885.000000	0.007491
1884.000000	0.007539
1883.000000	0.007590
1882.000000	0.007618
1881.000000	0.007613
1880.000000	0.007585
1879.000000	0.007545
1878.000000	0.007505
1877.000000	0.007481
1876.000000	0.007484
1875.000000	0.007508
1874.000000	0.007530
1873.000000	0.007528
1872.000000	0.007495
1871.000000	0.007442
1870.000000	0.007390
1869.000000	0.007355
1868.000000	0.007353
1867.000000	0.007395
1866.000000	0.007473
1865.000000	0.007566
1864.000000	0.007642
1863.000000	0.007675
1862.000000	0.007662
1861.000000	0.007620
1860.000000	0.007564
1859.000000	0.007505
1858.000000	0.007454
1857.000000	0.007423
1856.000000	0.007412
1855.000000	0.007416
1854.000000	0.007421
1853.000000	0.007417
1852.000000	0.007392
1851.000000	0.007358
1850.000000	0.007340
1849.000000	0.007348
1848.000000	0.007352
1847.000000	0.007337
1846.000000	0.007329
1845.000000	0.007360
1844.000000	0.007406
1843.000000	0.007421
1842.000000	0.007405
1841.000000	0.007395
1840.000000	0.007404
1839.000000	0.007410
1838.000000	0.007405
1837.000000	0.007414
1836.000000	0.007448
1835.000000	0.007474
1834.000000	0.007451
1833.000000	0.007386
1832.000000	0.007323
1831.000000	0.007287
1830.000000	0.007278
1829.000000	0.007284
1828.000000	0.007298
1827.000000	0.007320
1826.000000	0.007352
1825.000000	0.007384
1824.000000	0.007397
1823.000000	0.007394
1822.000000	0.007394
1821.000000	0.007405
1820.000000	0.007402
1819.000000	0.007364
1818.000000	0.007309
1817.000000	0.007279
1816.000000	0.007297
1815.000000	0.007349
1814.000000	0.007413
1813.000000	0.007464
1812.000000	0.007481
1811.000000	0.007458
1810.000000	0.007419
1809.000000	0.007392
1808.000000	0.007382
1807.000000	0.007372
1806.000000	0.007353
1805.000000	0.007328
1804.000000	0.007311
1803.000000	0.007309
1802.000000	0.007323
1801.000000	0.007345
1800.000000	0.007362
1799.000000	0.007372
1798.000000	0.007375
1797.000000	0.007366
1796.000000	0.007346
1795.000000	0.007330
1794.000000	0.007341
1793.000000	0.007369
1792.000000	0.007373
1791.000000	0.007342
1790.000000	0.007312
1789.000000	0.007303
1788.000000	0.007308
1787.000000	0.007304
1786.000000	0.007280
1785.000000	0.007247
1784.000000	0.007222
1783.000000	0.007210
1782.000000	0.007210
1781.000000	0.007215
1780.000000	0.007216
1779.000000	0.007210
1778.000000	0.007197
1777.000000	0.007178
1776.000000	0.007141
1775.000000	0.007085
1774.000000	0.007042
1773.000000	0.007031
1772.000000	0.007025
1771.000000	0.007009
1770.000000	0.007001
1769.000000	0.007019
1768.000000	0.007050
1767.000000	0.007065
1766.000000	0.007060
1765.000000	0.007055
1764.000000	0.007061
1763.000000	0.007065
1762.000000	0.007057
1761.000000	0.007054
1760.000000	0.007076
1759.000000	0.007127
1758.000000	0.007218
1757.000000	0.007349
1756.000000	0.007481
1755.000000	0.007579
1754.000000	0.007673
1753.000000	0.007830
1752.000000	0.008067
1751.000000	0.008313
1750.000000	0.008505
1749.000000	0.008653
1748.000000	0.008779
1747.000000	0.008885
1746.000000	0.008991
1745.000000	0.009115
1744.000000	0.009228
1743.000000	0.009286
1742.000000	0.009308
1741.000000	0.009360
1740.000000	0.009458
1739.000000	0.009544
1738.000000	0.009578
1737.000000	0.009583
1736.000000	0.009596
1735.000000	0.009613
1734.000000	0.009589
1733.000000	0.009557
1732.000000	0.009551
1731.000000	0.009521
1730.000000	0.009442
1729.000000	0.009349
1728.000000	0.009280
1727.000000	0.009228
1726.000000	0.009190
1725.000000	0.009176
1724.000000	0.009176
1723.000000	0.009162
1722.000000	0.009125
1721.000000	0.009091
1720.000000	0.009073
1719.000000	0.009054
1718.000000	0.009030
1717.000000	0.009049
1716.000000	0.009146
1715.000000	0.009272
1714.000000	0.009388
1713.000000	0.009512
1712.000000	0.009667
1711.000000	0.009838
1710.000000	0.010008
1709.000000	0.010187
1708.000000	0.010390
1707.000000	0.010620
1706.000000	0.010872
1705.000000	0.011139
1704.000000	0.011396
1703.000000	0.011652
1702.000000	0.012014
1701.000000	0.012575
1700.000000	0.013166
1699.000000	0.013589
1698.000000	0.013918
1697.000000	0.014336
1696.000000	0.014928
1695.000000	0.015583
1694.000000	0.016167
1693.000000	0.016681
1692.000000	0.017187
1691.000000	0.017711
1690.000000	0.018235
1689.000000	0.018720
1688.000000	0.019134
1687.000000	0.019506
1686.000000	0.019978
1685.000000	0.020690
1684.000000	0.021534
1683.000000	0.022273
1682.000000	0.022867
1681.000000	0.023419
1680.000000	0.023992
1679.000000	0.024558
1678.000000	0.025119
1677.000000	0.025759
1676.000000	0.026528
1675.000000	0.027312
1674.000000	0.027987
1673.000000	0.028589
1672.000000	0.029217
1671.000000	0.029916
1670.000000	0.030675
1669.000000	0.031462
1668.000000	0.032218
1667.000000	0.032879
1666.000000	0.033463
1665.000000	0.034063
1664.000000	0.034750
1663.000000	0.035481
1662.000000	0.036175
1661.000000	0.036821
1660.000000	0.037445
1659.000000	0.038045
1658.000000	0.038592
1657.000000	0.039063
1656.000000	0.039457
1655.000000	0.039840
1654.000000	0.040291
1653.000000	0.040809
1652.000000	0.041340
1651.000000	0.041797
1650.000000	0.042162
1649.000000	0.042480
1648.000000	0.042756
1647.000000	0.042944
1646.000000	0.043040
1645.000000	0.043123
1644.000000	0.043225
1643.000000	0.043311
1642.000000	0.043351
1641.000000	0.043358
1640.000000	0.043348
1639.000000	0.043312
1638.000000	0.043233
1637.000000	0.043106
1636.000000	0.042911
1635.000000	0.042669
1634.000000	0.042440
1633.000000	0.042240
1632.000000	0.042043
1631.000000	0.041805
1630.000000	0.041491
1629.000000	0.041091
1628.000000	0.040626
1627.000000	0.040135
1626.000000	0.039642
1625.000000	0.039129
1624.000000	0.038544
1623.000000	0.037866
1622.000000	0.037167
1621.000000	0.036528
1620.000000	0.035934
1619.000000	0.035307
1618.000000	0.034570
1617.000000	0.033731
1616.000000	0.032944
1615.000000	0.032332
1614.000000	0.031836
1613.000000	0.031347
1612.000000	0.030824
1611.000000	0.030273
1610.000000	0.029716
1609.000000	0.029166
1608.000000	0.028641
1607.000000	0.028159
1606.000000	0.027725
1605.000000	0.027322
1604.000000	0.026935
1603.000000	0.026569
1602.000000	0.026236
1601.000000	0.025948
1600.000000	0.025709
1599.000000	0.025513
1598.000000	0.025341
1597.000000	0.025171
1596.000000	0.024999
1595.000000	0.024849
1594.000000	0.024739
1593.000000	0.024665
1592.000000	0.024615
1591.000000	0.024581
1590.000000	0.024560
1589.000000	0.024549
1588.000000	0.024560
1587.000000	0.024613
1586.000000	0.024704
1585.000000	0.024812
1584.000000	0.024927
1583.000000	0.025064
1582.000000	0.025243
1581.000000	0.025452
1580.000000	0.025656
1579.000000	0.025837
1578.000000	0.026013
1577.000000	0.026213
1576.000000	0.026443
1575.000000	0.026692
1574.000000	0.026937
1573.000000	0.027161
1572.000000	0.027379
1571.000000	0.027625
1570.000000	0.027902
1569.000000	0.028188
1568.000000	0.028480
1567.000000	0.028796
1566.000000	0.029150
1565.000000	0.029525
1564.000000	0.029867
1563.000000	0.030134
1562.000000	0.030363
1561.000000	0.030677
1560.000000	0.031185
1559.000000	0.031751
1558.000000	0.032255
1557.000000	0.032707
1556.000000	0.033115
1555.000000	0.033525
1554.000000	0.033954
1553.000000	0.034386
1552.000000	0.034805
1551.000000	0.035214
1550.000000	0.035596
1549.000000	0.035929
1548.000000	0.036216
1547.000000	0.036494
1546.000000	0.036781
1545.000000	0.037043
1544.000000	0.037241
1543.000000	0.037396
1542.000000	0.037544
1541.000000	0.037660
1540.000000	0.037687
1539.000000	0.037668
1538.000000	0.037657
1537.000000	0.037640
1536.000000	0.037588
1535.000000	0.037470
1534.000000	0.037258
1533.000000	0.036970
1532.000000	0.036698
1531.000000	0.036492
1530.000000	0.036329
1529.000000	0.036165
1528.000000	0.035957
1527.000000	0.035697
1526.000000	0.035418
1525.000000	0.035157
1524.000000	0.034912
1523.000000	0.034649
1522.000000	0.034338
1521.000000	0.034024
1520.000000	0.033801
1519.000000	0.033677
1518.000000	0.033570
1517.000000	0.033403
1516.000000	0.033161
1515.000000	0.032884
1514.000000	0.032592
1513.000000	0.032271
1512.000000	0.031908
1511.000000	0.031514
1510.000000	0.031118
1509.000000	0.030712
1508.000000	0.030214
1507.000000	0.029543
1506.000000	0.028878
1505.000000	0.028413
1504.000000	0.028096
1503.000000	0.027815
1502.000000	0.027509
1501.000000	0.027167
1500.000000	0.026794
1499.000000	0.026378
1498.000000	0.025916
1497.000000	0.025444
1496.000000	0.025027
1495.000000	0.024701
1494.000000	0.024448
1493.000000	0.024227
1492.000000	0.023995
1491.000000	0.023713
1490.000000	0.023384
1489.000000	0.023087
1488.000000	0.022875
1487.000000	0.022724
1486.000000	0.022602
1485.000000	0.022517
1484.000000	0.022482
1483.000000	0.022496
1482.000000	0.022549
1481.000000	0.022648
1480.000000	0.022798
1479.000000	0.023001
1478.000000	0.023257
1477.000000	0.023551
1476.000000	0.023853
1475.000000	0.024170
1474.000000	0.024567
1473.000000	0.025087
1472.000000	0.025668
1471.000000	0.026207
1470.000000	0.026671
1469.000000	0.027081
1468.000000	0.027455
1467.000000	0.027800
1466.000000	0.028130
1465.000000	0.028434
1464.000000	0.028680
1463.000000	0.028867
1462.000000	0.029035
1461.000000	0.029215
1460.000000	0.029407
1459.000000	0.029625
1458.000000	0.029926
1457.000000	0.030322
1456.000000	0.030709
1455.000000	0.030996
1454.000000	0.031207
1453.000000	0.031377
1452.000000	0.031499
1451.000000	0.031563
1450.000000	0.031594
1449.000000	0.031612
1448.000000	0.031600
1447.000000	0.031540
1446.000000	0.031467
1445.000000	0.031417
1444.000000	0.031388
1443.000000	0.031363
1442.000000	0.031333
1441.000000	0.031290
1440.000000	0.031217
1439.000000	0.031112
1438.000000	0.030998
1437.000000	0.030876
1436.000000	0.030724
1435.000000	0.030564
1434.000000	0.030431
1433.000000	0.030330
1432.000000	0.030231
1431.000000	0.030107
1430.000000	0.029967
1429.000000	0.029844
1428.000000	0.029757
1427.000000	0.029699
1426.000000	0.029671
1425.000000	0.029663
1424.000000	0.029637
1423.000000	0.029569
1422.000000	0.029490
1421.000000	0.029462
1420.000000	0.029504
1419.000000	0.029554
1418.000000	0.029573
1417.000000	0.029576
1416.000000	0.029567
1415.000000	0.029546
1414.000000	0.029527
1413.000000	0.029521
1412.000000	0.029510
1411.000000	0.029470
1410.000000	0.029404
1409.000000	0.029335
1408.000000	0.029272
1407.000000	0.029206
1406.000000	0.029130
1405.000000	0.029041
1404.000000	0.028934
1403.000000	0.028820
1402.000000	0.028725
1401.000000	0.028661
1400.000000	0.028596
1399.000000	0.028481
1398.000000	0.028311
1397.000000	0.028112
1396.000000	0.027889
1395.000000	0.027642
1394.000000	0.027400
1393.000000	0.027191
1392.000000	0.027001
1391.000000	0.026804
1390.000000	0.026599
1389.000000	0.026394
1388.000000	0.026178
1387.000000	0.025933
1386.000000	0.025676
1385.000000	0.025437
1384.000000	0.025220
1383.000000	0.025011
1382.000000	0.024805
1381.000000	0.024602
1380.000000	0.024402
1379.000000	0.024198
1378.000000	0.023985
1377.000000	0.023761
1376.000000	0.023516
1375.000000	0.023238
1374.000000	0.022940
1373.000000	0.022657
1372.000000	0.022409
1371.000000	0.022194
1370.000000	0.021992
1369.000000	0.021781
1368.000000	0.021547
1367.000000	0.021292
1366.000000	0.021036
1365.000000	0.020798
1364.000000	0.020579
1363.000000	0.020375
1362.000000	0.020188
1361.000000	0.020022
1360.000000	0.019876
1359.000000	0.019747
1358.000000	0.019639
1357.000000	0.019551
1356.000000	0.019484
1355.000000	0.019443
1354.000000	0.019435
1353.000000	0.019464
1352.000000	0.019522
1351.000000	0.019596
1350.000000	0.019681
1349.000000	0.019781
1348.000000	0.019900
1347.000000	0.020027
1346.000000	0.020149
1345.000000	0.020274
1344.000000	0.020420
1343.000000	0.020596
1342.000000	0.020782
1341.000000	0.020941
1340.000000	0.021044
1339.000000	0.021092
1338.000000	0.021109
1337.000000	0.021118
1336.000000	0.021118
1335.000000	0.021090
1334.000000	0.021024
1333.000000	0.020927
1332.000000	0.020818
1331.000000	0.020711
1330.000000	0.020607
1329.000000	0.020501
1328.000000	0.020394
1327.000000	0.020288
1326.000000	0.020191
1325.000000	0.020116
1324.000000	0.020071
1323.000000	0.020054
1322.000000	0.020052
1321.000000	0.020051
1320.000000	0.020042
1319.000000	0.020017
1318.000000	0.019974
1317.000000	0.019921
1316.000000	0.019871
1315.000000	0.019828
1314.000000	0.019783
1313.000000	0.019718
1312.000000	0.019631
1311.000000	0.019535
1310.000000	0.019442
1309.000000	0.019351
1308.000000	0.019257
1307.000000	0.019157
1306.000000	0.019064
1305.000000	0.018991
1304.000000	0.018936
1303.000000	0.018882
1302.000000	0.018817
1301.000000	0.018745
1300.000000	0.018678
1299.000000	0.018618
1298.000000	0.018561
1297.000000	0.018508
1296.000000	0.018476
1295.000000	0.018480
1294.000000	0.018520
1293.000000	0.018576
1292.000000	0.018632
1291.000000	0.018681
1290.000000	0.018732
1289.000000	0.018800
1288.000000	0.018886
1287.000000	0.018982
1286.000000	0.019079
1285.000000	0.019173
1284.000000	0.019262
1283.000000	0.019341
1282.000000	0.019405
1281.000000	0.019457
1280.000000	0.019501
1279.000000	0.019544
1278.000000	0.019589
1277.000000	0.019642
1276.000000	0.019703
1275.000000	0.019760
1274.000000	0.019807
1273.000000	0.019849
1272.000000	0.019898
1271.000000	0.019961
1270.000000	0.020041
1269.000000	0.020138
1268.000000	0.020254
1267.000000	0.020384
1266.000000	0.020522
1265.000000	0.020669
1264.000000	0.020823
1263.000000	0.020971
1262.000000	0.021101
1261.000000	0.021212
1260.000000	0.021320
1259.000000	0.021441
1258.000000	0.021583
1257.000000	0.021742
1256.000000	0.021904
1255.000000	0.022051
1254.000000	0.022177
1253.000000	0.022297
1252.000000	0.022427
1251.000000	0.022568
1250.000000	0.022706
1249.000000	0.022838
1248.000000	0.022976
1247.000000	0.023132
1246.000000	0.023303
1245.000000	0.023473
1244.000000	0.023623
1243.000000	0.023734
1242.000000	0.023802
1241.000000	0.023836
1240.000000	0.023853
1239.000000	0.023859
1238.000000	0.023851
1237.000000	0.023821
1236.000000	0.023759
1235.000000	0.023656
1234.000000	0.023506
1233.000000	0.023318
1232.000000	0.023106
1231.000000	0.022884
1230.000000	0.022650
1229.000000	0.022394
1228.000000	0.022110
1227.000000	0.021808
1226.000000	0.021501
1225.000000	0.021195
1224.000000	0.020886
1223.000000	0.020569
1222.000000	0.020244
1221.000000	0.019909
1220.000000	0.019563
1219.000000	0.019222
1218.000000	0.018922
1217.000000	0.018694
1216.000000	0.018541
1215.000000	0.018437
1214.000000	0.018345
1213.000000	0.018249
1212.000000	0.018158
1211.000000	0.018087
1210.000000	0.018048
1209.000000	0.018037
1208.000000	0.018046
1207.000000	0.018067
1206.000000	0.018094
1205.000000	0.018122
1204.000000	0.018139
1203.000000	0.018136
1202.000000	0.018103
1201.000000	0.018037
1200.000000	0.017939
1199.000000	0.017821
1198.000000	0.017701
1197.000000	0.017593
1196.000000	0.017490
1195.000000	0.017368
1194.000000	0.017212
1193.000000	0.017032
1192.000000	0.016856
1191.000000	0.016705
1190.000000	0.016580
1189.000000	0.016470
1188.000000	0.016363
1187.000000	0.016255
1186.000000	0.016152
1185.000000	0.016059
1184.000000	0.015983
1183.000000	0.015928
1182.000000	0.015892
1181.000000	0.015872
1180.000000	0.015868
1179.000000	0.015885
1178.000000	0.015925
1177.000000	0.015983
1176.000000	0.016052
1175.000000	0.016121
1174.000000	0.016189
1173.000000	0.016260
1172.000000	0.016334
1171.000000	0.016405
1170.000000	0.016468
1169.000000	0.016521
1168.000000	0.016575
1167.000000	0.016642
1166.000000	0.016733
1165.000000	0.016850
1164.000000	0.016978
1163.000000	0.017102
1162.000000	0.017203
1161.000000	0.017273
1160.000000	0.017307
1159.000000	0.017307
1158.000000	0.017282
1157.000000	0.017242
1156.000000	0.017186
1155.000000	0.017108
1154.000000	0.017011
1153.000000	0.016908
1152.000000	0.016814
1151.000000	0.016726
1150.000000	0.016633
1149.000000	0.016525
1148.000000	0.016402
1147.000000	0.016269
1146.000000	0.016132
1145.000000	0.015993
1144.000000	0.015850
1143.000000	0.015705
1142.000000	0.015570
1141.000000	0.015463
1140.000000	0.015393
1139.000000	0.015344
1138.000000	0.015294
1137.000000	0.015241
1136.000000	0.015202
1135.000000	0.015191
1134.000000	0.015205
1133.000000	0.015236
1132.000000	0.015278
1131.000000	0.015326
1130.000000	0.015379
1129.000000	0.015440
1128.000000	0.015522
1127.000000	0.015631
1126.000000	0.015759
1125.000000	0.015892
1124.000000	0.016013
1123.000000	0.016112
1122.000000	0.016182
1121.000000	0.016234
1120.000000	0.016293
1119.000000	0.016378
1118.000000	0.016486
1117.000000	0.016596
1116.000000	0.016699
1115.000000	0.016794
1114.000000	0.016884
1113.000000	0.016973
1112.000000	0.017064
1111.000000	0.017157
1110.000000	0.017245
1109.000000	0.017319
1108.000000	0.017377
1107.000000	0.017428
1106.000000	0.017483
1105.000000	0.017545
1104.000000	0.017608
1103.000000	0.017665
1102.000000	0.017709
1101.000000	0.017741
1100.000000	0.017770
1099.000000	0.017814
1098.000000	0.017887
1097.000000	0.017983
1096.000000	0.018081
1095.000000	0.018165
1094.000000	0.018246
1093.000000	0.018343
1092.000000	0.018463
1091.000000	0.018600
1090.000000	0.018752
1089.000000	0.018932
1088.000000	0.019145
1087.000000	0.019372
1086.000000	0.019581
1085.000000	0.019760
1084.000000	0.019915
1083.000000	0.020051
1082.000000	0.020159
1081.000000	0.020225
1080.000000	0.020239
1079.000000	0.020193
1078.000000	0.020090
1077.000000	0.019951
1076.000000	0.019806
1075.000000	0.019664
1074.000000	0.019508
1073.000000	0.019323
1072.000000	0.019126
1071.000000	0.018959
1070.000000	0.018847
1069.000000	0.018784
1068.000000	0.018749
1067.000000	0.018729
1066.000000	0.018714
1065.000000	0.018701
1064.000000	0.018704
1063.000000	0.018757
1062.000000	0.018885
1061.000000	0.019062
1060.000000	0.019219
1059.000000	0.019299
1058.000000	0.019302
1057.000000	0.019277
1056.000000	0.019277
1055.000000	0.019325
1054.000000	0.019417
1053.000000	0.019532
1052.000000	0.019653
1051.000000	0.019771
1050.000000	0.019890
1049.000000	0.020017
1048.000000	0.020143
1047.000000	0.020250
1046.000000	0.020323
1045.000000	0.020370
1044.000000	0.020407
1043.000000	0.020446
1042.000000	0.020492
1041.000000	0.020551
1040.000000	0.020630
1039.000000	0.020739
1038.000000	0.020888
1037.000000	0.021077
1036.000000	0.021294
1035.000000	0.021519
1034.000000	0.021731
1033.000000	0.021933
1032.000000	0.022137
1031.000000	0.022344
1030.000000	0.022542
1029.000000	0.022717
1028.000000	0.022875
1027.000000	0.023029
1026.000000	0.023189
1025.000000	0.023365
1024.000000	0.023576
1023.000000	0.023851
1022.000000	0.024198
1021.000000	0.024590
1020.000000	0.024968
1019.000000	0.025268
1018.000000	0.025443
1017.000000	0.025462
1016.000000	0.025308
1015.000000	0.024980
1014.000000	0.024506
1013.000000	0.023940
1012.000000	0.023343
1011.000000	0.022760
1010.000000	0.022203
1009.000000	0.021669
1008.000000	0.021150
1007.000000	0.020655
1006.000000	0.020195
1005.000000	0.019773
1004.000000	0.019384
1003.000000	0.019034
1002.000000	0.018722
1001.000000	0.018439
1000.000000	0.018167
999.000000	0.017899
998.000000	0.017645
997.000000	0.017412
996.000000	0.017186
995.000000	0.016949
994.000000	0.016692
993.000000	0.016425
992.000000	0.016158
991.000000	0.015899
990.000000	0.015657
989.000000	0.015441
988.000000	0.015253
987.000000	0.015078
986.000000	0.014891
985.000000	0.014678
984.000000	0.014451
983.000000	0.014235
982.000000	0.014045
981.000000	0.013877
980.000000	0.013719
979.000000	0.013572
978.000000	0.013439
977.000000	0.013315
976.000000	0.013185
975.000000	0.013048
974.000000	0.012918
973.000000	0.012806
972.000000	0.012699
971.000000	0.012571
970.000000	0.012417
969.000000	0.012248
968.000000	0.012083
967.000000	0.011927
966.000000	0.011778
965.000000	0.011634
964.000000	0.011491
963.000000	0.011343
962.000000	0.011187
961.000000	0.011025
960.000000	0.010862
959.000000	0.010707
958.000000	0.010566
957.000000	0.010447
956.000000	0.010348
955.000000	0.010255
954.000000	0.010153
953.000000	0.010043
952.000000	0.009936
951.000000	0.009848
950.000000	0.009779
949.000000	0.009716
948.000000	0.009646
947.000000	0.009567
946.000000	0.009488
945.000000	0.009427
944.000000	0.009396
943.000000	0.009388
942.000000	0.009388
941.000000	0.009384
940.000000	0.009378
939.000000	0.009373
938.000000	0.009362
937.000000	0.009321
936.000000	0.009236
935.000000	0.009128
934.000000	0.009044
933.000000	0.009020
932.000000	0.009039
931.000000	0.009050
930.000000	0.009013
929.000000	0.008940
928.000000	0.008869
927.000000	0.008823
926.000000	0.008794
925.000000	0.008769
924.000000	0.008745
923.000000	0.008718
922.000000	0.008677
921.000000	0.008622
920.000000	0.008566
919.000000	0.008517
918.000000	0.008457
917.000000	0.008368
916.000000	0.008264
915.000000	0.008180
914.000000	0.008123
913.000000	0.008069
912.000000	0.007989
911.000000	0.007880
910.000000	0.007756
909.000000	0.007645
908.000000	0.007579
907.000000	0.007574
906.000000	0.007608
905.000000	0.007627
904.000000	0.007593
903.000000	0.007521
902.000000	0.007452
901.000000	0.007414
900.000000	0.007401
899.000000	0.007392
898.000000	0.007371
897.000000	0.007327
896.000000	0.007263
895.000000	0.007190
894.000000	0.007122
893.000000	0.007060
892.000000	0.007000
891.000000	0.006944
890.000000	0.006903
889.000000	0.006896
888.000000	0.006942
887.000000	0.007056
886.000000	0.007235
885.000000	0.007466
884.000000	0.007737
883.000000	0.008043
882.000000	0.008398
881.000000	0.008827
880.000000	0.009349
879.000000	0.009942
878.000000	0.010512
877.000000	0.010938
876.000000	0.011133
875.000000	0.011092
874.000000	0.010857
873.000000	0.010469
872.000000	0.009959
871.000000	0.009381
870.000000	0.008823
869.000000	0.008372
868.000000	0.008066
867.000000	0.007882
866.000000	0.007768
865.000000	0.007682
864.000000	0.007612
863.000000	0.007557
862.000000	0.007510
861.000000	0.007454
860.000000	0.007383
859.000000	0.007319
858.000000	0.007288
857.000000	0.007297
856.000000	0.007327
855.000000	0.007356
854.000000	0.007373
853.000000	0.007387
852.000000	0.007409
851.000000	0.007444
850.000000	0.007484
849.000000	0.007506
848.000000	0.007486
847.000000	0.007411
846.000000	0.007295
845.000000	0.007176
844.000000	0.007090
843.000000	0.007051
842.000000	0.007048
841.000000	0.007061
840.000000	0.007072
839.000000	0.007072
838.000000	0.007059
837.000000	0.007038
836.000000	0.007022
835.000000	0.007023
834.000000	0.007035
833.000000	0.007041
832.000000	0.007033
831.000000	0.007021
830.000000	0.007022
829.000000	0.007035
828.000000	0.007042
827.000000	0.007030
826.000000	0.007009
825.000000	0.007006
824.000000	0.007034
823.000000	0.007084
822.000000	0.007131
821.000000	0.007160
820.000000	0.007167
819.000000	0.007147
818.000000	0.007095
817.000000	0.007015
816.000000	0.006938
815.000000	0.006905
814.000000	0.006940
813.000000	0.007026
812.000000	0.007120
811.000000	0.007179
810.000000	0.007187
809.000000	0.007158
808.000000	0.007115
807.000000	0.007080
806.000000	0.007058
805.000000	0.007043
804.000000	0.007026
803.000000	0.006997
802.000000	0.006965
801.000000	0.006957
800.000000	0.007000
799.000000	0.007082
798.000000	0.007163
797.000000	0.007215
796.000000	0.007250
795.000000	0.007284
794.000000	0.007307
793.000000	0.007302
792.000000	0.007285
791.000000	0.007294
790.000000	0.007336
789.000000	0.007376
788.000000	0.007383
787.000000	0.007368
786.000000	0.007360
785.000000	0.007366
784.000000	0.007372
783.000000	0.007377
782.000000	0.007392
781.000000	0.007418
780.000000	0.007443
779.000000	0.007458
778.000000	0.007473
777.000000	0.007496
776.000000	0.007520
775.000000	0.007536
774.000000	0.007542
773.000000	0.007545
772.000000	0.007541
771.000000	0.007522
770.000000	0.007499
769.000000	0.007494
768.000000	0.007518
767.000000	0.007547
766.000000	0.007547
765.000000	0.007518
764.000000	0.007494
763.000000	0.007508
762.000000	0.007560
761.000000	0.007618
760.000000	0.007656
759.000000	0.007673
758.000000	0.007687
757.000000	0.007713
756.000000	0.007742
755.000000	0.007745
754.000000	0.007696
753.000000	0.007610
752.000000	0.007542
751.000000	0.007543
750.000000	0.007621
749.000000	0.007738
748.000000	0.007845
747.000000	0.007906
746.000000	0.007914
745.000000	0.007888
744.000000	0.007864
743.000000	0.007873
742.000000	0.007924
741.000000	0.008013
740.000000	0.008126
739.000000	0.008245
738.000000	0.008355
737.000000	0.008462
736.000000	0.008591
735.000000	0.008753
734.000000	0.008918
733.000000	0.009045
732.000000	0.009132
731.000000	0.009215
730.000000	0.009322
729.000000	0.009460
728.000000	0.009622
727.000000	0.009792
726.000000	0.009959
725.000000	0.010134
724.000000	0.010340
723.000000	0.010579
722.000000	0.010809
721.000000	0.010982
720.000000	0.011067
719.000000	0.011061
718.000000	0.010977
717.000000	0.010856
716.000000	0.010769
715.000000	0.010774
714.000000	0.010841
713.000000	0.010883
712.000000	0.010852
711.000000	0.010790
710.000000	0.010764
709.000000	0.010794
708.000000	0.010853
707.000000	0.010902
706.000000	0.010930
705.000000	0.010961
704.000000	0.011022
703.000000	0.011115
702.000000	0.011199
701.000000	0.011221
700.000000	0.011175
699.000000	0.011099
698.000000	0.011036
697.000000	0.011007
696.000000	0.011016
695.000000	0.011060
694.000000	0.011098
693.000000	0.011057
692.000000	0.010923
691.000000	0.010769
690.000000	0.010686
689.000000	0.010706
688.000000	0.010799
687.000000	0.010926
686.000000	0.011048
685.000000	0.011115
684.000000	0.011120
683.000000	0.011108
682.000000	0.011130
681.000000	0.011201
680.000000	0.011323
679.000000	0.011468
678.000000	0.011563
677.000000	0.011593
676.000000	0.011635
675.000000	0.011778
674.000000	0.011992
673.000000	0.012158
672.000000	0.012188
671.000000	0.012085
670.000000	0.011862
669.000000	0.011541
668.000000	0.011393
667.000000	0.011681
666.000000	0.011929
665.000000	0.012099
664.000000	0.012297
663.000000	0.012433
662.000000	0.012420
661.000000	0.012299
660.000000	0.012162
659.000000	0.012033
658.000000	0.011888
657.000000	0.011770
656.000000	0.011727
655.000000	0.011725
654.000000	0.011715
653.000000	0.011700
652.000000	0.011685
651.000000	0.011650
650.000000	0.011607
649.000000	0.011594
648.000000	0.011584
647.000000	0.011505
646.000000	0.011373
645.000000	0.011299
644.000000	0.011348
643.000000	0.011478
642.000000	0.011614
641.000000	0.011714
640.000000	0.011755
639.000000	0.011716
638.000000	0.011628
637.000000	0.011563
636.000000	0.011560
635.000000	0.011604
634.000000	0.011676
633.000000	0.011755
632.000000	0.011789
631.000000	0.011739
630.000000	0.011646
629.000000	0.011586
628.000000	0.011571
627.000000	0.011566
626.000000	0.011594
625.000000	0.011714
624.000000	0.011906
623.000000	0.012059
622.000000	0.012089
621.000000	0.012000
620.000000	0.011835
619.000000	0.011661
618.000000	0.011562
617.000000	0.011586
616.000000	0.011673
615.000000	0.011729
614.000000	0.011755
613.000000	0.011829
612.000000	0.011963
611.000000	0.012078
610.000000	0.012119
609.000000	0.012101
608.000000	0.012038
607.000000	0.011920
606.000000	0.011799
605.000000	0.011771
604.000000	0.011846
603.000000	0.011927
602.000000	0.011933
601.000000	0.011857
600.000000	0.011721
599.000000	0.011544
598.000000	0.011385
597.000000	0.011313
596.000000	0.011293
595.000000	0.011212
594.000000	0.011038
593.000000	0.010902
592.000000	0.010931
591.000000	0.011089
590.000000	0.011241
589.000000	0.011301
588.000000	0.011268
587.000000	0.011159
586.000000	0.011002
585.000000	0.010851
584.000000	0.010755
583.000000	0.010731
582.000000	0.010783
581.000000	0.010908
580.000000	0.011054
579.000000	0.011130
578.000000	0.011099
577.000000	0.011006
576.000000	0.010917
575.000000	0.010872
574.000000	0.010918
573.000000	0.011085
572.000000	0.011318
571.000000	0.011482
570.000000	0.011508
569.000000	0.011448
568.000000	0.011372
567.000000	0.011281
566.000000	0.011191
565.000000	0.011194
564.000000	0.011353
563.000000	0.011592
562.000000	0.011762
561.000000	0.011786
560.000000	0.011688
559.000000	0.011532
558.000000	0.011394
557.000000	0.011350
556.000000	0.011410
555.000000	0.011490
554.000000	0.011487
553.000000	0.011367
552.000000	0.011178
551.000000	0.011019
550.000000	0.010982
549.000000	0.011083
548.000000	0.011229
547.000000	0.011309
546.000000	0.011316
545.000000	0.011328
544.000000	0.011367
543.000000	0.011381
542.000000	0.011355
541.000000	0.011339
540.000000	0.011340
539.000000	0.011298
538.000000	0.011201
537.000000	0.011133
536.000000	0.011154
535.000000	0.011233
534.000000	0.011341
533.000000	0.011488
532.000000	0.011629
531.000000	0.011637
530.000000	0.011455
529.000000	0.011184
528.000000	0.010949
527.000000	0.010772
526.000000	0.010615
525.000000	0.010484
524.000000	0.010397
523.000000	0.010337
522.000000	0.010296
521.000000	0.010270
520.000000	0.010178
519.000000	0.009898
518.000000	0.009451
517.000000	0.009047
516.000000	0.008849
515.000000	0.008805
514.000000	0.008777
513.000000	0.008708
512.000000	0.008597
511.000000	0.008426
510.000000	0.008230
509.000000	0.008131
508.000000	0.008219
507.000000	0.008417
506.000000	0.008557
505.000000	0.008553
504.000000	0.008428
503.000000	0.008229
502.000000	0.008031
501.000000	0.007929
500.000000	0.007942
499.000000	0.007973
498.000000	0.007921
497.000000	0.007761
496.000000	0.007503
495.000000	0.007168
494.000000	0.006868
493.000000	0.006784
492.000000	0.006963
491.000000	0.007209
490.000000	0.007298
489.000000	0.007223
488.000000	0.007111
487.000000	0.007010
486.000000	0.006881
485.000000	0.006761
484.000000	0.006773
483.000000	0.006964
482.000000	0.007240
481.000000	0.007459
480.000000	0.007522
479.000000	0.007409
478.000000	0.007224
477.000000	0.007138
476.000000	0.007200
475.000000	0.007294
474.000000	0.007343
473.000000	0.007450
472.000000	0.007728
471.000000	0.008083
470.000000	0.008374
469.000000	0.008643
468.000000	0.008975
467.000000	0.009288
466.000000	0.009445
465.000000	0.009463
464.000000	0.009399
463.000000	0.009132
462.000000	0.008513
461.000000	0.007681
460.000000	0.006983
459.000000	0.006634
458.000000	0.006606
457.000000	0.006764
456.000000	0.006973
455.000000	0.007123
454.000000	0.007191
453.000000	0.007265
452.000000	0.007392
451.000000	0.007402
450.000000	0.007066
