PE IR       SUBTECH     SPECTRUM    ASCII       PEDS        4.00        
   -1
3C-YYX-F014_1.ASC
23/09/07
11:03:54.00
23/09/07
11:30:09.00
uco
Sample 014 By uco Date Thursday, September 07 2023
450.000000
#HDR
-1
-1
#GR
cm-1
%T
1.0
0.0
4000.000000
-1.000000
3551
8
98.812411
83.041801
#DATA
4000.000000	98.739844
3999.000000	98.738124
3998.000000	98.734927
3997.000000	98.731591
3996.000000	98.728853
3995.000000	98.726436
3994.000000	98.723687
3993.000000	98.720435
3992.000000	98.717012
3991.000000	98.713490
3990.000000	98.709359
3989.000000	98.704453
3988.000000	98.700123
3987.000000	98.698790
3986.000000	98.701817
3985.000000	98.707848
3984.000000	98.713757
3983.000000	98.717487
3982.000000	98.719576
3981.000000	98.721658
3980.000000	98.723841
3979.000000	98.724025
3978.000000	98.720055
3977.000000	98.712233
3976.000000	98.703536
3975.000000	98.697555
3974.000000	98.696112
3973.000000	98.698515
3972.000000	98.702562
3971.000000	98.706040
3970.000000	98.707733
3969.000000	98.707608
3968.000000	98.706428
3967.000000	98.705088
3966.000000	98.703953
3965.000000	98.702696
3964.000000	98.700692
3963.000000	98.697665
3962.000000	98.694122
3961.000000	98.691133
3960.000000	98.689498
3959.000000	98.689116
3958.000000	98.689061
3957.000000	98.688276
3956.000000	98.686461
3955.000000	98.684365
3954.000000	98.683158
3953.000000	98.683400
3952.000000	98.684510
3951.000000	98.685235
3950.000000	98.684705
3949.000000	98.683190
3948.000000	98.681792
3947.000000	98.681172
3946.000000	98.680825
3945.000000	98.680013
3944.000000	98.679321
3943.000000	98.680719
3942.000000	98.685473
3941.000000	98.692384
3940.000000	98.698221
3939.000000	98.699804
3938.000000	98.695975
3937.000000	98.688079
3936.000000	98.679166
3935.000000	98.672846
3934.000000	98.672240
3933.000000	98.678791
3932.000000	98.690928
3931.000000	98.704004
3930.000000	98.712609
3929.000000	98.713676
3928.000000	98.708094
3927.000000	98.699999
3926.000000	98.694304
3925.000000	98.693504
3924.000000	98.696208
3923.000000	98.699229
3922.000000	98.700551
3921.000000	98.699449
3920.000000	98.695123
3919.000000	98.687002
3918.000000	98.677001
3917.000000	98.669893
3916.000000	98.669327
3915.000000	98.673976
3914.000000	98.678892
3913.000000	98.680306
3912.000000	98.678113
3911.000000	98.675054
3910.000000	98.673837
3909.000000	98.675003
3908.000000	98.676900
3907.000000	98.677214
3906.000000	98.674937
3905.000000	98.671444
3904.000000	98.669552
3903.000000	98.671040
3902.000000	98.675171
3901.000000	98.679811
3900.000000	98.683858
3899.000000	98.687593
3898.000000	98.691460
3897.000000	98.695361
3896.000000	98.698682
3895.000000	98.700947
3894.000000	98.702050
3893.000000	98.702247
3892.000000	98.701888
3891.000000	98.701465
3890.000000	98.701255
3889.000000	98.700379
3888.000000	98.697300
3887.000000	98.692601
3886.000000	98.689453
3885.000000	98.689703
3884.000000	98.691464
3883.000000	98.691456
3882.000000	98.688315
3881.000000	98.683493
3880.000000	98.679241
3879.000000	98.676533
3878.000000	98.674663
3877.000000	98.672549
3876.000000	98.671508
3875.000000	98.675321
3874.000000	98.684994
3873.000000	98.695401
3872.000000	98.699943
3871.000000	98.697717
3870.000000	98.694158
3869.000000	98.694394
3868.000000	98.697935
3867.000000	98.701057
3866.000000	98.702312
3865.000000	98.703491
3864.000000	98.705468
3863.000000	98.706054
3862.000000	98.702914
3861.000000	98.696865
3860.000000	98.691309
3859.000000	98.689416
3858.000000	98.691600
3857.000000	98.694839
3856.000000	98.694892
3855.000000	98.690274
3854.000000	98.683512
3853.000000	98.677272
3852.000000	98.673490
3851.000000	98.673309
3850.000000	98.675444
3849.000000	98.678587
3848.000000	98.682263
3847.000000	98.686012
3846.000000	98.689264
3845.000000	98.691830
3844.000000	98.694061
3843.000000	98.696519
3842.000000	98.699008
3841.000000	98.700846
3840.000000	98.701654
3839.000000	98.701930
3838.000000	98.702894
3837.000000	98.705675
3836.000000	98.710209
3835.000000	98.714847
3834.000000	98.717068
3833.000000	98.715198
3832.000000	98.709665
3831.000000	98.702435
3830.000000	98.695451
3829.000000	98.689596
3828.000000	98.685473
3827.000000	98.684502
3826.000000	98.687450
3825.000000	98.692573
3824.000000	98.696488
3823.000000	98.697979
3822.000000	98.699337
3821.000000	98.702232
3820.000000	98.704311
3819.000000	98.702583
3818.000000	98.696281
3817.000000	98.687157
3816.000000	98.678955
3815.000000	98.673437
3814.000000	98.669678
3813.000000	98.667222
3812.000000	98.667405
3811.000000	98.671796
3810.000000	98.679483
3809.000000	98.686879
3808.000000	98.690991
3807.000000	98.692463
3806.000000	98.694421
3805.000000	98.698464
3804.000000	98.703487
3803.000000	98.709306
3802.000000	98.717440
3801.000000	98.725790
3800.000000	98.728307
3799.000000	98.722266
3798.000000	98.709784
3797.000000	98.695914
3796.000000	98.685682
3795.000000	98.680618
3794.000000	98.679065
3793.000000	98.679176
3792.000000	98.680443
3791.000000	98.682770
3790.000000	98.685366
3789.000000	98.686954
3788.000000	98.687094
3787.000000	98.686453
3786.000000	98.686009
3785.000000	98.686184
3784.000000	98.686731
3783.000000	98.687393
3782.000000	98.688370
3781.000000	98.690002
3780.000000	98.691801
3779.000000	98.692292
3778.000000	98.690579
3777.000000	98.687783
3776.000000	98.686018
3775.000000	98.686896
3774.000000	98.690230
3773.000000	98.693485
3772.000000	98.693246
3771.000000	98.688544
3770.000000	98.682750
3769.000000	98.681272
3768.000000	98.686899
3767.000000	98.697573
3766.000000	98.708367
3765.000000	98.714714
3764.000000	98.714943
3763.000000	98.710451
3762.000000	98.704179
3761.000000	98.699092
3760.000000	98.696093
3759.000000	98.693827
3758.000000	98.691891
3757.000000	98.692459
3756.000000	98.696897
3755.000000	98.703555
3754.000000	98.710047
3753.000000	98.715878
3752.000000	98.721423
3751.000000	98.724677
3750.000000	98.723129
3749.000000	98.719220
3748.000000	98.716817
3747.000000	98.715570
3746.000000	98.714043
3745.000000	98.713189
3744.000000	98.714253
3743.000000	98.717574
3742.000000	98.722143
3741.000000	98.725449
3740.000000	98.726521
3739.000000	98.726643
3738.000000	98.728085
3737.000000	98.733133
3736.000000	98.741861
3735.000000	98.749313
3734.000000	98.749628
3733.000000	98.743159
3732.000000	98.735547
3731.000000	98.731289
3730.000000	98.730152
3729.000000	98.729184
3728.000000	98.726886
3727.000000	98.724357
3726.000000	98.722827
3725.000000	98.721813
3724.000000	98.720698
3723.000000	98.720302
3722.000000	98.721741
3721.000000	98.725247
3720.000000	98.729844
3719.000000	98.733746
3718.000000	98.735506
3717.000000	98.734922
3716.000000	98.732876
3715.000000	98.730307
3714.000000	98.727212
3713.000000	98.722990
3712.000000	98.717575
3711.000000	98.712315
3710.000000	98.708902
3709.000000	98.707463
3708.000000	98.707024
3707.000000	98.706931
3706.000000	98.707339
3705.000000	98.708935
3704.000000	98.712170
3703.000000	98.716382
3702.000000	98.720040
3701.000000	98.722533
3700.000000	98.725080
3699.000000	98.728163
3698.000000	98.729975
3697.000000	98.728435
3696.000000	98.723459
3695.000000	98.717272
3694.000000	98.713317
3693.000000	98.715152
3692.000000	98.724535
3691.000000	98.738878
3690.000000	98.750048
3689.000000	98.749366
3688.000000	98.737018
3687.000000	98.721743
3686.000000	98.710042
3685.000000	98.702292
3684.000000	98.696640
3683.000000	98.691703
3682.000000	98.687165
3681.000000	98.683490
3680.000000	98.681349
3679.000000	98.679911
3678.000000	98.677077
3677.000000	98.672905
3676.000000	98.670593
3675.000000	98.670537
3674.000000	98.669430
3673.000000	98.665681
3672.000000	98.659932
3671.000000	98.655845
3670.000000	98.656439
3669.000000	98.657674
3668.000000	98.653928
3667.000000	98.645000
3666.000000	98.633596
3665.000000	98.622883
3664.000000	98.615148
3663.000000	98.610600
3662.000000	98.607894
3661.000000	98.605942
3660.000000	98.604921
3659.000000	98.604972
3658.000000	98.605086
3657.000000	98.603754
3656.000000	98.600942
3655.000000	98.598553
3654.000000	98.597445
3653.000000	98.595661
3652.000000	98.591134
3651.000000	98.583898
3650.000000	98.574962
3649.000000	98.564998
3648.000000	98.554990
3647.000000	98.545409
3646.000000	98.535366
3645.000000	98.524091
3644.000000	98.512494
3643.000000	98.503310
3642.000000	98.498838
3641.000000	98.498339
3640.000000	98.498835
3639.000000	98.498211
3638.000000	98.496123
3637.000000	98.492341
3636.000000	98.486171
3635.000000	98.477932
3634.000000	98.469463
3633.000000	98.461657
3632.000000	98.452539
3631.000000	98.439681
3630.000000	98.424500
3629.000000	98.412055
3628.000000	98.405245
3627.000000	98.402556
3626.000000	98.400249
3625.000000	98.395447
3624.000000	98.389054
3623.000000	98.383973
3622.000000	98.381333
3621.000000	98.379377
3620.000000	98.375099
3619.000000	98.367067
3618.000000	98.357119
3617.000000	98.347710
3616.000000	98.338412
3615.000000	98.327222
3614.000000	98.313746
3613.000000	98.299528
3612.000000	98.286224
3611.000000	98.274233
3610.000000	98.262935
3609.000000	98.252525
3608.000000	98.244308
3607.000000	98.238994
3606.000000	98.235849
3605.000000	98.233159
3604.000000	98.229400
3603.000000	98.223599
3602.000000	98.215570
3601.000000	98.206324
3600.000000	98.197605
3599.000000	98.190128
3598.000000	98.182587
3597.000000	98.172676
3596.000000	98.159482
3595.000000	98.144898
3594.000000	98.132008
3593.000000	98.121957
3592.000000	98.112482
3591.000000	98.100153
3590.000000	98.083914
3589.000000	98.067163
3588.000000	98.055277
3587.000000	98.050019
3586.000000	98.047951
3585.000000	98.044773
3584.000000	98.038134
3583.000000	98.027305
3582.000000	98.012913
3581.000000	97.997095
3580.000000	97.983055
3579.000000	97.973437
3578.000000	97.968191
3577.000000	97.964212
3576.000000	97.957158
3575.000000	97.944500
3574.000000	97.927117
3573.000000	97.908375
3572.000000	97.891375
3571.000000	97.876985
3570.000000	97.864407
3569.000000	97.853352
3568.000000	97.844803
3567.000000	97.839104
3566.000000	97.834534
3565.000000	97.828659
3564.000000	97.819665
3563.000000	97.806654
3562.000000	97.790358
3561.000000	97.773305
3560.000000	97.758230
3559.000000	97.745706
3558.000000	97.733977
3557.000000	97.721339
3556.000000	97.707840
3555.000000	97.694324
3554.000000	97.680689
3553.000000	97.665996
3552.000000	97.650210
3551.000000	97.634542
3550.000000	97.619865
3549.000000	97.606182
3548.000000	97.593804
3547.000000	97.583920
3546.000000	97.577451
3545.000000	97.573984
3544.000000	97.571812
3543.000000	97.568283
3542.000000	97.560352
3541.000000	97.546479
3540.000000	97.528461
3539.000000	97.510594
3538.000000	97.496328
3537.000000	97.485667
3536.000000	97.475767
3535.000000	97.463649
3534.000000	97.448159
3533.000000	97.430462
3532.000000	97.413629
3531.000000	97.400929
3530.000000	97.393230
3529.000000	97.388115
3528.000000	97.382403
3527.000000	97.375030
3526.000000	97.366611
3525.000000	97.357039
3524.000000	97.345007
3523.000000	97.329900
3522.000000	97.313032
3521.000000	97.296666
3520.000000	97.282455
3519.000000	97.270867
3518.000000	97.261333
3517.000000	97.252679
3516.000000	97.243936
3515.000000	97.234940
3514.000000	97.225820
3513.000000	97.216123
3512.000000	97.205046
3511.000000	97.192711
3510.000000	97.180649
3509.000000	97.170614
3508.000000	97.163094
3507.000000	97.157212
3506.000000	97.151888
3505.000000	97.146619
3504.000000	97.141155
3503.000000	97.134711
3502.000000	97.126045
3501.000000	97.114502
3500.000000	97.100700
3499.000000	97.086237
3498.000000	97.072758
3497.000000	97.060936
3496.000000	97.049791
3495.000000	97.037281
3494.000000	97.022207
3493.000000	97.005947
3492.000000	96.991886
3491.000000	96.982539
3490.000000	96.976925
3489.000000	96.971060
3488.000000	96.961308
3487.000000	96.947079
3486.000000	96.930290
3485.000000	96.912862
3484.000000	96.895657
3483.000000	96.879663
3482.000000	96.867183
3481.000000	96.860844
3480.000000	96.861097
3479.000000	96.864883
3478.000000	96.867157
3477.000000	96.863969
3476.000000	96.854688
3475.000000	96.841959
3474.000000	96.829555
3473.000000	96.819592
3472.000000	96.811002
3471.000000	96.800405
3470.000000	96.785132
3469.000000	96.766147
3468.000000	96.748174
3467.000000	96.736327
3466.000000	96.732087
3465.000000	96.732446
3464.000000	96.732460
3463.000000	96.728573
3462.000000	96.720136
3461.000000	96.708632
3460.000000	96.695694
3459.000000	96.681767
3458.000000	96.666684
3457.000000	96.651280
3456.000000	96.637864
3455.000000	96.628624
3454.000000	96.623661
3453.000000	96.621050
3452.000000	96.618609
3451.000000	96.615403
3450.000000	96.611718
3449.000000	96.607991
3448.000000	96.603820
3447.000000	96.597942
3446.000000	96.589362
3445.000000	96.578498
3444.000000	96.566867
3443.000000	96.555948
3442.000000	96.546727
3441.000000	96.539886
3440.000000	96.535451
3439.000000	96.532111
3438.000000	96.527791
3437.000000	96.521529
3436.000000	96.514141
3435.000000	96.506487
3434.000000	96.497939
3433.000000	96.487551
3432.000000	96.475977
3431.000000	96.464982
3430.000000	96.455399
3429.000000	96.446743
3428.000000	96.438606
3427.000000	96.430954
3426.000000	96.423061
3425.000000	96.413769
3424.000000	96.403443
3423.000000	96.394446
3422.000000	96.388550
3421.000000	96.384394
3420.000000	96.378456
3419.000000	96.368503
3418.000000	96.355375
3417.000000	96.341636
3416.000000	96.329413
3415.000000	96.319474
3414.000000	96.311572
3413.000000	96.304948
3412.000000	96.298366
3411.000000	96.290238
3410.000000	96.279707
3409.000000	96.268003
3408.000000	96.257957
3407.000000	96.251222
3406.000000	96.246310
3405.000000	96.240216
3404.000000	96.231849
3403.000000	96.223035
3402.000000	96.216079
3401.000000	96.211290
3400.000000	96.206893
3399.000000	96.200413
3398.000000	96.189927
3397.000000	96.175216
3396.000000	96.158526
3395.000000	96.143537
3394.000000	96.132590
3393.000000	96.124815
3392.000000	96.117350
3391.000000	96.108421
3390.000000	96.098972
3389.000000	96.091275
3388.000000	96.086171
3387.000000	96.081756
3386.000000	96.074946
3385.000000	96.064603
3384.000000	96.052742
3383.000000	96.042206
3382.000000	96.033546
3381.000000	96.024951
3380.000000	96.014926
3379.000000	96.003869
3378.000000	95.992839
3377.000000	95.981808
3376.000000	95.969708
3375.000000	95.955670
3374.000000	95.939884
3373.000000	95.923808
3372.000000	95.909858
3371.000000	95.900011
3370.000000	95.893889
3369.000000	95.888523
3368.000000	95.880698
3367.000000	95.869492
3366.000000	95.856295
3365.000000	95.842952
3364.000000	95.830563
3363.000000	95.819416
3362.000000	95.808827
3361.000000	95.796957
3360.000000	95.781977
3359.000000	95.763986
3358.000000	95.745186
3357.000000	95.727613
3356.000000	95.711184
3355.000000	95.694634
3354.000000	95.677968
3353.000000	95.662919
3352.000000	95.650699
3351.000000	95.640174
3350.000000	95.628879
3349.000000	95.615374
3348.000000	95.600090
3347.000000	95.584262
3346.000000	95.568758
3345.000000	95.553799
3344.000000	95.538984
3343.000000	95.523597
3342.000000	95.507605
3341.000000	95.492311
3340.000000	95.479040
3339.000000	95.466953
3338.000000	95.453224
3337.000000	95.436060
3336.000000	95.416734
3335.000000	95.397857
3334.000000	95.380323
3333.000000	95.363035
3332.000000	95.345240
3331.000000	95.327855
3330.000000	95.312429
3329.000000	95.299527
3328.000000	95.288232
3327.000000	95.276774
3326.000000	95.263827
3325.000000	95.249756
3324.000000	95.236503
3323.000000	95.225686
3322.000000	95.216708
3321.000000	95.207111
3320.000000	95.194674
3319.000000	95.178952
3318.000000	95.161205
3317.000000	95.143416
3316.000000	95.127218
3315.000000	95.113168
3314.000000	95.100923
3313.000000	95.090084
3312.000000	95.080372
3311.000000	95.070837
3310.000000	95.059865
3309.000000	95.046916
3308.000000	95.033672
3307.000000	95.022235
3306.000000	95.012423
3305.000000	95.001939
3304.000000	94.989135
3303.000000	94.974710
3302.000000	94.960676
3301.000000	94.948545
3300.000000	94.938643
3299.000000	94.930300
3298.000000	94.922361
3297.000000	94.914111
3296.000000	94.905846
3295.000000	94.898090
3294.000000	94.890355
3293.000000	94.881556
3292.000000	94.871734
3291.000000	94.862559
3290.000000	94.855812
3289.000000	94.851872
3288.000000	94.849808
3287.000000	94.848320
3286.000000	94.846477
3285.000000	94.844201
3284.000000	94.842113
3283.000000	94.840460
3282.000000	94.838413
3281.000000	94.835375
3280.000000	94.832977
3279.000000	94.834363
3278.000000	94.840968
3277.000000	94.850892
3276.000000	94.861212
3275.000000	94.871228
3274.000000	94.882247
3273.000000	94.894813
3272.000000	94.907245
3271.000000	94.917033
3270.000000	94.922969
3269.000000	94.925796
3268.000000	94.927588
3267.000000	94.930886
3266.000000	94.937845
3265.000000	94.949256
3264.000000	94.963907
3263.000000	94.979234
3262.000000	94.993239
3261.000000	95.005957
3260.000000	95.018859
3259.000000	95.032690
3258.000000	95.046593
3257.000000	95.059667
3256.000000	95.072592
3255.000000	95.086837
3254.000000	95.102602
3253.000000	95.118700
3252.000000	95.134408
3251.000000	95.150232
3250.000000	95.166458
3249.000000	95.182068
3248.000000	95.196024
3247.000000	95.208805
3246.000000	95.221560
3245.000000	95.233809
3244.000000	95.243244
3243.000000	95.248473
3242.000000	95.251207
3241.000000	95.255118
3240.000000	95.262722
3239.000000	95.273952
3238.000000	95.287598
3237.000000	95.303056
3236.000000	95.320112
3235.000000	95.337705
3234.000000	95.354102
3233.000000	95.368207
3232.000000	95.379749
3231.000000	95.388106
3230.000000	95.392109
3229.000000	95.391790
3228.000000	95.389763
3227.000000	95.390036
3226.000000	95.395413
3225.000000	95.406065
3224.000000	95.419859
3223.000000	95.433694
3222.000000	95.445524
3221.000000	95.455931
3220.000000	95.467408
3219.000000	95.481245
3218.000000	95.495498
3217.000000	95.506869
3216.000000	95.514045
3215.000000	95.518510
3214.000000	95.522475
3213.000000	95.527097
3212.000000	95.532531
3211.000000	95.538557
3210.000000	95.544813
3209.000000	95.551083
3208.000000	95.557743
3207.000000	95.565562
3206.000000	95.574844
3205.000000	95.584830
3204.000000	95.593827
3203.000000	95.600101
3202.000000	95.603499
3201.000000	95.606543
3200.000000	95.613088
3199.000000	95.624778
3198.000000	95.639251
3197.000000	95.652539
3196.000000	95.662724
3195.000000	95.670522
3194.000000	95.677323
3193.000000	95.684372
3192.000000	95.693303
3191.000000	95.705472
3190.000000	95.720277
3189.000000	95.735402
3188.000000	95.749093
3187.000000	95.761217
3186.000000	95.772179
3185.000000	95.782157
3184.000000	95.791755
3183.000000	95.802012
3182.000000	95.813102
3181.000000	95.823940
3180.000000	95.833540
3179.000000	95.841885
3178.000000	95.849479
3177.000000	95.857377
3176.000000	95.868134
3175.000000	95.884823
3174.000000	95.907692
3173.000000	95.932622
3172.000000	95.954023
3171.000000	95.969063
3170.000000	95.978432
3169.000000	95.984342
3168.000000	95.989303
3167.000000	95.996098
3166.000000	96.006795
3165.000000	96.021014
3164.000000	96.036214
3163.000000	96.050194
3162.000000	96.062820
3161.000000	96.075235
3160.000000	96.088338
3159.000000	96.102559
3158.000000	96.118094
3157.000000	96.134172
3156.000000	96.148274
3155.000000	96.157674
3154.000000	96.162667
3153.000000	96.167737
3152.000000	96.178055
3151.000000	96.194437
3150.000000	96.212443
3149.000000	96.226952
3148.000000	96.236825
3147.000000	96.244580
3146.000000	96.252574
3145.000000	96.261039
3144.000000	96.269564
3143.000000	96.278776
3142.000000	96.289894
3141.000000	96.303490
3140.000000	96.319056
3139.000000	96.334908
3138.000000	96.348124
3137.000000	96.355891
3136.000000	96.357822
3135.000000	96.356673
3134.000000	96.356121
3133.000000	96.358224
3132.000000	96.363127
3131.000000	96.370145
3130.000000	96.378095
3129.000000	96.385315
3128.000000	96.390800
3127.000000	96.395601
3126.000000	96.402190
3125.000000	96.411911
3124.000000	96.423301
3123.000000	96.433051
3122.000000	96.438593
3121.000000	96.440043
3120.000000	96.439927
3119.000000	96.441054
3118.000000	96.444276
3117.000000	96.448328
3116.000000	96.451722
3115.000000	96.454361
3114.000000	96.456887
3113.000000	96.458881
3112.000000	96.458670
3111.000000	96.455251
3110.000000	96.449954
3109.000000	96.445640
3108.000000	96.444064
3107.000000	96.444279
3106.000000	96.443788
3105.000000	96.441204
3104.000000	96.437470
3103.000000	96.434254
3102.000000	96.431452
3101.000000	96.426925
3100.000000	96.419162
3099.000000	96.409869
3098.000000	96.403273
3097.000000	96.402462
3096.000000	96.406563
3095.000000	96.411656
3094.000000	96.414434
3093.000000	96.414612
3092.000000	96.413672
3091.000000	96.412152
3090.000000	96.409102
3089.000000	96.403958
3088.000000	96.397692
3087.000000	96.391461
3086.000000	96.385090
3085.000000	96.377955
3084.000000	96.371015
3083.000000	96.366565
3082.000000	96.365649
3081.000000	96.366506
3080.000000	96.366205
3079.000000	96.363551
3078.000000	96.359960
3077.000000	96.357505
3076.000000	96.356352
3075.000000	96.354338
3074.000000	96.349361
3073.000000	96.342373
3072.000000	96.337611
3071.000000	96.339252
3070.000000	96.347711
3069.000000	96.359176
3068.000000	96.368445
3067.000000	96.372175
3066.000000	96.370406
3065.000000	96.366170
3064.000000	96.363438
3063.000000	96.364524
3062.000000	96.369065
3061.000000	96.375605
3060.000000	96.383445
3059.000000	96.392211
3058.000000	96.400380
3057.000000	96.406094
3056.000000	96.409807
3055.000000	96.414683
3054.000000	96.423300
3053.000000	96.434699
3052.000000	96.445556
3051.000000	96.453823
3050.000000	96.460636
3049.000000	96.468824
3048.000000	96.479897
3047.000000	96.492438
3046.000000	96.503383
3045.000000	96.511061
3044.000000	96.516864
3043.000000	96.523467
3042.000000	96.531618
3041.000000	96.539541
3040.000000	96.545710
3039.000000	96.551076
3038.000000	96.557878
3037.000000	96.566994
3036.000000	96.577467
3035.000000	96.588185
3034.000000	96.598817
3033.000000	96.608925
3032.000000	96.617190
3031.000000	96.622381
3030.000000	96.625011
3029.000000	96.627549
3028.000000	96.632788
3027.000000	96.641900
3026.000000	96.653829
3025.000000	96.666271
3024.000000	96.677138
3023.000000	96.685452
3022.000000	96.691519
3021.000000	96.696647
3020.000000	96.702285
3019.000000	96.708719
3018.000000	96.714592
3017.000000	96.718017
3016.000000	96.718301
3015.000000	96.716442
3014.000000	96.713966
3013.000000	96.711331
3012.000000	96.707190
3011.000000	96.699253
3010.000000	96.686587
3009.000000	96.671466
3008.000000	96.658318
3007.000000	96.649888
3006.000000	96.644508
3005.000000	96.637590
3004.000000	96.625583
3003.000000	96.608224
3002.000000	96.587690
3001.000000	96.566860
3000.000000	96.547992
2999.000000	96.531513
2998.000000	96.515414
2997.000000	96.496595
2996.000000	96.473338
2995.000000	96.446199
2994.000000	96.416543
2993.000000	96.385013
2992.000000	96.351444
2991.000000	96.315143
2990.000000	96.274897
2989.000000	96.229499
2988.000000	96.179226
2987.000000	96.126391
2986.000000	96.073749
2985.000000	96.022253
2984.000000	95.970292
2983.000000	95.914922
2982.000000	95.853893
2981.000000	95.786782
2980.000000	95.714469
2979.000000	95.637507
2978.000000	95.555472
2977.000000	95.468189
2976.000000	95.376773
2975.000000	95.282753
2974.000000	95.186347
2973.000000	95.086465
2972.000000	94.982147
2971.000000	94.873172
2970.000000	94.759922
2969.000000	94.643938
2968.000000	94.528671
2967.000000	94.418059
2966.000000	94.313613
2965.000000	94.213855
2964.000000	94.117197
2963.000000	94.025113
2962.000000	93.942051
2961.000000	93.873127
2960.000000	93.822099
2959.000000	93.790563
2958.000000	93.778525
2957.000000	93.785241
2956.000000	93.809774
2955.000000	93.849780
2954.000000	93.900132
2953.000000	93.953871
2952.000000	94.005083
2951.000000	94.050935
2950.000000	94.090101
2949.000000	94.120206
2948.000000	94.136961
2947.000000	94.135845
2946.000000	94.114404
2945.000000	94.073233
2944.000000	94.015300
2943.000000	93.943517
2942.000000	93.858970
2941.000000	93.761244
2940.000000	93.650772
2939.000000	93.530285
2938.000000	93.403962
2937.000000	93.276101
2936.000000	93.150447
2935.000000	93.030240
2934.000000	92.917868
2933.000000	92.814885
2932.000000	92.722639
2931.000000	92.642394
2930.000000	92.574482
2929.000000	92.517546
2928.000000	92.469702
2927.000000	92.430701
2926.000000	92.402761
2925.000000	92.389159
2924.000000	92.391668
2923.000000	92.409372
2922.000000	92.439547
2921.000000	92.480019
2920.000000	92.530927
2919.000000	92.594111
2918.000000	92.671147
2917.000000	92.762243
2916.000000	92.867015
2915.000000	92.985145
2914.000000	93.114836
2913.000000	93.250836
2912.000000	93.385241
2911.000000	93.511641
2910.000000	93.628462
2909.000000	93.738187
2908.000000	93.843870
2907.000000	93.946759
2906.000000	94.046965
2905.000000	94.145140
2904.000000	94.242825
2903.000000	94.341167
2902.000000	94.439888
2901.000000	94.537786
2900.000000	94.633993
2899.000000	94.728664
2898.000000	94.822263
2897.000000	94.914352
2896.000000	95.003172
2895.000000	95.086278
2894.000000	95.161924
2893.000000	95.230267
2892.000000	95.293258
2891.000000	95.352917
2890.000000	95.409184
2889.000000	95.459590
2888.000000	95.501195
2887.000000	95.532632
2886.000000	95.554205
2885.000000	95.566458
2884.000000	95.569369
2883.000000	95.562899
2882.000000	95.547323
2881.000000	95.522504
2880.000000	95.487220
2879.000000	95.440290
2878.000000	95.382591
2877.000000	95.317810
2876.000000	95.251135
2875.000000	95.187843
2874.000000	95.133367
2873.000000	95.093066
2872.000000	95.070245
2871.000000	95.063779
2870.000000	95.068146
2869.000000	95.075917
2868.000000	95.080128
2867.000000	95.075319
2866.000000	95.058196
2865.000000	95.028310
2864.000000	94.987352
2863.000000	94.937479
2862.000000	94.880736
2861.000000	94.820259
2860.000000	94.760631
2859.000000	94.705944
2858.000000	94.657954
2857.000000	94.617124
2856.000000	94.585073
2855.000000	94.564810
2854.000000	94.559246
2853.000000	94.570552
2852.000000	94.601530
2851.000000	94.657005
2850.000000	94.742684
2849.000000	94.861718
2848.000000	95.011095
2847.000000	95.180751
2846.000000	95.356660
2845.000000	95.526465
2844.000000	95.683059
2843.000000	95.824376
2842.000000	95.950763
2841.000000	96.062695
2840.000000	96.160333
2839.000000	96.243877
2838.000000	96.314335
2837.000000	96.374217
2836.000000	96.426938
2835.000000	96.474793
2834.000000	96.517731
2833.000000	96.554564
2832.000000	96.585180
2831.000000	96.611225
2830.000000	96.635075
2829.000000	96.658844
2828.000000	96.683550
2827.000000	96.708234
2826.000000	96.730386
2825.000000	96.748359
2824.000000	96.763256
2823.000000	96.777461
2822.000000	96.791771
2821.000000	96.805157
2820.000000	96.817127
2819.000000	96.828882
2818.000000	96.841845
2817.000000	96.856105
2816.000000	96.870631
2815.000000	96.884233
2814.000000	96.896317
2813.000000	96.907665
2812.000000	96.920455
2811.000000	96.936428
2810.000000	96.954885
2809.000000	96.973420
2808.000000	96.990749
2807.000000	97.007507
2806.000000	97.023963
2805.000000	97.038474
2804.000000	97.049201
2803.000000	97.056616
2802.000000	97.063297
2801.000000	97.071639
2800.000000	97.082156
2799.000000	97.093387
2798.000000	97.102814
2797.000000	97.108480
2796.000000	97.110689
2795.000000	97.112132
2794.000000	97.115829
2793.000000	97.122849
2792.000000	97.132009
2791.000000	97.141424
2790.000000	97.150252
2789.000000	97.159252
2788.000000	97.169890
2787.000000	97.182775
2786.000000	97.196901
2785.000000	97.210511
2784.000000	97.222361
2783.000000	97.231828
2782.000000	97.238351
2781.000000	97.241770
2780.000000	97.243170
2779.000000	97.244520
2778.000000	97.247243
2777.000000	97.251541
2776.000000	97.256872
2775.000000	97.262338
2774.000000	97.266869
2773.000000	97.270159
2772.000000	97.273528
2771.000000	97.278815
2770.000000	97.286140
2769.000000	97.293606
2768.000000	97.299407
2767.000000	97.303359
2766.000000	97.306196
2765.000000	97.308415
2764.000000	97.310354
2763.000000	97.312612
2762.000000	97.315742
2761.000000	97.319965
2760.000000	97.325368
2759.000000	97.331734
2758.000000	97.337922
2757.000000	97.342297
2756.000000	97.344435
2755.000000	97.346076
2754.000000	97.349844
2753.000000	97.357082
2752.000000	97.366743
2751.000000	97.375918
2750.000000	97.381473
2749.000000	97.381996
2748.000000	97.378660
2747.000000	97.374000
2746.000000	97.369994
2745.000000	97.367763
2744.000000	97.368520
2743.000000	97.373383
2742.000000	97.381792
2741.000000	97.391060
2740.000000	97.398216
2739.000000	97.402052
2738.000000	97.403389
2737.000000	97.404066
2736.000000	97.405858
2735.000000	97.409614
2734.000000	97.414855
2733.000000	97.420384
2732.000000	97.425317
2731.000000	97.429289
2730.000000	97.432120
2729.000000	97.434207
2728.000000	97.437058
2727.000000	97.442270
2726.000000	97.449720
2725.000000	97.457543
2724.000000	97.464027
2723.000000	97.468563
2722.000000	97.470840
2721.000000	97.470754
2720.000000	97.469870
2719.000000	97.471423
2718.000000	97.477334
2717.000000	97.485658
2716.000000	97.492150
2715.000000	97.494271
2714.000000	97.492945
2713.000000	97.490804
2712.000000	97.489777
2711.000000	97.490521
2710.000000	97.493209
2709.000000	97.497973
2708.000000	97.504508
2707.000000	97.511748
2706.000000	97.518414
2705.000000	97.523923
2704.000000	97.528416
2703.000000	97.531897
2702.000000	97.533948
2701.000000	97.534639
2700.000000	97.535044
2699.000000	97.536108
2698.000000	97.537448
2697.000000	97.538063
2696.000000	97.537946
2695.000000	97.538156
2694.000000	97.539453
2693.000000	97.541663
2692.000000	97.544241
2691.000000	97.546558
2690.000000	97.547672
2689.000000	97.546714
2688.000000	97.543777
2687.000000	97.540066
2686.000000	97.537240
2685.000000	97.536836
2684.000000	97.539581
2683.000000	97.544320
2682.000000	97.548220
2681.000000	97.549361
2680.000000	97.548964
2679.000000	97.549827
2678.000000	97.552660
2677.000000	97.555290
2676.000000	97.555572
2675.000000	97.553760
2674.000000	97.551748
2673.000000	97.551268
2672.000000	97.553210
2671.000000	97.557380
2670.000000	97.562187
2669.000000	97.565491
2668.000000	97.566494
2667.000000	97.566253
2666.000000	97.566020
2665.000000	97.565848
2664.000000	97.565217
2663.000000	97.564170
2662.000000	97.563261
2661.000000	97.562912
2660.000000	97.563196
2659.000000	97.563753
2658.000000	97.563801
2657.000000	97.563031
2656.000000	97.562817
2655.000000	97.565711
2654.000000	97.573051
2653.000000	97.583440
2652.000000	97.593790
2651.000000	97.601526
2650.000000	97.605906
2649.000000	97.608193
2648.000000	97.610938
2647.000000	97.616258
2646.000000	97.624111
2645.000000	97.632384
2644.000000	97.638696
2643.000000	97.641777
2642.000000	97.641595
2641.000000	97.639304
2640.000000	97.637337
2639.000000	97.638573
2638.000000	97.644597
2637.000000	97.654592
2636.000000	97.665562
2635.000000	97.673580
2634.000000	97.676156
2633.000000	97.674698
2632.000000	97.673920
2631.000000	97.677293
2630.000000	97.683572
2629.000000	97.689360
2628.000000	97.694241
2627.000000	97.701080
2626.000000	97.711417
2625.000000	97.722962
2624.000000	97.732077
2623.000000	97.736641
2622.000000	97.736221
2621.000000	97.731940
2620.000000	97.727029
2619.000000	97.725309
2618.000000	97.727818
2617.000000	97.732365
2616.000000	97.737086
2615.000000	97.742598
2614.000000	97.750038
2613.000000	97.759067
2612.000000	97.768679
2611.000000	97.777750
2610.000000	97.783613
2609.000000	97.782703
2608.000000	97.774718
2607.000000	97.764652
2606.000000	97.758610
2605.000000	97.758591
2604.000000	97.762663
2603.000000	97.768551
2602.000000	97.775018
2601.000000	97.780725
2600.000000	97.784378
2599.000000	97.786276
2598.000000	97.788513
2597.000000	97.793329
2596.000000	97.801479
2595.000000	97.811631
2594.000000	97.820814
2593.000000	97.826243
2592.000000	97.827558
2591.000000	97.827074
2590.000000	97.827533
2589.000000	97.830001
2588.000000	97.833586
2587.000000	97.836235
2586.000000	97.836028
2585.000000	97.832956
2584.000000	97.829425
2583.000000	97.827699
2582.000000	97.827133
2581.000000	97.825734
2580.000000	97.824182
2579.000000	97.825891
2578.000000	97.832237
2577.000000	97.840037
2576.000000	97.845049
2575.000000	97.846713
2574.000000	97.848186
2573.000000	97.852568
2572.000000	97.860019
2571.000000	97.867974
2570.000000	97.873746
2569.000000	97.877202
2568.000000	97.880595
2567.000000	97.885024
2566.000000	97.888039
2565.000000	97.886210
2564.000000	97.879609
2563.000000	97.872116
2562.000000	97.867736
2561.000000	97.868083
2560.000000	97.872421
2559.000000	97.878154
2558.000000	97.882134
2557.000000	97.883783
2556.000000	97.886048
2555.000000	97.890779
2554.000000	97.894465
2553.000000	97.892115
2552.000000	97.884611
2551.000000	97.878238
2550.000000	97.876806
2549.000000	97.878174
2548.000000	97.879042
2547.000000	97.879141
2546.000000	97.879710
2545.000000	97.881458
2544.000000	97.885278
2543.000000	97.891266
2542.000000	97.895627
2541.000000	97.892339
2540.000000	97.880309
2539.000000	97.865896
2538.000000	97.856464
2537.000000	97.853981
2536.000000	97.856609
2535.000000	97.862988
2534.000000	97.871712
2533.000000	97.878806
2532.000000	97.879171
2531.000000	97.870481
2530.000000	97.854399
2529.000000	97.835214
2528.000000	97.818278
2527.000000	97.807839
2526.000000	97.804316
2525.000000	97.804350
2524.000000	97.804219
2523.000000	97.802350
2522.000000	97.798659
2521.000000	97.793742
2520.000000	97.789519
2519.000000	97.788439
2518.000000	97.790620
2517.000000	97.793219
2516.000000	97.793691
2515.000000	97.792323
2514.000000	97.791289
2513.000000	97.792811
2512.000000	97.798333
2511.000000	97.807297
2510.000000	97.816336
2509.000000	97.822073
2508.000000	97.825262
2507.000000	97.829792
2506.000000	97.837254
2505.000000	97.845400
2504.000000	97.852637
2503.000000	97.860946
2502.000000	97.872815
2501.000000	97.887807
2500.000000	97.903476
2499.000000	97.917259
2498.000000	97.926523
2497.000000	97.929796
2496.000000	97.929399
2495.000000	97.930039
2494.000000	97.933064
2493.000000	97.935205
2492.000000	97.935165
2491.000000	97.938038
2490.000000	97.949668
2489.000000	97.968584
2488.000000	97.987431
2487.000000	98.001596
2486.000000	98.012934
2485.000000	98.024794
2484.000000	98.036216
2483.000000	98.042689
2482.000000	98.041805
2481.000000	98.036749
2480.000000	98.033673
2479.000000	98.035227
2478.000000	98.037541
2477.000000	98.035031
2476.000000	98.027533
2475.000000	98.021011
2474.000000	98.021066
2473.000000	98.027743
2472.000000	98.037181
2471.000000	98.046389
2470.000000	98.055107
2469.000000	98.064009
2468.000000	98.072188
2467.000000	98.076607
2466.000000	98.074754
2465.000000	98.068616
2464.000000	98.064519
2463.000000	98.066663
2462.000000	98.071723
2461.000000	98.072333
2460.000000	98.065796
2459.000000	98.056399
2458.000000	98.049064
2457.000000	98.044169
2456.000000	98.039589
2455.000000	98.035198
2454.000000	98.033621
2453.000000	98.038078
2452.000000	98.050063
2451.000000	98.067448
2450.000000	98.084287
2449.000000	98.094360
2448.000000	98.095934
2447.000000	98.092159
2446.000000	98.087110
2445.000000	98.083254
2444.000000	98.082073
2443.000000	98.083980
2442.000000	98.087207
2441.000000	98.089221
2440.000000	98.089841
2439.000000	98.090689
2438.000000	98.091562
2437.000000	98.090297
2436.000000	98.086915
2435.000000	98.084871
2434.000000	98.086841
2433.000000	98.091516
2432.000000	98.095760
2431.000000	98.098106
2430.000000	98.099053
2429.000000	98.099612
2428.000000	98.100603
2427.000000	98.102102
2426.000000	98.103153
2425.000000	98.103237
2424.000000	98.103848
2423.000000	98.106909
2422.000000	98.111630
2421.000000	98.114875
2420.000000	98.114593
2419.000000	98.111198
2418.000000	98.105821
2417.000000	98.099408
2416.000000	98.093598
2415.000000	98.090483
2414.000000	98.091124
2413.000000	98.095449
2412.000000	98.102842
2411.000000	98.111311
2410.000000	98.117439
2409.000000	98.119647
2408.000000	98.120611
2407.000000	98.123639
2406.000000	98.127418
2405.000000	98.127331
2404.000000	98.121697
2403.000000	98.113998
2402.000000	98.109139
2401.000000	98.109793
2400.000000	98.115605
2399.000000	98.123189
2398.000000	98.127623
2397.000000	98.126717
2396.000000	98.123429
2395.000000	98.121913
2394.000000	98.122414
2393.000000	98.122718
2392.000000	98.122756
2391.000000	98.124175
2390.000000	98.126930
2389.000000	98.130404
2388.000000	98.136649
2387.000000	98.147163
2386.000000	98.157530
2385.000000	98.160632
2384.000000	98.156294
2383.000000	98.153198
2382.000000	98.158814
2381.000000	98.171796
2380.000000	98.184903
2379.000000	98.191763
2378.000000	98.189742
2377.000000	98.180330
2376.000000	98.169611
2375.000000	98.164428
2374.000000	98.165626
2373.000000	98.167614
2372.000000	98.166835
2371.000000	98.166933
2370.000000	98.173279
2369.000000	98.185628
2368.000000	98.196898
2367.000000	98.198291
2366.000000	98.185889
2365.000000	98.165970
2364.000000	98.152669
2363.000000	98.154246
2362.000000	98.163498
2361.000000	98.166562
2360.000000	98.158984
2359.000000	98.149420
2358.000000	98.148082
2357.000000	98.155707
2356.000000	98.163716
2355.000000	98.162744
2354.000000	98.154833
2353.000000	98.148598
2352.000000	98.147443
2351.000000	98.147370
2350.000000	98.145191
2349.000000	98.140887
2348.000000	98.136351
2347.000000	98.133743
2346.000000	98.130789
2345.000000	98.121192
2344.000000	98.106542
2343.000000	98.097996
2342.000000	98.102792
2341.000000	98.116523
2340.000000	98.128168
2339.000000	98.129536
2338.000000	98.120287
2337.000000	98.106759
2336.000000	98.096451
2335.000000	98.094171
2334.000000	98.099138
2333.000000	98.106040
2332.000000	98.107076
2331.000000	98.100195
2330.000000	98.089525
2329.000000	98.080930
2328.000000	98.072983
2327.000000	98.060101
2326.000000	98.039505
2325.000000	98.017670
2324.000000	98.006541
2323.000000	98.013452
2322.000000	98.032003
2321.000000	98.048446
2320.000000	98.055746
2319.000000	98.059272
2318.000000	98.065425
2317.000000	98.075192
2316.000000	98.086086
2315.000000	98.097361
2314.000000	98.105967
2313.000000	98.107797
2312.000000	98.102986
2311.000000	98.099185
2310.000000	98.102082
2309.000000	98.109656
2308.000000	98.116934
2307.000000	98.124074
2306.000000	98.133105
2305.000000	98.142208
2304.000000	98.147011
2303.000000	98.146688
2302.000000	98.143084
2301.000000	98.137261
2300.000000	98.129666
2299.000000	98.123656
2298.000000	98.122561
2297.000000	98.125758
2296.000000	98.128090
2295.000000	98.125249
2294.000000	98.116358
2293.000000	98.104448
2292.000000	98.094871
2291.000000	98.092506
2290.000000	98.097155
2289.000000	98.102773
2288.000000	98.102834
2287.000000	98.096227
2286.000000	98.087580
2285.000000	98.082850
2284.000000	98.085195
2283.000000	98.092875
2282.000000	98.101688
2281.000000	98.110731
2280.000000	98.124280
2279.000000	98.143890
2278.000000	98.161142
2277.000000	98.165001
2276.000000	98.156220
2275.000000	98.147420
2274.000000	98.147921
2273.000000	98.155639
2272.000000	98.165050
2271.000000	98.175186
2270.000000	98.186268
2269.000000	98.195717
2268.000000	98.201920
2267.000000	98.206910
2266.000000	98.211861
2265.000000	98.214974
2264.000000	98.216163
2263.000000	98.218280
2262.000000	98.221316
2261.000000	98.220734
2260.000000	98.213419
2259.000000	98.200447
2258.000000	98.184066
2257.000000	98.168484
2256.000000	98.162969
2255.000000	98.174929
2254.000000	98.198672
2253.000000	98.219903
2252.000000	98.232438
2251.000000	98.241054
2250.000000	98.248103
2249.000000	98.250171
2248.000000	98.250029
2247.000000	98.257568
2246.000000	98.273395
2245.000000	98.284019
2244.000000	98.280046
2243.000000	98.267615
2242.000000	98.255024
2241.000000	98.240545
2240.000000	98.222270
2239.000000	98.208997
2238.000000	98.210339
2237.000000	98.223829
2236.000000	98.240927
2235.000000	98.259451
2234.000000	98.281893
2233.000000	98.308030
2232.000000	98.336003
2231.000000	98.363326
2230.000000	98.380222
2229.000000	98.371581
2228.000000	98.334960
2227.000000	98.289529
2226.000000	98.259154
2225.000000	98.252800
2224.000000	98.266606
2223.000000	98.295156
2222.000000	98.331249
2221.000000	98.362043
2220.000000	98.376781
2219.000000	98.376102
2218.000000	98.367926
2217.000000	98.359034
2216.000000	98.354063
2215.000000	98.354939
2214.000000	98.356579
2213.000000	98.351109
2212.000000	98.341400
2211.000000	98.342133
2210.000000	98.361590
2209.000000	98.389708
2208.000000	98.409253
2207.000000	98.412062
2206.000000	98.400531
2205.000000	98.381538
2204.000000	98.363290
2203.000000	98.350007
2202.000000	98.336237
2201.000000	98.314028
2200.000000	98.286810
2199.000000	98.267050
2198.000000	98.260749
2197.000000	98.266065
2196.000000	98.285904
2195.000000	98.325397
2194.000000	98.374387
2193.000000	98.409704
2192.000000	98.421789
2191.000000	98.423834
2190.000000	98.428111
2189.000000	98.430923
2188.000000	98.428063
2187.000000	98.427802
2186.000000	98.438124
2185.000000	98.456356
2184.000000	98.481149
2183.000000	98.518603
2182.000000	98.563131
2181.000000	98.587112
2180.000000	98.566108
2179.000000	98.506839
2178.000000	98.441207
2177.000000	98.402169
2176.000000	98.406423
2175.000000	98.444966
2174.000000	98.485741
2173.000000	98.498592
2172.000000	98.482888
2171.000000	98.460377
2170.000000	98.443796
2169.000000	98.428207
2168.000000	98.411016
2167.000000	98.400240
2166.000000	98.399044
2165.000000	98.401232
2164.000000	98.406482
2163.000000	98.421313
2162.000000	98.442106
2161.000000	98.461461
2160.000000	98.493612
2159.000000	98.561023
2158.000000	98.645016
2157.000000	98.694159
2156.000000	98.693823
2155.000000	98.679755
2154.000000	98.681339
2153.000000	98.690334
2152.000000	98.683977
2151.000000	98.649357
2150.000000	98.585841
2149.000000	98.510131
2148.000000	98.460001
2147.000000	98.465044
2146.000000	98.508287
2145.000000	98.538424
2144.000000	98.525770
2143.000000	98.486042
2142.000000	98.448625
2141.000000	98.427380
2140.000000	98.424770
2139.000000	98.439246
2138.000000	98.459098
2137.000000	98.467729
2136.000000	98.463181
2135.000000	98.458024
2134.000000	98.456439
2133.000000	98.449600
2132.000000	98.435305
2131.000000	98.422576
2130.000000	98.413610
2129.000000	98.400115
2128.000000	98.381995
2127.000000	98.372485
2126.000000	98.378206
2125.000000	98.387480
2124.000000	98.385410
2123.000000	98.368595
2122.000000	98.340518
2121.000000	98.305669
2120.000000	98.274512
2119.000000	98.261162
2118.000000	98.267505
2117.000000	98.278421
2116.000000	98.278782
2115.000000	98.267415
2114.000000	98.250089
2113.000000	98.230444
2112.000000	98.213315
2111.000000	98.205539
2110.000000	98.205760
2109.000000	98.203472
2108.000000	98.195156
2107.000000	98.192177
2106.000000	98.205419
2105.000000	98.231318
2104.000000	98.259262
2103.000000	98.282398
2102.000000	98.294508
2101.000000	98.287807
2100.000000	98.264575
2099.000000	98.242630
2098.000000	98.240934
2097.000000	98.263495
2096.000000	98.300571
2095.000000	98.336806
2094.000000	98.355609
2093.000000	98.348529
2092.000000	98.326913
2091.000000	98.313203
2090.000000	98.315366
2089.000000	98.319587
2088.000000	98.312098
2087.000000	98.296840
2086.000000	98.285014
2085.000000	98.280583
2084.000000	98.283924
2083.000000	98.298145
2082.000000	98.321477
2081.000000	98.341650
2080.000000	98.347212
2079.000000	98.337956
2078.000000	98.319356
2077.000000	98.295994
2076.000000	98.276200
2075.000000	98.271340
2074.000000	98.282786
2073.000000	98.300055
2072.000000	98.316583
2071.000000	98.335528
2070.000000	98.354455
2069.000000	98.359828
2068.000000	98.347570
2067.000000	98.335066
2066.000000	98.341088
2065.000000	98.363287
2064.000000	98.384240
2063.000000	98.390961
2062.000000	98.380875
2061.000000	98.360914
2060.000000	98.347865
2059.000000	98.355554
2058.000000	98.376182
2057.000000	98.388969
2056.000000	98.390195
2055.000000	98.394826
2054.000000	98.402561
2053.000000	98.389766
2052.000000	98.349356
2051.000000	98.313180
2050.000000	98.315542
2049.000000	98.350864
2048.000000	98.389581
2047.000000	98.424565
2046.000000	98.468944
2045.000000	98.515315
2044.000000	98.532341
2043.000000	98.502122
2042.000000	98.438755
2041.000000	98.374464
2040.000000	98.340624
2039.000000	98.352833
2038.000000	98.401748
2037.000000	98.463856
2036.000000	98.528262
2035.000000	98.600084
2034.000000	98.668998
2033.000000	98.701907
2032.000000	98.688525
2031.000000	98.665355
2030.000000	98.667845
2029.000000	98.685381
2028.000000	98.686442
2027.000000	98.668272
2026.000000	98.654306
2025.000000	98.658946
2024.000000	98.675607
2023.000000	98.690178
2022.000000	98.691679
2021.000000	98.678462
2020.000000	98.663633
2019.000000	98.662363
2018.000000	98.670676
2017.000000	98.672485
2016.000000	98.668733
2015.000000	98.675308
2014.000000	98.690795
2013.000000	98.696015
2012.000000	98.688992
2011.000000	98.692012
2010.000000	98.716217
2009.000000	98.746542
2008.000000	98.768014
2007.000000	98.780301
2006.000000	98.778201
2005.000000	98.751693
2004.000000	98.712635
2003.000000	98.688084
2002.000000	98.680986
2001.000000	98.663733
2000.000000	98.619361
1999.000000	98.561140
1998.000000	98.509333
1997.000000	98.475722
1996.000000	98.472875
1995.000000	98.509092
1994.000000	98.565447
1993.000000	98.602191
1992.000000	98.602851
1991.000000	98.591251
1990.000000	98.588801
1989.000000	98.585879
1988.000000	98.569220
1987.000000	98.546447
1986.000000	98.528350
1985.000000	98.511908
1984.000000	98.493968
1983.000000	98.478175
1982.000000	98.458931
1981.000000	98.424659
1980.000000	98.392991
1979.000000	98.409725
1978.000000	98.491934
1977.000000	98.593777
1976.000000	98.657097
1975.000000	98.673933
1974.000000	98.672368
1973.000000	98.674068
1972.000000	98.684598
1971.000000	98.695848
1970.000000	98.686800
1969.000000	98.648529
1968.000000	98.613453
1967.000000	98.627654
1966.000000	98.687384
1965.000000	98.740659
1964.000000	98.756416
1963.000000	98.750964
1962.000000	98.745993
1961.000000	98.742209
1960.000000	98.739715
1959.000000	98.746677
1958.000000	98.756055
1957.000000	98.746046
1956.000000	98.713727
1955.000000	98.679157
1954.000000	98.651028
1953.000000	98.620283
1952.000000	98.591190
1951.000000	98.588815
1950.000000	98.620276
1949.000000	98.656534
1948.000000	98.670271
1947.000000	98.666364
1946.000000	98.660536
1945.000000	98.652686
1944.000000	98.637559
1943.000000	98.621921
1942.000000	98.612792
1941.000000	98.605140
1940.000000	98.595121
1939.000000	98.587218
1938.000000	98.580929
1937.000000	98.569063
1936.000000	98.555756
1935.000000	98.557969
1934.000000	98.580250
1933.000000	98.605372
1932.000000	98.616493
1931.000000	98.616636
1930.000000	98.613163
1929.000000	98.603381
1928.000000	98.590580
1927.000000	98.587450
1926.000000	98.599398
1925.000000	98.612120
1924.000000	98.615251
1923.000000	98.622008
1922.000000	98.644828
1921.000000	98.668740
1920.000000	98.668180
1919.000000	98.636544
1918.000000	98.590972
1917.000000	98.553171
1916.000000	98.535291
1915.000000	98.538611
1914.000000	98.555486
1913.000000	98.573320
1912.000000	98.583649
1911.000000	98.588649
1910.000000	98.591516
1909.000000	98.588978
1908.000000	98.580849
1907.000000	98.572072
1906.000000	98.568290
1905.000000	98.569258
1904.000000	98.576529
1903.000000	98.594994
1902.000000	98.617748
1901.000000	98.628808
1900.000000	98.627682
1899.000000	98.631320
1898.000000	98.649796
1897.000000	98.670122
1896.000000	98.676096
1895.000000	98.672213
1894.000000	98.671762
1893.000000	98.674761
1892.000000	98.671897
1891.000000	98.660708
1890.000000	98.647281
1889.000000	98.637672
1888.000000	98.635314
1887.000000	98.641836
1886.000000	98.652763
1885.000000	98.658657
1884.000000	98.656023
1883.000000	98.651999
1882.000000	98.650992
1881.000000	98.648594
1880.000000	98.643950
1879.000000	98.643199
1878.000000	98.649816
1877.000000	98.658738
1876.000000	98.663554
1875.000000	98.666872
1874.000000	98.675042
1873.000000	98.688056
1872.000000	98.702714
1871.000000	98.718563
1870.000000	98.735063
1869.000000	98.747256
1868.000000	98.749924
1867.000000	98.742730
1866.000000	98.725741
1865.000000	98.700742
1864.000000	98.677874
1863.000000	98.668318
1862.000000	98.668991
1861.000000	98.666139
1860.000000	98.657546
1859.000000	98.656637
1858.000000	98.670434
1857.000000	98.688165
1856.000000	98.697936
1855.000000	98.700710
1854.000000	98.701286
1853.000000	98.696504
1852.000000	98.687785
1851.000000	98.679383
1850.000000	98.674636
1849.000000	98.678451
1848.000000	98.698220
1847.000000	98.734149
1846.000000	98.768139
1845.000000	98.776575
1844.000000	98.757190
1843.000000	98.733975
1842.000000	98.720722
1841.000000	98.706559
1840.000000	98.684617
1839.000000	98.664513
1838.000000	98.657470
1837.000000	98.658006
1836.000000	98.659378
1835.000000	98.669738
1834.000000	98.695803
1833.000000	98.726768
1832.000000	98.746638
1831.000000	98.749482
1830.000000	98.747426
1829.000000	98.751805
1828.000000	98.756017
1827.000000	98.749353
1826.000000	98.731571
1825.000000	98.713446
1824.000000	98.704026
1823.000000	98.701722
1822.000000	98.698243
1821.000000	98.690358
1820.000000	98.683365
1819.000000	98.682233
1818.000000	98.686137
1817.000000	98.688486
1816.000000	98.688658
1815.000000	98.693353
1814.000000	98.700759
1813.000000	98.702998
1812.000000	98.695708
1811.000000	98.685919
1810.000000	98.679736
1809.000000	98.668032
1808.000000	98.643981
1807.000000	98.616799
1806.000000	98.596988
1805.000000	98.580918
1804.000000	98.558112
1803.000000	98.527468
1802.000000	98.492922
1801.000000	98.461873
1800.000000	98.436846
1799.000000	98.417181
1798.000000	98.402170
1797.000000	98.393991
1796.000000	98.399039
1795.000000	98.420186
1794.000000	98.447881
1793.000000	98.472262
1792.000000	98.492926
1791.000000	98.518009
1790.000000	98.548299
1789.000000	98.574417
1788.000000	98.591011
1787.000000	98.602904
1786.000000	98.616645
1785.000000	98.632812
1784.000000	98.650699
1783.000000	98.671156
1782.000000	98.682266
1781.000000	98.679475
1780.000000	98.670792
1779.000000	98.669651
1778.000000	98.680496
1777.000000	98.699432
1776.000000	98.728876
1775.000000	98.765589
1774.000000	98.792096
1773.000000	98.792679
1772.000000	98.773705
1771.000000	98.751477
1770.000000	98.719093
1769.000000	98.654213
1768.000000	98.562659
1767.000000	98.486898
1766.000000	98.450719
1765.000000	98.429530
1764.000000	98.382436
1763.000000	98.293911
1762.000000	98.173415
1761.000000	98.040084
1760.000000	97.897508
1759.000000	97.732032
1758.000000	97.510958
1757.000000	97.214252
1756.000000	96.881693
1755.000000	96.571366
1754.000000	96.278276
1753.000000	95.943501
1752.000000	95.530200
1751.000000	95.069853
1750.000000	94.625290
1749.000000	94.204715
1748.000000	93.800996
1747.000000	93.442374
1746.000000	93.142656
1745.000000	92.885966
1744.000000	92.667107
1743.000000	92.511934
1742.000000	92.429257
1741.000000	92.385595
1740.000000	92.362417
1739.000000	92.394844
1738.000000	92.497188
1737.000000	92.630595
1736.000000	92.770416
1735.000000	92.962716
1734.000000	93.260777
1733.000000	93.592470
1732.000000	93.882355
1731.000000	94.155255
1730.000000	94.444762
1729.000000	94.751797
1728.000000	95.062379
1727.000000	95.365239
1726.000000	95.653312
1725.000000	95.927180
1724.000000	96.188624
1723.000000	96.444852
1722.000000	96.693654
1721.000000	96.917079
1720.000000	97.103725
1719.000000	97.265272
1718.000000	97.423292
1717.000000	97.562816
1716.000000	97.656577
1715.000000	97.714931
1714.000000	97.748230
1713.000000	97.753650
1712.000000	97.741380
1711.000000	97.732296
1710.000000	97.732645
1709.000000	97.734812
1708.000000	97.732808
1707.000000	97.715711
1706.000000	97.676985
1705.000000	97.631760
1704.000000	97.610496
1703.000000	97.609765
1702.000000	97.580384
1701.000000	97.475247
1700.000000	97.325586
1699.000000	97.221074
1698.000000	97.137455
1697.000000	96.976282
1696.000000	96.729002
1695.000000	96.508427
1694.000000	96.380943
1693.000000	96.293938
1692.000000	96.185993
1691.000000	96.054045
1690.000000	95.924848
1689.000000	95.818730
1688.000000	95.747460
1687.000000	95.696741
1686.000000	95.629428
1685.000000	95.490531
1684.000000	95.288256
1683.000000	95.123097
1682.000000	94.992721
1681.000000	94.835837
1680.000000	94.661457
1679.000000	94.523032
1678.000000	94.430256
1677.000000	94.333046
1676.000000	94.188828
1675.000000	94.022847
1674.000000	93.884030
1673.000000	93.773944
1672.000000	93.656994
1671.000000	93.514069
1670.000000	93.341251
1669.000000	93.140673
1668.000000	92.938388
1667.000000	92.768105
1666.000000	92.630967
1665.000000	92.496186
1664.000000	92.333136
1663.000000	92.149528
1662.000000	91.970812
1661.000000	91.802700
1660.000000	91.637658
1659.000000	91.482859
1658.000000	91.361277
1657.000000	91.285006
1656.000000	91.233057
1655.000000	91.159394
1654.000000	91.022258
1653.000000	90.827068
1652.000000	90.665163
1651.000000	90.597646
1650.000000	90.587816
1649.000000	90.561733
1648.000000	90.497162
1647.000000	90.431597
1646.000000	90.397769
1645.000000	90.369119
1644.000000	90.334317
1643.000000	90.311651
1642.000000	90.305371
1641.000000	90.317103
1640.000000	90.354563
1639.000000	90.416053
1638.000000	90.487846
1637.000000	90.552116
1636.000000	90.611391
1635.000000	90.663656
1634.000000	90.693255
1633.000000	90.700980
1632.000000	90.703989
1631.000000	90.724930
1630.000000	90.778963
1629.000000	90.864564
1628.000000	90.971177
1627.000000	91.090514
1626.000000	91.212219
1625.000000	91.333839
1624.000000	91.465576
1623.000000	91.617661
1622.000000	91.771349
1621.000000	91.903840
1620.000000	92.018130
1619.000000	92.126354
1618.000000	92.247940
1617.000000	92.402920
1616.000000	92.580991
1615.000000	92.741594
1614.000000	92.865062
1613.000000	92.960775
1612.000000	93.056039
1611.000000	93.174862
1610.000000	93.309760
1609.000000	93.437953
1608.000000	93.552271
1607.000000	93.659568
1606.000000	93.756989
1605.000000	93.843243
1604.000000	93.925700
1603.000000	94.005928
1602.000000	94.075428
1601.000000	94.128010
1600.000000	94.170665
1599.000000	94.212951
1598.000000	94.255277
1597.000000	94.294510
1596.000000	94.331206
1595.000000	94.365658
1594.000000	94.391555
1593.000000	94.404478
1592.000000	94.410163
1591.000000	94.416353
1590.000000	94.421821
1589.000000	94.421705
1588.000000	94.416122
1587.000000	94.406219
1586.000000	94.388687
1585.000000	94.359903
1584.000000	94.327500
1583.000000	94.291621
1582.000000	94.248107
1581.000000	94.207342
1580.000000	94.186980
1579.000000	94.178739
1578.000000	94.152115
1577.000000	94.088235
1576.000000	94.006294
1575.000000	93.945724
1574.000000	93.912769
1573.000000	93.888598
1572.000000	93.857106
1571.000000	93.812022
1570.000000	93.746995
1569.000000	93.661992
1568.000000	93.575465
1567.000000	93.489947
1566.000000	93.393502
1565.000000	93.286167
1564.000000	93.199543
1563.000000	93.153685
1562.000000	93.134278
1561.000000	93.111468
1560.000000	93.047285
1559.000000	92.899372
1558.000000	92.723937
1557.000000	92.547537
1556.000000	92.360400
1555.000000	92.165373
1554.000000	91.979868
1553.000000	91.826789
1552.000000	91.698098
1551.000000	91.565673
1550.000000	91.428196
1549.000000	91.303918
1548.000000	91.204869
1547.000000	91.119860
1546.000000	91.036571
1545.000000	90.963329
1544.000000	90.923492
1543.000000	90.917853
1542.000000	90.913239
1541.000000	90.864435
1540.000000	90.775961
1539.000000	90.693664
1538.000000	90.634866
1537.000000	90.603712
1536.000000	90.588074
1535.000000	90.578548
1534.000000	90.577748
1533.000000	90.585916
1532.000000	90.586902
1531.000000	90.578402
1530.000000	90.575014
1529.000000	90.582321
1528.000000	90.599006
1527.000000	90.630324
1526.000000	90.679508
1525.000000	90.737973
1524.000000	90.786532
1523.000000	90.808794
1522.000000	90.805796
1521.000000	90.795155
1520.000000	90.794413
1519.000000	90.800316
1518.000000	90.789171
1517.000000	90.754079
1516.000000	90.721209
1515.000000	90.711775
1514.000000	90.714064
1513.000000	90.719619
1512.000000	90.744174
1511.000000	90.811999
1510.000000	90.914380
1509.000000	91.015132
1508.000000	91.091886
1507.000000	91.166439
1506.000000	91.228461
1505.000000	91.224380
1504.000000	91.191731
1503.000000	91.172274
1502.000000	91.168497
1501.000000	91.178452
1500.000000	91.203976
1499.000000	91.237467
1498.000000	91.257248
1497.000000	91.242961
1496.000000	91.205917
1495.000000	91.188401
1494.000000	91.201162
1493.000000	91.217462
1492.000000	91.216808
1491.000000	91.205688
1490.000000	91.191221
1489.000000	91.157029
1488.000000	91.089141
1487.000000	91.003067
1486.000000	90.911934
1485.000000	90.809986
1484.000000	90.700679
1483.000000	90.585963
1482.000000	90.462529
1481.000000	90.329162
1480.000000	90.198077
1479.000000	90.077632
1478.000000	89.954752
1477.000000	89.812421
1476.000000	89.655583
1475.000000	89.499390
1474.000000	89.315178
1473.000000	89.055870
1472.000000	88.744640
1471.000000	88.460426
1470.000000	88.222474
1469.000000	88.007057
1468.000000	87.807581
1467.000000	87.633326
1466.000000	87.473937
1465.000000	87.310411
1464.000000	87.153809
1463.000000	87.027574
1462.000000	86.934258
1461.000000	86.858220
1460.000000	86.784803
1459.000000	86.688838
1458.000000	86.524669
1457.000000	86.277695
1456.000000	86.043921
1455.000000	85.897656
1454.000000	85.797374
1453.000000	85.692840
1452.000000	85.588090
1451.000000	85.509832
1450.000000	85.451874
1449.000000	85.384323
1448.000000	85.302441
1447.000000	85.231099
1446.000000	85.169071
1445.000000	85.101855
1444.000000	85.026864
1443.000000	84.949532
1442.000000	84.872374
1441.000000	84.796717
1440.000000	84.729231
1439.000000	84.663840
1438.000000	84.575076
1437.000000	84.440604
1436.000000	84.295342
1435.000000	84.193757
1434.000000	84.129434
1433.000000	84.070129
1432.000000	84.010879
1431.000000	83.957381
1430.000000	83.891524
1429.000000	83.787832
1428.000000	83.658248
1427.000000	83.537440
1426.000000	83.429498
1425.000000	83.330295
1424.000000	83.261349
1423.000000	83.240906
1422.000000	83.241519
1421.000000	83.219639
1420.000000	83.167935
1419.000000	83.115681
1418.000000	83.082624
1417.000000	83.058054
1416.000000	83.041801
1415.000000	83.047425
1414.000000	83.076682
1413.000000	83.122538
1412.000000	83.187739
1411.000000	83.279247
1410.000000	83.390244
1409.000000	83.507408
1408.000000	83.630447
1407.000000	83.767527
1406.000000	83.911535
1405.000000	84.051122
1404.000000	84.186758
1403.000000	84.317542
1402.000000	84.432053
1401.000000	84.523047
1400.000000	84.603210
1399.000000	84.690303
1398.000000	84.779843
1397.000000	84.856541
1396.000000	84.925830
1395.000000	85.006716
1394.000000	85.099114
1393.000000	85.193172
1392.000000	85.292035
1391.000000	85.401395
1390.000000	85.515682
1389.000000	85.629796
1388.000000	85.752490
1387.000000	85.893057
1386.000000	86.037672
1385.000000	86.168405
1384.000000	86.289154
1383.000000	86.412497
1382.000000	86.542235
1381.000000	86.674597
1380.000000	86.813904
1379.000000	86.969307
1378.000000	87.140249
1377.000000	87.320161
1376.000000	87.510373
1375.000000	87.714080
1374.000000	87.916817
1373.000000	88.095296
1372.000000	88.244393
1371.000000	88.376945
1370.000000	88.502208
1369.000000	88.626544
1368.000000	88.755926
1367.000000	88.888579
1366.000000	89.015231
1365.000000	89.130452
1364.000000	89.237337
1363.000000	89.339078
1362.000000	89.431799
1361.000000	89.511450
1360.000000	89.581292
1359.000000	89.645000
1358.000000	89.701927
1357.000000	89.754367
1356.000000	89.809626
1355.000000	89.871372
1354.000000	89.935937
1353.000000	90.000002
1352.000000	90.063926
1351.000000	90.128374
1350.000000	90.187744
1349.000000	90.238225
1348.000000	90.279498
1347.000000	90.308844
1346.000000	90.320768
1345.000000	90.315969
1344.000000	90.302764
1343.000000	90.285490
1342.000000	90.258084
1341.000000	90.212915
1340.000000	90.152112
1339.000000	90.086710
1338.000000	90.027531
1337.000000	89.982460
1336.000000	89.958063
1335.000000	89.957028
1334.000000	89.976838
1333.000000	90.015357
1332.000000	90.073277
1331.000000	90.148188
1330.000000	90.230978
1329.000000	90.313322
1328.000000	90.394097
1327.000000	90.474835
1326.000000	90.552713
1325.000000	90.624443
1324.000000	90.690601
1323.000000	90.753225
1322.000000	90.812896
1321.000000	90.870202
1320.000000	90.926797
1319.000000	90.983610
1318.000000	91.041286
1317.000000	91.102408
1316.000000	91.169547
1315.000000	91.240902
1314.000000	91.312323
1313.000000	91.383439
1312.000000	91.456960
1311.000000	91.532543
1310.000000	91.606648
1309.000000	91.678703
1308.000000	91.751352
1307.000000	91.825532
1306.000000	91.898919
1305.000000	91.970940
1304.000000	92.043006
1303.000000	92.114813
1302.000000	92.185263
1301.000000	92.256473
1300.000000	92.331602
1299.000000	92.408917
1298.000000	92.483078
1297.000000	92.551121
1296.000000	92.612744
1295.000000	92.665419
1294.000000	92.705889
1293.000000	92.735726
1292.000000	92.759886
1291.000000	92.780424
1290.000000	92.795768
1289.000000	92.805831
1288.000000	92.812820
1287.000000	92.817612
1286.000000	92.820221
1285.000000	92.823076
1284.000000	92.829398
1283.000000	92.838886
1282.000000	92.848738
1281.000000	92.857467
1280.000000	92.863460
1279.000000	92.861298
1278.000000	92.845348
1277.000000	92.815667
1276.000000	92.775829
1275.000000	92.724679
1274.000000	92.656355
1273.000000	92.568373
1272.000000	92.464146
1271.000000	92.347440
1270.000000	92.217960
1269.000000	92.074915
1268.000000	91.921153
1267.000000	91.760680
1266.000000	91.595364
1265.000000	91.425537
1264.000000	91.252513
1263.000000	91.078698
1262.000000	90.906905
1261.000000	90.741340
1260.000000	90.587465
1259.000000	90.447553
1258.000000	90.318575
1257.000000	90.199009
1256.000000	90.095269
1255.000000	90.017486
1254.000000	89.968938
1253.000000	89.941889
1252.000000	89.923742
1251.000000	89.903074
1250.000000	89.872607
1249.000000	89.831532
1248.000000	89.784958
1247.000000	89.738059
1246.000000	89.691105
1245.000000	89.642432
1244.000000	89.594624
1243.000000	89.554346
1242.000000	89.527135
1241.000000	89.515165
1240.000000	89.518757
1239.000000	89.536816
1238.000000	89.566517
1237.000000	89.607413
1236.000000	89.663866
1235.000000	89.740160
1234.000000	89.835001
1233.000000	89.942764
1232.000000	90.059620
1231.000000	90.185241
1230.000000	90.321736
1229.000000	90.474788
1228.000000	90.651324
1227.000000	90.853042
1226.000000	91.072813
1225.000000	91.299284
1224.000000	91.522736
1223.000000	91.735274
1222.000000	91.930736
1221.000000	92.107048
1220.000000	92.265759
1219.000000	92.407432
1218.000000	92.531760
1217.000000	92.641086
1216.000000	92.738692
1215.000000	92.823700
1214.000000	92.891744
1213.000000	92.943294
1212.000000	92.985105
1211.000000	93.021494
1210.000000	93.049006
1209.000000	93.061098
1208.000000	93.055825
1207.000000	93.036668
1206.000000	93.009415
1205.000000	92.980634
1204.000000	92.955652
1203.000000	92.935480
1202.000000	92.916674
1201.000000	92.895946
1200.000000	92.873706
1199.000000	92.851701
1198.000000	92.829694
1197.000000	92.806425
1196.000000	92.781943
1195.000000	92.756873
1194.000000	92.730383
1193.000000	92.700911
1192.000000	92.668247
1191.000000	92.633507
1190.000000	92.597794
1189.000000	92.561135
1188.000000	92.521371
1187.000000	92.473678
1186.000000	92.413090
1185.000000	92.339309
1184.000000	92.256693
1183.000000	92.168310
1182.000000	92.072004
1181.000000	91.963613
1180.000000	91.843323
1179.000000	91.715910
1178.000000	91.586143
1177.000000	91.456948
1176.000000	91.330533
1175.000000	91.207822
1174.000000	91.086828
1173.000000	90.965730
1172.000000	90.847629
1171.000000	90.738813
1170.000000	90.641449
1169.000000	90.551718
1168.000000	90.465939
1167.000000	90.384404
1166.000000	90.309608
1165.000000	90.244583
1164.000000	90.194643
1163.000000	90.167078
1162.000000	90.165653
1161.000000	90.189555
1160.000000	90.237551
1159.000000	90.309877
1158.000000	90.406242
1157.000000	90.523873
1156.000000	90.660473
1155.000000	90.815747
1154.000000	90.990336
1153.000000	91.186063
1152.000000	91.403963
1151.000000	91.640599
1150.000000	91.887147
1149.000000	92.135061
1148.000000	92.381639
1147.000000	92.627687
1146.000000	92.873175
1145.000000	93.116844
1144.000000	93.357041
1143.000000	93.589652
1142.000000	93.808443
1141.000000	94.009711
1140.000000	94.194904
1139.000000	94.367656
1138.000000	94.528729
1137.000000	94.675651
1136.000000	94.804629
1135.000000	94.912176
1134.000000	94.997792
1133.000000	95.064564
1132.000000	95.117364
1131.000000	95.159450
1130.000000	95.191108
1129.000000	95.211962
1128.000000	95.222541
1127.000000	95.224691
1126.000000	95.220256
1125.000000	95.208714
1124.000000	95.187219
1123.000000	95.153404
1122.000000	95.108625
1121.000000	95.056538
1120.000000	94.997598
1119.000000	94.927422
1118.000000	94.839759
1117.000000	94.730075
1116.000000	94.596151
1115.000000	94.437367
1114.000000	94.256873
1113.000000	94.064286
1112.000000	93.876303
1111.000000	93.712343
1110.000000	93.586779
1109.000000	93.503353
1108.000000	93.457207
1107.000000	93.440703
1106.000000	93.445365
1105.000000	93.462107
1104.000000	93.481752
1103.000000	93.497177
1102.000000	93.503037
1101.000000	93.493653
1100.000000	93.463879
1099.000000	93.413381
1098.000000	93.349099
1097.000000	93.280558
1096.000000	93.214010
1095.000000	93.152211
1094.000000	93.098777
1093.000000	93.060399
1092.000000	93.045438
1091.000000	93.060189
1090.000000	93.106232
1089.000000	93.178680
1088.000000	93.267685
1087.000000	93.364454
1086.000000	93.466338
1085.000000	93.576703
1084.000000	93.698108
1083.000000	93.827245
1082.000000	93.957276
1081.000000	94.082801
1080.000000	94.201533
1079.000000	94.313473
1078.000000	94.420764
1077.000000	94.525617
1076.000000	94.626336
1075.000000	94.716927
1074.000000	94.792834
1073.000000	94.855066
1072.000000	94.906574
1071.000000	94.948307
1070.000000	94.979949
1069.000000	95.001539
1068.000000	95.012694
1067.000000	95.013005
1066.000000	95.005744
1065.000000	94.997066
1064.000000	94.989699
1063.000000	94.981494
1062.000000	94.971953
1061.000000	94.965939
1060.000000	94.967611
1059.000000	94.975248
1058.000000	94.985999
1057.000000	95.002082
1056.000000	95.026884
1055.000000	95.057403
1054.000000	95.086534
1053.000000	95.112058
1052.000000	95.138998
1051.000000	95.172567
1050.000000	95.212607
1049.000000	95.255104
1048.000000	95.295637
1047.000000	95.330793
1046.000000	95.358747
1045.000000	95.378760
1044.000000	95.388944
1043.000000	95.386749
1042.000000	95.372736
1041.000000	95.351317
1040.000000	95.324929
1039.000000	95.289048
1038.000000	95.236694
1037.000000	95.166665
1036.000000	95.086157
1035.000000	95.006745
1034.000000	94.938756
1033.000000	94.886528
1032.000000	94.846055
1031.000000	94.809027
1030.000000	94.771889
1029.000000	94.740769
1028.000000	94.724911
1027.000000	94.726542
1026.000000	94.739647
1025.000000	94.757329
1024.000000	94.777631
1023.000000	94.802197
1022.000000	94.832778
1021.000000	94.869683
1020.000000	94.911121
1019.000000	94.954046
1018.000000	94.997048
1017.000000	95.042069
1016.000000	95.091561
1015.000000	95.144979
1014.000000	95.200643
1013.000000	95.259802
1012.000000	95.325916
1011.000000	95.400297
1010.000000	95.480478
1009.000000	95.562348
1008.000000	95.641823
1007.000000	95.715891
1006.000000	95.784760
1005.000000	95.851806
1004.000000	95.918883
1003.000000	95.982989
1002.000000	96.040233
1001.000000	96.090791
1000.000000	96.137149
999.000000	96.179047
998.000000	96.213977
997.000000	96.241512
996.000000	96.263166
995.000000	96.279503
994.000000	96.290807
993.000000	96.300200
992.000000	96.312484
991.000000	96.329388
990.000000	96.348078
989.000000	96.363755
988.000000	96.371917
987.000000	96.369850
986.000000	96.359120
985.000000	96.345838
984.000000	96.334940
983.000000	96.324412
982.000000	96.308322
981.000000	96.284869
980.000000	96.258401
979.000000	96.232936
978.000000	96.207092
977.000000	96.176838
976.000000	96.140611
975.000000	96.100324
974.000000	96.058830
973.000000	96.018471
972.000000	95.981706
971.000000	95.951883
970.000000	95.932401
969.000000	95.924609
968.000000	95.926773
967.000000	95.935433
966.000000	95.949107
965.000000	95.969966
964.000000	96.000466
963.000000	96.039334
962.000000	96.082302
961.000000	96.127336
960.000000	96.176879
959.000000	96.233928
958.000000	96.297829
957.000000	96.364872
956.000000	96.432634
955.000000	96.502493
954.000000	96.577567
953.000000	96.658770
952.000000	96.743009
951.000000	96.825617
950.000000	96.903832
949.000000	96.976821
948.000000	97.043202
947.000000	97.101472
946.000000	97.153429
945.000000	97.203703
944.000000	97.254441
943.000000	97.302871
942.000000	97.346030
941.000000	97.384883
940.000000	97.421060
939.000000	97.452740
938.000000	97.477392
937.000000	97.497514
936.000000	97.519802
935.000000	97.548816
934.000000	97.584010
933.000000	97.622685
932.000000	97.663268
931.000000	97.704791
930.000000	97.745040
929.000000	97.780882
928.000000	97.810887
927.000000	97.837407
926.000000	97.865056
925.000000	97.896276
924.000000	97.929513
923.000000	97.963017
922.000000	97.998496
921.000000	98.037914
920.000000	98.078311
919.000000	98.114166
918.000000	98.145047
917.000000	98.176232
916.000000	98.211144
915.000000	98.248110
914.000000	98.285420
913.000000	98.324283
912.000000	98.364366
911.000000	98.401934
910.000000	98.435668
909.000000	98.469700
908.000000	98.506770
907.000000	98.542617
906.000000	98.571654
905.000000	98.594332
904.000000	98.614360
903.000000	98.631764
902.000000	98.644503
901.000000	98.655113
900.000000	98.670415
899.000000	98.694079
898.000000	98.722760
897.000000	98.749044
896.000000	98.766578
895.000000	98.773755
894.000000	98.774708
893.000000	98.775476
892.000000	98.776388
891.000000	98.768047
890.000000	98.730877
889.000000	98.632487
888.000000	98.428297
887.000000	98.077872
886.000000	97.578598
885.000000	96.982443
884.000000	96.367641
883.000000	95.785050
882.000000	95.222716
881.000000	94.622732
880.000000	93.935261
879.000000	93.163921
878.000000	92.366509
877.000000	91.624891
876.000000	91.017134
875.000000	90.608590
874.000000	90.453112
873.000000	90.585340
872.000000	91.009400
871.000000	91.681465
870.000000	92.506708
869.000000	93.368318
868.000000	94.168220
867.000000	94.853681
866.000000	95.416189
865.000000	95.873884
864.000000	96.250485
863.000000	96.564723
862.000000	96.829887
861.000000	97.056487
860.000000	97.251871
859.000000	97.419188
858.000000	97.561510
857.000000	97.683273
856.000000	97.786951
855.000000	97.872761
854.000000	97.942871
853.000000	97.999419
852.000000	98.032214
851.000000	98.019238
850.000000	97.954607
849.000000	97.874684
848.000000	97.841503
847.000000	97.890665
846.000000	98.000405
845.000000	98.117252
844.000000	98.204713
843.000000	98.262043
842.000000	98.304703
841.000000	98.340734
840.000000	98.368602
839.000000	98.387416
838.000000	98.401023
837.000000	98.412602
836.000000	98.419834
835.000000	98.417720
834.000000	98.405229
833.000000	98.388333
832.000000	98.376121
831.000000	98.374970
830.000000	98.386970
829.000000	98.412692
828.000000	98.452311
827.000000	98.502495
826.000000	98.554710
825.000000	98.599278
824.000000	98.631032
823.000000	98.650708
822.000000	98.663257
821.000000	98.675990
820.000000	98.694830
819.000000	98.718511
818.000000	98.738151
817.000000	98.746421
816.000000	98.746031
815.000000	98.745693
814.000000	98.748636
813.000000	98.750376
812.000000	98.748752
811.000000	98.749327
810.000000	98.756656
809.000000	98.764610
808.000000	98.761738
807.000000	98.744771
806.000000	98.721312
805.000000	98.699876
804.000000	98.682974
803.000000	98.670880
802.000000	98.665562
801.000000	98.666204
800.000000	98.664376
799.000000	98.648836
798.000000	98.615891
797.000000	98.573235
796.000000	98.533586
795.000000	98.505145
794.000000	98.486926
793.000000	98.471554
792.000000	98.452385
791.000000	98.428440
790.000000	98.402984
789.000000	98.378437
788.000000	98.354325
787.000000	98.330065
786.000000	98.307950
785.000000	98.292268
784.000000	98.285630
783.000000	98.285857
782.000000	98.286137
781.000000	98.279215
780.000000	98.262875
779.000000	98.241115
778.000000	98.219125
777.000000	98.198121
776.000000	98.176397
775.000000	98.153713
774.000000	98.132223
773.000000	98.113726
772.000000	98.098463
771.000000	98.086366
770.000000	98.077071
769.000000	98.069042
768.000000	98.060764
767.000000	98.051802
766.000000	98.040153
765.000000	98.020235
764.000000	97.988141
763.000000	97.949024
762.000000	97.913958
761.000000	97.887176
760.000000	97.860844
759.000000	97.825806
758.000000	97.783961
757.000000	97.745131
756.000000	97.713571
755.000000	97.683659
754.000000	97.650403
753.000000	97.619119
752.000000	97.599870
751.000000	97.594150
750.000000	97.592386
749.000000	97.586128
748.000000	97.577711
747.000000	97.573616
746.000000	97.572108
745.000000	97.564362
744.000000	97.547719
743.000000	97.530081
742.000000	97.518129
741.000000	97.507641
740.000000	97.490106
739.000000	97.463738
738.000000	97.431979
737.000000	97.395576
736.000000	97.353273
735.000000	97.307562
734.000000	97.261672
733.000000	97.212227
732.000000	97.153776
731.000000	97.091208
730.000000	97.038637
729.000000	97.002288
728.000000	96.973948
727.000000	96.944649
726.000000	96.915452
725.000000	96.890050
724.000000	96.863171
723.000000	96.822649
722.000000	96.759122
721.000000	96.669407
720.000000	96.552759
719.000000	96.403888
718.000000	96.202901
717.000000	95.909793
716.000000	95.484150
715.000000	94.934984
714.000000	94.360912
713.000000	93.924463
712.000000	93.760030
711.000000	93.885727
710.000000	94.196940
709.000000	94.542397
708.000000	94.812750
707.000000	94.978078
706.000000	95.062656
705.000000	95.100298
704.000000	95.111732
703.000000	95.105991
702.000000	95.089371
701.000000	95.068854
700.000000	95.048525
699.000000	95.028688
698.000000	95.007907
697.000000	94.986146
696.000000	94.965810
695.000000	94.948424
694.000000	94.936079
693.000000	94.934819
692.000000	94.949600
691.000000	94.975494
690.000000	94.995787
689.000000	94.995542
688.000000	94.977671
687.000000	94.958963
686.000000	94.951651
685.000000	94.952562
684.000000	94.948762
683.000000	94.931904
682.000000	94.905739
681.000000	94.882089
680.000000	94.870931
679.000000	94.874099
678.000000	94.886522
677.000000	94.898908
676.000000	94.907750
675.000000	94.918581
674.000000	94.941265
673.000000	94.981466
672.000000	95.037362
671.000000	95.104251
670.000000	95.180486
669.000000	95.260095
668.000000	95.305937
667.000000	95.302424
666.000000	95.316197
665.000000	95.348940
664.000000	95.378308
663.000000	95.402264
662.000000	95.421897
661.000000	95.432545
660.000000	95.432527
659.000000	95.429427
658.000000	95.428037
657.000000	95.417799
656.000000	95.389855
655.000000	95.349368
654.000000	95.302039
653.000000	95.242896
652.000000	95.170949
651.000000	95.098280
650.000000	95.034092
649.000000	94.971888
648.000000	94.906012
647.000000	94.842873
646.000000	94.782419
645.000000	94.709377
644.000000	94.616341
643.000000	94.517967
642.000000	94.429863
641.000000	94.346133
640.000000	94.255049
639.000000	94.165062
638.000000	94.094432
637.000000	94.047561
636.000000	94.019983
635.000000	94.014254
634.000000	94.033877
633.000000	94.070007
632.000000	94.107127
631.000000	94.134167
630.000000	94.142525
629.000000	94.126750
628.000000	94.098048
627.000000	94.082715
626.000000	94.091298
625.000000	94.101586
624.000000	94.086047
623.000000	94.044003
622.000000	93.994740
621.000000	93.950982
620.000000	93.913094
619.000000	93.877789
618.000000	93.836656
617.000000	93.776601
616.000000	93.698962
615.000000	93.629384
614.000000	93.591231
613.000000	93.578066
612.000000	93.568303
611.000000	93.558649
610.000000	93.565180
609.000000	93.597129
608.000000	93.646960
607.000000	93.704053
606.000000	93.764139
605.000000	93.830925
604.000000	93.918961
603.000000	94.047837
602.000000	94.220703
601.000000	94.410843
600.000000	94.581303
599.000000	94.716928
598.000000	94.831310
597.000000	94.944781
596.000000	95.065428
595.000000	95.188860
594.000000	95.303665
593.000000	95.396059
592.000000	95.457786
591.000000	95.494757
590.000000	95.523447
589.000000	95.556338
588.000000	95.594306
587.000000	95.630665
586.000000	95.658302
585.000000	95.675183
584.000000	95.687633
583.000000	95.704838
582.000000	95.725963
581.000000	95.738494
580.000000	95.736012
579.000000	95.731152
578.000000	95.741238
577.000000	95.766000
576.000000	95.789331
575.000000	95.801413
574.000000	95.810924
573.000000	95.832416
572.000000	95.869001
571.000000	95.908624
570.000000	95.933989
569.000000	95.940460
568.000000	95.944321
567.000000	95.965547
566.000000	96.000445
565.000000	96.020384
564.000000	96.003557
563.000000	95.960191
562.000000	95.921507
561.000000	95.910403
560.000000	95.928243
559.000000	95.961349
558.000000	95.990219
557.000000	96.000645
556.000000	95.995956
555.000000	95.992095
554.000000	95.994977
553.000000	95.993774
552.000000	95.983342
551.000000	95.978412
550.000000	95.993727
549.000000	96.023769
548.000000	96.057882
547.000000	96.098265
546.000000	96.144220
545.000000	96.172549
544.000000	96.160386
543.000000	96.120595
542.000000	96.091961
541.000000	96.095469
540.000000	96.116711
539.000000	96.128662
538.000000	96.115025
537.000000	96.075514
536.000000	96.026816
535.000000	95.998723
534.000000	96.010764
533.000000	96.047224
532.000000	96.068181
531.000000	96.048598
530.000000	96.002190
529.000000	95.967142
528.000000	95.975782
527.000000	96.033681
526.000000	96.112246
525.000000	96.168951
524.000000	96.188475
523.000000	96.188722
522.000000	96.186251
521.000000	96.179343
520.000000	96.167221
519.000000	96.165744
518.000000	96.189541
517.000000	96.230791
516.000000	96.272629
515.000000	96.306601
514.000000	96.324883
513.000000	96.318951
512.000000	96.302404
511.000000	96.314050
510.000000	96.375008
509.000000	96.457633
508.000000	96.519630
507.000000	96.553318
506.000000	96.577668
505.000000	96.597858
504.000000	96.605248
503.000000	96.609283
502.000000	96.637141
501.000000	96.695945
500.000000	96.762620
499.000000	96.814378
498.000000	96.844524
497.000000	96.856661
496.000000	96.862395
495.000000	96.873336
494.000000	96.881314
493.000000	96.858624
492.000000	96.800250
491.000000	96.751206
490.000000	96.762593
489.000000	96.831311
488.000000	96.909769
487.000000	96.959952
486.000000	96.974183
485.000000	96.965396
484.000000	96.963939
483.000000	97.006975
482.000000	97.096459
481.000000	97.180775
480.000000	97.210502
479.000000	97.197443
478.000000	97.194900
477.000000	97.231116
476.000000	97.294052
475.000000	97.371137
474.000000	97.458118
473.000000	97.528110
472.000000	97.540410
471.000000	97.500071
470.000000	97.462425
469.000000	97.469919
468.000000	97.530296
467.000000	97.635209
466.000000	97.756184
465.000000	97.841660
464.000000	97.860562
463.000000	97.847268
462.000000	97.878197
461.000000	97.985751
460.000000	98.130218
459.000000	98.261395
458.000000	98.361234
457.000000	98.440044
456.000000	98.468556
455.000000	98.596432
454.000000	98.728662
453.000000	98.812411
452.000000	98.801339
451.000000	98.731320
450.000000	98.696561
