PE IR       SUBTECH     SPECTRUM    ASCII       PEDS        4.00        
   -1
3C-XXX-F020_1.ASC
23/09/07
10:52:46.00
23/09/07
11:30:09.00
uco
Sample 020 By uco Date Thursday, September 07 2023
450.000000
#HDR
-1
-1
#GR
cm-1
%T
1.0
0.0
4000.000000
-1.000000
3551
8
98.839800
85.585295
#DATA
4000.000000	98.770763
3999.000000	98.769203
3998.000000	98.768022
3997.000000	98.768586
3996.000000	98.769855
3995.000000	98.771438
3994.000000	98.772386
3993.000000	98.771801
3992.000000	98.769041
3991.000000	98.764045
3990.000000	98.757621
3989.000000	98.751285
3988.000000	98.746625
3987.000000	98.744462
3986.000000	98.744454
3985.000000	98.745604
3984.000000	98.747270
3983.000000	98.749766
3982.000000	98.753714
3981.000000	98.758740
3980.000000	98.762951
3979.000000	98.763830
3978.000000	98.759862
3977.000000	98.751692
3976.000000	98.742022
3975.000000	98.734359
3974.000000	98.731189
3973.000000	98.732763
3972.000000	98.737282
3971.000000	98.742225
3970.000000	98.745763
3969.000000	98.747158
3968.000000	98.746461
3967.000000	98.744255
3966.000000	98.741556
3965.000000	98.739465
3964.000000	98.738409
3963.000000	98.737775
3962.000000	98.736573
3961.000000	98.734465
3960.000000	98.731934
3959.000000	98.729527
3958.000000	98.727331
3957.000000	98.725294
3956.000000	98.723745
3955.000000	98.723304
3954.000000	98.724276
3953.000000	98.726261
3952.000000	98.728447
3951.000000	98.730141
3950.000000	98.730943
3949.000000	98.730611
3948.000000	98.729069
3947.000000	98.726428
3946.000000	98.722695
3945.000000	98.717872
3944.000000	98.712934
3943.000000	98.710392
3942.000000	98.712611
3941.000000	98.719391
3940.000000	98.727683
3939.000000	98.733766
3938.000000	98.735633
3937.000000	98.733481
3936.000000	98.728772
3935.000000	98.723398
3934.000000	98.719838
3933.000000	98.721026
3932.000000	98.728253
3931.000000	98.738788
3930.000000	98.746736
3929.000000	98.747250
3928.000000	98.739969
3927.000000	98.728905
3926.000000	98.719789
3925.000000	98.716766
3924.000000	98.719971
3923.000000	98.726191
3922.000000	98.732086
3921.000000	98.735979
3920.000000	98.737039
3919.000000	98.734461
3918.000000	98.728891
3917.000000	98.723962
3916.000000	98.723852
3915.000000	98.728622
3914.000000	98.733559
3913.000000	98.733796
3912.000000	98.728373
3911.000000	98.720376
3910.000000	98.713846
3909.000000	98.710516
3908.000000	98.709352
3907.000000	98.708241
3906.000000	98.706464
3905.000000	98.706113
3904.000000	98.710632
3903.000000	98.720659
3902.000000	98.732264
3901.000000	98.740266
3900.000000	98.742798
3899.000000	98.741864
3898.000000	98.739835
3897.000000	98.737177
3896.000000	98.733433
3895.000000	98.729047
3894.000000	98.725429
3893.000000	98.724068
3892.000000	98.725704
3891.000000	98.729962
3890.000000	98.735381
3889.000000	98.739182
3888.000000	98.737781
3887.000000	98.729917
3886.000000	98.719936
3885.000000	98.714779
3884.000000	98.716442
3883.000000	98.720314
3882.000000	98.721341
3881.000000	98.718839
3880.000000	98.715627
3879.000000	98.714273
3878.000000	98.715101
3877.000000	98.716894
3876.000000	98.718595
3875.000000	98.720463
3874.000000	98.723379
3873.000000	98.726853
3872.000000	98.729265
3871.000000	98.731100
3870.000000	98.735775
3869.000000	98.744680
3868.000000	98.753605
3867.000000	98.756430
3866.000000	98.751646
3865.000000	98.744772
3864.000000	98.742368
3863.000000	98.744100
3862.000000	98.743861
3861.000000	98.738122
3860.000000	98.729425
3859.000000	98.722654
3858.000000	98.720345
3857.000000	98.720409
3856.000000	98.718106
3855.000000	98.710552
3854.000000	98.701683
3853.000000	98.699608
3852.000000	98.705404
3851.000000	98.713582
3850.000000	98.719834
3849.000000	98.722401
3848.000000	98.721714
3847.000000	98.719223
3846.000000	98.716672
3845.000000	98.715655
3844.000000	98.717140
3843.000000	98.721719
3842.000000	98.729585
3841.000000	98.739787
3840.000000	98.750099
3839.000000	98.757589
3838.000000	98.760166
3837.000000	98.758728
3836.000000	98.757161
3835.000000	98.758488
3834.000000	98.762132
3833.000000	98.765010
3832.000000	98.764368
3831.000000	98.759319
3830.000000	98.750583
3829.000000	98.739945
3828.000000	98.730096
3827.000000	98.724583
3826.000000	98.725665
3825.000000	98.731718
3824.000000	98.738173
3823.000000	98.742158
3822.000000	98.745492
3821.000000	98.750909
3820.000000	98.755829
3819.000000	98.755204
3818.000000	98.748440
3817.000000	98.739320
3816.000000	98.732120
3815.000000	98.726932
3814.000000	98.720596
3813.000000	98.712265
3812.000000	98.705161
3811.000000	98.703657
3810.000000	98.708942
3809.000000	98.717772
3808.000000	98.725827
3807.000000	98.731999
3806.000000	98.737999
3805.000000	98.744290
3804.000000	98.748441
3803.000000	98.748677
3802.000000	98.747610
3801.000000	98.748867
3800.000000	98.751043
3799.000000	98.750078
3798.000000	98.744693
3797.000000	98.737234
3796.000000	98.731042
3795.000000	98.726819
3794.000000	98.722934
3793.000000	98.719090
3792.000000	98.717387
3791.000000	98.719513
3790.000000	98.724085
3789.000000	98.727443
3788.000000	98.726933
3787.000000	98.722953
3786.000000	98.718199
3785.000000	98.715581
3784.000000	98.716155
3783.000000	98.718643
3782.000000	98.720867
3781.000000	98.721635
3780.000000	98.721093
3779.000000	98.719460
3778.000000	98.716189
3777.000000	98.711381
3776.000000	98.707031
3775.000000	98.706043
3774.000000	98.709761
3773.000000	98.716111
3772.000000	98.720906
3771.000000	98.722257
3770.000000	98.723060
3769.000000	98.727113
3768.000000	98.733978
3767.000000	98.739573
3766.000000	98.740625
3765.000000	98.737543
3764.000000	98.733334
3763.000000	98.729952
3762.000000	98.727180
3761.000000	98.725149
3760.000000	98.725442
3759.000000	98.728890
3758.000000	98.734447
3757.000000	98.741057
3756.000000	98.748531
3755.000000	98.756048
3754.000000	98.762402
3753.000000	98.767353
3752.000000	98.770516
3751.000000	98.769238
3750.000000	98.761603
3749.000000	98.752170
3748.000000	98.748060
3747.000000	98.749852
3746.000000	98.753114
3745.000000	98.755266
3744.000000	98.756405
3743.000000	98.757024
3742.000000	98.756493
3741.000000	98.753483
3740.000000	98.749023
3739.000000	98.746250
3738.000000	98.746781
3737.000000	98.749676
3736.000000	98.754092
3735.000000	98.760104
3734.000000	98.766768
3733.000000	98.772088
3732.000000	98.775344
3731.000000	98.777574
3730.000000	98.779405
3729.000000	98.779398
3728.000000	98.775408
3727.000000	98.767351
3726.000000	98.758100
3725.000000	98.751468
3724.000000	98.749700
3723.000000	98.752874
3722.000000	98.758809
3721.000000	98.764317
3720.000000	98.767305
3719.000000	98.767325
3718.000000	98.765250
3717.000000	98.763129
3716.000000	98.763096
3715.000000	98.765199
3714.000000	98.766725
3713.000000	98.764420
3712.000000	98.758320
3711.000000	98.752560
3710.000000	98.749923
3709.000000	98.748424
3708.000000	98.745585
3707.000000	98.742338
3706.000000	98.741804
3705.000000	98.745741
3704.000000	98.752779
3703.000000	98.759309
3702.000000	98.762095
3701.000000	98.760459
3700.000000	98.756194
3699.000000	98.751267
3698.000000	98.746751
3697.000000	98.743798
3696.000000	98.743369
3695.000000	98.744301
3694.000000	98.744066
3693.000000	98.742493
3692.000000	98.742995
3691.000000	98.749042
3690.000000	98.758787
3689.000000	98.764636
3688.000000	98.761471
3687.000000	98.753034
3686.000000	98.745306
3685.000000	98.739368
3684.000000	98.733981
3683.000000	98.729017
3682.000000	98.725305
3681.000000	98.723323
3680.000000	98.723560
3679.000000	98.726064
3678.000000	98.728808
3677.000000	98.729442
3676.000000	98.729149
3675.000000	98.729971
3674.000000	98.729370
3673.000000	98.724114
3672.000000	98.714615
3671.000000	98.705888
3670.000000	98.703733
3669.000000	98.705637
3668.000000	98.703074
3667.000000	98.693331
3666.000000	98.680264
3665.000000	98.668551
3664.000000	98.660578
3663.000000	98.655972
3662.000000	98.653576
3661.000000	98.653174
3660.000000	98.654887
3659.000000	98.656852
3658.000000	98.655114
3657.000000	98.647374
3656.000000	98.636974
3655.000000	98.630488
3654.000000	98.630273
3653.000000	98.632496
3652.000000	98.631797
3651.000000	98.626183
3650.000000	98.618252
3649.000000	98.612553
3648.000000	98.610961
3647.000000	98.611395
3646.000000	98.610176
3645.000000	98.604407
3644.000000	98.593830
3643.000000	98.581453
3642.000000	98.571636
3641.000000	98.566452
3640.000000	98.564341
3639.000000	98.562671
3638.000000	98.560350
3637.000000	98.557182
3636.000000	98.552527
3635.000000	98.546285
3634.000000	98.540230
3633.000000	98.536087
3632.000000	98.532457
3631.000000	98.526143
3630.000000	98.517272
3629.000000	98.510779
3628.000000	98.508919
3627.000000	98.507554
3626.000000	98.503422
3625.000000	98.497008
3624.000000	98.490917
3623.000000	98.487143
3622.000000	98.484665
3621.000000	98.480477
3620.000000	98.473015
3619.000000	98.463681
3618.000000	98.454634
3617.000000	98.446240
3616.000000	98.437001
3615.000000	98.425092
3614.000000	98.410401
3613.000000	98.394734
3612.000000	98.379713
3611.000000	98.365054
3610.000000	98.349594
3609.000000	98.334267
3608.000000	98.322732
3607.000000	98.317626
3606.000000	98.317653
3605.000000	98.319306
3604.000000	98.319861
3603.000000	98.317880
3602.000000	98.312648
3601.000000	98.304597
3600.000000	98.295875
3599.000000	98.288673
3598.000000	98.283035
3597.000000	98.276764
3596.000000	98.267254
3595.000000	98.253895
3594.000000	98.238902
3593.000000	98.225369
3592.000000	98.214285
3591.000000	98.203846
3590.000000	98.191244
3589.000000	98.175841
3588.000000	98.160846
3587.000000	98.150554
3586.000000	98.145376
3585.000000	98.141833
3584.000000	98.136333
3583.000000	98.126906
3582.000000	98.113364
3581.000000	98.097609
3580.000000	98.083457
3579.000000	98.074604
3578.000000	98.071599
3577.000000	98.071298
3576.000000	98.069140
3575.000000	98.062232
3574.000000	98.050556
3573.000000	98.036290
3572.000000	98.022225
3571.000000	98.010297
3570.000000	98.000655
3569.000000	97.992111
3568.000000	97.983400
3567.000000	97.973924
3566.000000	97.963579
3565.000000	97.952505
3564.000000	97.940830
3563.000000	97.928486
3562.000000	97.915607
3561.000000	97.902964
3560.000000	97.891795
3559.000000	97.882839
3558.000000	97.875313
3557.000000	97.867076
3556.000000	97.855743
3555.000000	97.839608
3554.000000	97.818504
3553.000000	97.794906
3552.000000	97.773798
3551.000000	97.759546
3550.000000	97.752244
3549.000000	97.748030
3548.000000	97.742544
3547.000000	97.733974
3546.000000	97.723491
3545.000000	97.713553
3544.000000	97.705588
3543.000000	97.698973
3542.000000	97.691765
3541.000000	97.682507
3540.000000	97.671585
3539.000000	97.660778
3538.000000	97.651367
3537.000000	97.642695
3536.000000	97.632652
3535.000000	97.619564
3534.000000	97.603606
3533.000000	97.586822
3532.000000	97.572116
3531.000000	97.561678
3530.000000	97.555516
3529.000000	97.551482
3528.000000	97.546958
3527.000000	97.540357
3526.000000	97.531142
3525.000000	97.519403
3524.000000	97.506045
3523.000000	97.492683
3522.000000	97.480371
3521.000000	97.468569
3520.000000	97.455880
3519.000000	97.441701
3518.000000	97.426810
3517.000000	97.412591
3516.000000	97.399980
3515.000000	97.389047
3514.000000	97.379028
3513.000000	97.368612
3512.000000	97.356877
3511.000000	97.344581
3510.000000	97.334280
3509.000000	97.328292
3508.000000	97.326234
3507.000000	97.324829
3506.000000	97.320368
3505.000000	97.311207
3504.000000	97.298337
3503.000000	97.284003
3502.000000	97.270184
3501.000000	97.258291
3500.000000	97.249199
3499.000000	97.242621
3498.000000	97.236849
3497.000000	97.229874
3496.000000	97.220845
3495.000000	97.210031
3494.000000	97.197762
3493.000000	97.184263
3492.000000	97.170395
3491.000000	97.157573
3490.000000	97.146601
3489.000000	97.137035
3488.000000	97.127862
3487.000000	97.118161
3486.000000	97.107114
3485.000000	97.094401
3484.000000	97.081236
3483.000000	97.070263
3482.000000	97.063235
3481.000000	97.058723
3480.000000	97.053181
3479.000000	97.044515
3478.000000	97.034014
3477.000000	97.024739
3476.000000	97.018593
3475.000000	97.014852
3474.000000	97.011075
3473.000000	97.005153
3472.000000	96.996463
3471.000000	96.985556
3470.000000	96.973336
3469.000000	96.960664
3468.000000	96.948387
3467.000000	96.937337
3466.000000	96.928229
3465.000000	96.921625
3464.000000	96.917734
3463.000000	96.915907
3462.000000	96.914403
3461.000000	96.911024
3460.000000	96.904222
3459.000000	96.893610
3458.000000	96.879807
3457.000000	96.864259
3456.000000	96.849155
3455.000000	96.836904
3454.000000	96.829108
3453.000000	96.825819
3452.000000	96.825494
3451.000000	96.825574
3450.000000	96.823650
3449.000000	96.818779
3448.000000	96.811929
3447.000000	96.804760
3446.000000	96.797670
3445.000000	96.789466
3444.000000	96.779056
3443.000000	96.767127
3442.000000	96.756096
3441.000000	96.748371
3440.000000	96.744417
3439.000000	96.742341
3438.000000	96.739367
3437.000000	96.733799
3436.000000	96.725639
3435.000000	96.715719
3434.000000	96.704921
3433.000000	96.694308
3432.000000	96.684912
3431.000000	96.676496
3430.000000	96.667288
3429.000000	96.656136
3428.000000	96.644677
3427.000000	96.635972
3426.000000	96.630764
3425.000000	96.626082
3424.000000	96.617998
3423.000000	96.605299
3422.000000	96.590201
3421.000000	96.576170
3420.000000	96.565470
3419.000000	96.558378
3418.000000	96.553892
3417.000000	96.550559
3416.000000	96.546696
3415.000000	96.540596
3414.000000	96.531425
3413.000000	96.520150
3412.000000	96.508875
3411.000000	96.498787
3410.000000	96.489296
3409.000000	96.479711
3408.000000	96.471066
3407.000000	96.465127
3406.000000	96.461755
3405.000000	96.458193
3404.000000	96.451271
3403.000000	96.439992
3402.000000	96.426230
3401.000000	96.413525
3400.000000	96.404886
3399.000000	96.400583
3398.000000	96.397505
3397.000000	96.391199
3396.000000	96.379140
3395.000000	96.362206
3394.000000	96.343525
3393.000000	96.326581
3392.000000	96.313806
3391.000000	96.305586
3390.000000	96.300147
3389.000000	96.295068
3388.000000	96.289255
3387.000000	96.283202
3386.000000	96.277416
3385.000000	96.271220
3384.000000	96.263410
3383.000000	96.253518
3382.000000	96.242120
3381.000000	96.230228
3380.000000	96.218568
3379.000000	96.207038
3378.000000	96.194862
3377.000000	96.181657
3376.000000	96.168237
3375.000000	96.155759
3374.000000	96.144142
3373.000000	96.132246
3372.000000	96.119853
3371.000000	96.108512
3370.000000	96.099713
3369.000000	96.092765
3368.000000	96.085157
3367.000000	96.074758
3366.000000	96.061146
3365.000000	96.045206
3364.000000	96.028282
3363.000000	96.011725
3362.000000	95.996429
3361.000000	95.982314
3360.000000	95.968441
3359.000000	95.953933
3358.000000	95.938796
3357.000000	95.923760
3356.000000	95.909337
3355.000000	95.895165
3354.000000	95.880430
3353.000000	95.864868
3352.000000	95.849068
3351.000000	95.833663
3350.000000	95.818527
3349.000000	95.803114
3348.000000	95.787361
3347.000000	95.771745
3346.000000	95.756307
3345.000000	95.740021
3344.000000	95.721591
3343.000000	95.701046
3342.000000	95.680377
3341.000000	95.662074
3340.000000	95.646647
3339.000000	95.631847
3338.000000	95.614981
3337.000000	95.596136
3336.000000	95.578506
3335.000000	95.565177
3334.000000	95.556121
3333.000000	95.548640
3332.000000	95.539931
3331.000000	95.528585
3330.000000	95.514484
3329.000000	95.498347
3328.000000	95.481215
3327.000000	95.463628
3326.000000	95.445444
3325.000000	95.426974
3324.000000	95.409845
3323.000000	95.395698
3322.000000	95.384059
3321.000000	95.372357
3320.000000	95.358080
3319.000000	95.340620
3318.000000	95.321463
3317.000000	95.303415
3316.000000	95.289244
3315.000000	95.279702
3314.000000	95.272373
3313.000000	95.263305
3312.000000	95.250290
3311.000000	95.234366
3310.000000	95.218388
3309.000000	95.204874
3308.000000	95.195061
3307.000000	95.188592
3306.000000	95.183279
3305.000000	95.175859
3304.000000	95.164082
3303.000000	95.148522
3302.000000	95.132347
3301.000000	95.119219
3300.000000	95.110969
3299.000000	95.106628
3298.000000	95.103496
3297.000000	95.099279
3296.000000	95.093213
3295.000000	95.085272
3294.000000	95.075289
3293.000000	95.063873
3292.000000	95.053445
3291.000000	95.046826
3290.000000	95.044464
3289.000000	95.043904
3288.000000	95.042295
3287.000000	95.038717
3286.000000	95.034131
3285.000000	95.030072
3284.000000	95.027484
3283.000000	95.025925
3282.000000	95.023829
3281.000000	95.020603
3280.000000	95.018641
3279.000000	95.021681
3278.000000	95.030516
3277.000000	95.041405
3276.000000	95.049872
3275.000000	95.055402
3274.000000	95.060998
3273.000000	95.068888
3272.000000	95.078092
3271.000000	95.086096
3270.000000	95.091579
3269.000000	95.094972
3268.000000	95.097462
3267.000000	95.100326
3266.000000	95.104906
3265.000000	95.112330
3264.000000	95.122671
3263.000000	95.134419
3262.000000	95.145357
3261.000000	95.154434
3260.000000	95.162814
3259.000000	95.172699
3258.000000	95.185276
3257.000000	95.200286
3256.000000	95.217207
3255.000000	95.235799
3254.000000	95.255101
3253.000000	95.273054
3252.000000	95.288083
3251.000000	95.300516
3250.000000	95.311699
3249.000000	95.322157
3248.000000	95.331566
3247.000000	95.340072
3246.000000	95.348444
3245.000000	95.356715
3244.000000	95.363794
3243.000000	95.369050
3242.000000	95.373524
3241.000000	95.379029
3240.000000	95.386655
3239.000000	95.396732
3238.000000	95.409511
3237.000000	95.424683
3236.000000	95.440313
3235.000000	95.453610
3234.000000	95.463509
3233.000000	95.471799
3232.000000	95.480994
3231.000000	95.491311
3230.000000	95.500537
3229.000000	95.506695
3228.000000	95.510221
3227.000000	95.513512
3226.000000	95.518886
3225.000000	95.527029
3224.000000	95.536670
3223.000000	95.545562
3222.000000	95.552567
3221.000000	95.559175
3220.000000	95.568285
3219.000000	95.580737
3218.000000	95.593521
3217.000000	95.602369
3216.000000	95.605809
3215.000000	95.606154
3214.000000	95.606642
3213.000000	95.608629
3212.000000	95.611906
3211.000000	95.616776
3210.000000	95.624569
3209.000000	95.635584
3208.000000	95.647345
3207.000000	95.656123
3206.000000	95.660917
3205.000000	95.665102
3204.000000	95.673151
3203.000000	95.685700
3202.000000	95.699141
3201.000000	95.710124
3200.000000	95.718901
3199.000000	95.727512
3198.000000	95.736274
3197.000000	95.743784
3196.000000	95.749345
3195.000000	95.753519
3194.000000	95.756667
3193.000000	95.759141
3192.000000	95.763121
3191.000000	95.772270
3190.000000	95.788377
3189.000000	95.809119
3188.000000	95.829688
3187.000000	95.846064
3186.000000	95.856898
3185.000000	95.863837
3184.000000	95.870710
3183.000000	95.881191
3182.000000	95.895942
3181.000000	95.912184
3180.000000	95.926459
3179.000000	95.937252
3178.000000	95.945201
3177.000000	95.952131
3176.000000	95.960671
3175.000000	95.973348
3174.000000	95.990368
3173.000000	96.008627
3172.000000	96.024086
3171.000000	96.035262
3170.000000	96.043721
3169.000000	96.051801
3168.000000	96.060876
3167.000000	96.071476
3166.000000	96.083621
3165.000000	96.096634
3164.000000	96.109672
3163.000000	96.122840
3162.000000	96.137002
3161.000000	96.152111
3160.000000	96.166566
3159.000000	96.178856
3158.000000	96.189329
3157.000000	96.199524
3156.000000	96.210115
3155.000000	96.220438
3154.000000	96.230196
3153.000000	96.240628
3152.000000	96.253153
3151.000000	96.267185
3150.000000	96.280284
3149.000000	96.290796
3148.000000	96.299563
3147.000000	96.308511
3146.000000	96.318117
3145.000000	96.327231
3144.000000	96.335189
3143.000000	96.343064
3142.000000	96.352414
3141.000000	96.363558
3140.000000	96.375542
3139.000000	96.387312
3138.000000	96.398360
3137.000000	96.408558
3136.000000	96.417745
3135.000000	96.425362
3134.000000	96.430435
3133.000000	96.432491
3132.000000	96.432800
3131.000000	96.433917
3130.000000	96.437419
3129.000000	96.442613
3128.000000	96.448187
3127.000000	96.454555
3126.000000	96.463497
3125.000000	96.475406
3124.000000	96.487820
3123.000000	96.497117
3122.000000	96.501337
3121.000000	96.501447
3120.000000	96.500298
3119.000000	96.500488
3118.000000	96.502499
3117.000000	96.504638
3116.000000	96.505119
3115.000000	96.504346
3114.000000	96.504407
3113.000000	96.505988
3112.000000	96.506861
3111.000000	96.504468
3110.000000	96.499707
3109.000000	96.496742
3108.000000	96.498394
3107.000000	96.502551
3106.000000	96.504009
3105.000000	96.499783
3104.000000	96.491961
3103.000000	96.485304
3102.000000	96.482462
3101.000000	96.481827
3100.000000	96.479807
3099.000000	96.474956
3098.000000	96.469475
3097.000000	96.466514
3096.000000	96.466278
3095.000000	96.465407
3094.000000	96.460646
3093.000000	96.452634
3092.000000	96.445267
3091.000000	96.441535
3090.000000	96.440780
3089.000000	96.440084
3088.000000	96.437384
3087.000000	96.432640
3086.000000	96.426630
3085.000000	96.419743
3084.000000	96.412190
3083.000000	96.404864
3082.000000	96.399486
3081.000000	96.397599
3080.000000	96.399137
3079.000000	96.401916
3078.000000	96.403025
3077.000000	96.400972
3076.000000	96.396344
3075.000000	96.390464
3074.000000	96.384156
3073.000000	96.378198
3072.000000	96.374230
3071.000000	96.373983
3070.000000	96.377416
3069.000000	96.382199
3068.000000	96.385392
3067.000000	96.385650
3066.000000	96.383991
3065.000000	96.382838
3064.000000	96.384162
3063.000000	96.388266
3062.000000	96.394317
3061.000000	96.401939
3060.000000	96.411658
3059.000000	96.423262
3058.000000	96.434452
3057.000000	96.442371
3056.000000	96.446730
3055.000000	96.450441
3054.000000	96.456440
3053.000000	96.464405
3052.000000	96.471375
3051.000000	96.475530
3050.000000	96.478861
3049.000000	96.485694
3048.000000	96.498435
3047.000000	96.515004
3046.000000	96.530697
3045.000000	96.542460
3044.000000	96.551036
3043.000000	96.559128
3042.000000	96.568210
3041.000000	96.577546
3040.000000	96.585887
3039.000000	96.593308
3038.000000	96.601285
3037.000000	96.611368
3036.000000	96.623956
3035.000000	96.638067
3034.000000	96.652055
3033.000000	96.664499
3032.000000	96.674449
3031.000000	96.681318
3030.000000	96.685260
3029.000000	96.687788
3028.000000	96.691228
3027.000000	96.696850
3026.000000	96.703778
3025.000000	96.710206
3024.000000	96.715389
3023.000000	96.720042
3022.000000	96.725183
3021.000000	96.731357
3020.000000	96.738697
3019.000000	96.746826
3018.000000	96.754548
3017.000000	96.760309
3016.000000	96.763298
3015.000000	96.763935
3014.000000	96.763277
3013.000000	96.762151
3012.000000	96.760586
3011.000000	96.757617
3010.000000	96.751907
3009.000000	96.743077
3008.000000	96.732417
3007.000000	96.721935
3006.000000	96.712873
3005.000000	96.705287
3004.000000	96.698417
3003.000000	96.690782
3002.000000	96.680430
3001.000000	96.666218
3000.000000	96.648947
2999.000000	96.630607
2998.000000	96.612406
2997.000000	96.594071
2996.000000	96.574774
2995.000000	96.553910
2994.000000	96.530877
2993.000000	96.505117
2992.000000	96.476802
2991.000000	96.446724
2990.000000	96.415102
2989.000000	96.380836
2988.000000	96.342501
2987.000000	96.299891
2986.000000	96.254313
2985.000000	96.207508
2984.000000	96.160247
2983.000000	96.111725
2982.000000	96.060209
2981.000000	96.004318
2980.000000	95.943951
2979.000000	95.880037
2978.000000	95.813811
2977.000000	95.746334
2976.000000	95.677936
2975.000000	95.607652
2974.000000	95.533456
2973.000000	95.453771
2972.000000	95.368726
2971.000000	95.279672
2970.000000	95.188037
2969.000000	95.095067
2968.000000	95.002162
2967.000000	94.910594
2966.000000	94.821111
2965.000000	94.734646
2964.000000	94.653212
2963.000000	94.579624
2962.000000	94.516210
2961.000000	94.464337
2960.000000	94.424773
2959.000000	94.397909
2958.000000	94.384171
2957.000000	94.384446
2956.000000	94.399847
2955.000000	94.429762
2954.000000	94.470445
2953.000000	94.516226
2952.000000	94.561743
2951.000000	94.602815
2950.000000	94.635446
2949.000000	94.655856
2948.000000	94.661382
2947.000000	94.650936
2946.000000	94.624682
2945.000000	94.584163
2944.000000	94.532455
2943.000000	94.472200
2942.000000	94.403368
2941.000000	94.323859
2940.000000	94.233140
2939.000000	94.134104
2938.000000	94.030823
2937.000000	93.925804
2936.000000	93.820084
2935.000000	93.715368
2934.000000	93.614653
2933.000000	93.521069
2932.000000	93.436763
2931.000000	93.362624
2930.000000	93.298391
2929.000000	93.242865
2928.000000	93.194950
2927.000000	93.154937
2926.000000	93.124737
2925.000000	93.106762
2924.000000	93.102232
2923.000000	93.110601
2922.000000	93.130336
2921.000000	93.160494
2920.000000	93.201749
2919.000000	93.255866
2918.000000	93.324470
2917.000000	93.408176
2916.000000	93.506455
2915.000000	93.617457
2914.000000	93.737331
2913.000000	93.860205
2912.000000	93.979637
2911.000000	94.091238
2910.000000	94.194396
2909.000000	94.291642
2908.000000	94.386174
2907.000000	94.479373
2906.000000	94.570472
2905.000000	94.658185
2904.000000	94.742465
2903.000000	94.824644
2902.000000	94.906373
2901.000000	94.988787
2900.000000	95.072229
2899.000000	95.155959
2898.000000	95.237938
2897.000000	95.315514
2896.000000	95.386860
2895.000000	95.451859
2894.000000	95.511809
2893.000000	95.568492
2892.000000	95.623129
2891.000000	95.675562
2890.000000	95.724051
2889.000000	95.766140
2888.000000	95.799917
2887.000000	95.824675
2886.000000	95.840894
2885.000000	95.849860
2884.000000	95.852713
2883.000000	95.849165
2882.000000	95.837387
2881.000000	95.815884
2880.000000	95.785340
2879.000000	95.748063
2878.000000	95.705930
2877.000000	95.659902
2876.000000	95.611451
2875.000000	95.563539
2874.000000	95.520208
2873.000000	95.485653
2872.000000	95.463484
2871.000000	95.455237
2870.000000	95.458582
2869.000000	95.467355
2868.000000	95.474174
2867.000000	95.473482
2866.000000	95.462766
2865.000000	95.441934
2864.000000	95.411782
2863.000000	95.372798
2862.000000	95.325235
2861.000000	95.270792
2860.000000	95.213773
2859.000000	95.159508
2858.000000	95.111359
2857.000000	95.070135
2856.000000	95.036604
2855.000000	95.013144
2854.000000	95.002834
2853.000000	95.008047
2852.000000	95.031286
2851.000000	95.076838
2850.000000	95.149859
2849.000000	95.252906
2848.000000	95.382791
2847.000000	95.530299
2846.000000	95.682945
2845.000000	95.829685
2844.000000	95.964409
2843.000000	96.086092
2842.000000	96.195666
2841.000000	96.292916
2840.000000	96.376697
2839.000000	96.447024
2838.000000	96.506054
2837.000000	96.557042
2836.000000	96.602642
2835.000000	96.643950
2834.000000	96.680665
2833.000000	96.712212
2832.000000	96.739103
2831.000000	96.763218
2830.000000	96.786483
2829.000000	96.809536
2828.000000	96.831654
2827.000000	96.851627
2826.000000	96.868599
2825.000000	96.882574
2824.000000	96.894699
2823.000000	96.906794
2822.000000	96.920139
2821.000000	96.934638
2820.000000	96.949182
2819.000000	96.962633
2818.000000	96.974463
2817.000000	96.984885
2816.000000	96.994714
2815.000000	97.004911
2814.000000	97.016072
2813.000000	97.028393
2812.000000	97.041906
2811.000000	97.056289
2810.000000	97.070575
2809.000000	97.083785
2808.000000	97.096153
2807.000000	97.109124
2806.000000	97.123653
2805.000000	97.138802
2804.000000	97.152284
2803.000000	97.162227
2802.000000	97.168374
2801.000000	97.172159
2800.000000	97.175844
2799.000000	97.181066
2798.000000	97.187756
2797.000000	97.194789
2796.000000	97.201868
2795.000000	97.210156
2794.000000	97.220533
2793.000000	97.231718
2792.000000	97.240900
2791.000000	97.246329
2790.000000	97.249132
2789.000000	97.252570
2788.000000	97.259521
2787.000000	97.270202
2786.000000	97.281916
2785.000000	97.291267
2784.000000	97.297055
2783.000000	97.301091
2782.000000	97.306186
2781.000000	97.313566
2780.000000	97.322306
2779.000000	97.330748
2778.000000	97.337901
2777.000000	97.343594
2776.000000	97.347872
2775.000000	97.350748
2774.000000	97.352739
2773.000000	97.355398
2772.000000	97.360522
2771.000000	97.368193
2770.000000	97.375924
2769.000000	97.380583
2768.000000	97.381428
2767.000000	97.380732
2766.000000	97.381483
2765.000000	97.384930
2764.000000	97.390340
2763.000000	97.396126
2762.000000	97.400794
2761.000000	97.403631
2760.000000	97.405427
2759.000000	97.408338
2758.000000	97.414249
2757.000000	97.422972
2756.000000	97.432170
2755.000000	97.439166
2754.000000	97.442922
2753.000000	97.444517
2752.000000	97.445959
2751.000000	97.448452
2750.000000	97.451690
2749.000000	97.454660
2748.000000	97.456907
2747.000000	97.458947
2746.000000	97.461732
2745.000000	97.465969
2744.000000	97.471733
2743.000000	97.478395
2742.000000	97.485032
2741.000000	97.491070
2740.000000	97.496230
2739.000000	97.499770
2738.000000	97.500592
2737.000000	97.498847
2736.000000	97.496878
2735.000000	97.497545
2734.000000	97.501702
2733.000000	97.508047
2732.000000	97.515100
2731.000000	97.522153
2730.000000	97.528417
2729.000000	97.532791
2728.000000	97.535229
2727.000000	97.537307
2726.000000	97.540643
2725.000000	97.545289
2724.000000	97.550275
2723.000000	97.555027
2722.000000	97.559474
2721.000000	97.563304
2720.000000	97.566159
2719.000000	97.568523
2718.000000	97.571620
2717.000000	97.576177
2716.000000	97.581702
2715.000000	97.587058
2714.000000	97.591334
2713.000000	97.593973
2712.000000	97.594474
2711.000000	97.592631
2710.000000	97.589268
2709.000000	97.586315
2708.000000	97.585631
2707.000000	97.587791
2706.000000	97.592309
2705.000000	97.598646
2704.000000	97.606119
2703.000000	97.612915
2702.000000	97.616679
2701.000000	97.616998
2700.000000	97.616390
2699.000000	97.617753
2698.000000	97.621398
2697.000000	97.625637
2696.000000	97.629555
2695.000000	97.633610
2694.000000	97.637634
2693.000000	97.640084
2692.000000	97.639950
2691.000000	97.638256
2690.000000	97.636869
2689.000000	97.636546
2688.000000	97.636824
2687.000000	97.637189
2686.000000	97.637596
2685.000000	97.638094
2684.000000	97.638554
2683.000000	97.638884
2682.000000	97.639421
2681.000000	97.641058
2680.000000	97.644626
2679.000000	97.649679
2678.000000	97.654147
2677.000000	97.655951
2676.000000	97.655116
2675.000000	97.653742
2674.000000	97.653824
2673.000000	97.655598
2672.000000	97.658021
2671.000000	97.660065
2670.000000	97.661172
2669.000000	97.661006
2668.000000	97.659427
2667.000000	97.656836
2666.000000	97.654325
2665.000000	97.653246
2664.000000	97.654196
2663.000000	97.656256
2662.000000	97.657646
2661.000000	97.657409
2660.000000	97.656059
2659.000000	97.654452
2658.000000	97.652928
2657.000000	97.652259
2656.000000	97.654434
2655.000000	97.660952
2654.000000	97.670496
2653.000000	97.679681
2652.000000	97.686274
2651.000000	97.690771
2650.000000	97.694910
2649.000000	97.699896
2648.000000	97.706226
2647.000000	97.713816
2646.000000	97.721518
2645.000000	97.727352
2644.000000	97.730064
2643.000000	97.730187
2642.000000	97.729496
2641.000000	97.729841
2640.000000	97.732405
2639.000000	97.737288
2638.000000	97.743713
2637.000000	97.751062
2636.000000	97.759374
2635.000000	97.768098
2634.000000	97.775126
2633.000000	97.778714
2632.000000	97.780139
2631.000000	97.782713
2630.000000	97.787863
2629.000000	97.794022
2628.000000	97.799948
2627.000000	97.807154
2626.000000	97.817502
2625.000000	97.829325
2624.000000	97.837661
2623.000000	97.838584
2622.000000	97.832930
2621.000000	97.825923
2620.000000	97.823196
2619.000000	97.826768
2618.000000	97.834597
2617.000000	97.843800
2616.000000	97.853265
2615.000000	97.862516
2614.000000	97.869667
2613.000000	97.872641
2612.000000	97.872053
2611.000000	97.870627
2610.000000	97.869573
2609.000000	97.867674
2608.000000	97.864361
2607.000000	97.861708
2606.000000	97.862328
2605.000000	97.866702
2604.000000	97.873368
2603.000000	97.880405
2602.000000	97.885950
2601.000000	97.888418
2600.000000	97.887414
2599.000000	97.884200
2598.000000	97.881346
2597.000000	97.882466
2596.000000	97.891225
2595.000000	97.908227
2594.000000	97.928442
2593.000000	97.943759
2592.000000	97.949597
2591.000000	97.948357
2590.000000	97.946026
2589.000000	97.946433
2588.000000	97.948951
2587.000000	97.950602
2586.000000	97.949732
2585.000000	97.947943
2584.000000	97.948277
2583.000000	97.950993
2582.000000	97.952384
2581.000000	97.949243
2580.000000	97.943395
2579.000000	97.939738
2578.000000	97.940592
2577.000000	97.944639
2576.000000	97.950596
2575.000000	97.958675
2574.000000	97.967896
2573.000000	97.975050
2572.000000	97.977653
2571.000000	97.976215
2570.000000	97.973233
2569.000000	97.971969
2568.000000	97.976117
2567.000000	97.987479
2566.000000	98.002673
2565.000000	98.014398
2564.000000	98.017612
2563.000000	98.013413
2562.000000	98.006490
2561.000000	98.000733
2560.000000	97.997633
2559.000000	97.996765
2558.000000	97.996659
2557.000000	97.996360
2556.000000	97.996459
2555.000000	97.997510
2554.000000	97.998384
2553.000000	97.998495
2552.000000	98.000601
2551.000000	98.007803
2550.000000	98.017640
2549.000000	98.022935
2548.000000	98.019448
2547.000000	98.009584
2546.000000	97.998016
2545.000000	97.987544
2544.000000	97.980565
2543.000000	97.980157
2542.000000	97.986387
2541.000000	97.994000
2540.000000	97.996847
2539.000000	97.993671
2538.000000	97.988011
2537.000000	97.984198
2536.000000	97.984802
2535.000000	97.989899
2534.000000	97.996702
2533.000000	98.001044
2532.000000	98.000402
2531.000000	97.994652
2530.000000	97.983967
2529.000000	97.968831
2528.000000	97.952913
2527.000000	97.942545
2526.000000	97.940956
2525.000000	97.944847
2524.000000	97.948394
2523.000000	97.948741
2522.000000	97.946513
2521.000000	97.943622
2520.000000	97.942803
2519.000000	97.946850
2518.000000	97.955230
2517.000000	97.962664
2516.000000	97.963924
2515.000000	97.959546
2514.000000	97.954933
2513.000000	97.954349
2512.000000	97.957339
2511.000000	97.960589
2510.000000	97.961765
2509.000000	97.961746
2508.000000	97.963850
2507.000000	97.970482
2506.000000	97.980371
2505.000000	97.990027
2504.000000	97.997998
2503.000000	98.006169
2502.000000	98.016446
2501.000000	98.027884
2500.000000	98.037700
2499.000000	98.043578
2498.000000	98.044864
2497.000000	98.043694
2496.000000	98.044987
2495.000000	98.052281
2494.000000	98.062403
2493.000000	98.067710
2492.000000	98.065790
2491.000000	98.063851
2490.000000	98.070436
2489.000000	98.084710
2488.000000	98.097776
2487.000000	98.103655
2486.000000	98.105155
2485.000000	98.108709
2484.000000	98.116492
2483.000000	98.125508
2482.000000	98.132699
2481.000000	98.138585
2480.000000	98.145536
2479.000000	98.153382
2478.000000	98.158098
2477.000000	98.155779
2476.000000	98.147313
2475.000000	98.138022
2474.000000	98.132574
2473.000000	98.131431
2472.000000	98.132524
2471.000000	98.135110
2470.000000	98.140917
2469.000000	98.151583
2468.000000	98.165265
2467.000000	98.176155
2466.000000	98.178482
2465.000000	98.171957
2464.000000	98.162561
2463.000000	98.157009
2462.000000	98.157208
2461.000000	98.160842
2460.000000	98.165529
2459.000000	98.170113
2458.000000	98.173230
2457.000000	98.173714
2456.000000	98.172348
2455.000000	98.170967
2454.000000	98.170111
2453.000000	98.169860
2452.000000	98.172049
2451.000000	98.178450
2450.000000	98.186873
2449.000000	98.192525
2448.000000	98.193678
2447.000000	98.192928
2446.000000	98.192615
2445.000000	98.192716
2444.000000	98.194024
2443.000000	98.199134
2442.000000	98.208098
2441.000000	98.216252
2440.000000	98.218927
2439.000000	98.216087
2438.000000	98.210371
2437.000000	98.203257
2436.000000	98.195760
2435.000000	98.190869
2434.000000	98.191974
2433.000000	98.199380
2432.000000	98.210315
2431.000000	98.221886
2430.000000	98.232330
2429.000000	98.239937
2428.000000	98.242895
2427.000000	98.240860
2426.000000	98.236078
2425.000000	98.232359
2424.000000	98.232306
2423.000000	98.234848
2422.000000	98.235989
2421.000000	98.232986
2420.000000	98.227334
2419.000000	98.222667
2418.000000	98.220624
2417.000000	98.220452
2416.000000	98.221756
2415.000000	98.225024
2414.000000	98.229528
2413.000000	98.233219
2412.000000	98.235206
2411.000000	98.236311
2410.000000	98.237029
2409.000000	98.237224
2408.000000	98.238169
2407.000000	98.242148
2406.000000	98.248788
2405.000000	98.253835
2404.000000	98.253186
2403.000000	98.247153
2402.000000	98.239962
2401.000000	98.235991
2400.000000	98.236869
2399.000000	98.240887
2398.000000	98.244656
2397.000000	98.245920
2396.000000	98.244889
2395.000000	98.242527
2394.000000	98.238785
2393.000000	98.233931
2392.000000	98.230413
2391.000000	98.231058
2390.000000	98.235796
2389.000000	98.242130
2388.000000	98.248488
2387.000000	98.254623
2386.000000	98.259495
2385.000000	98.261441
2384.000000	98.260914
2383.000000	98.261052
2382.000000	98.264369
2381.000000	98.270963
2380.000000	98.279282
2379.000000	98.286460
2378.000000	98.288373
2377.000000	98.282400
2376.000000	98.271425
2375.000000	98.262180
2374.000000	98.258853
2373.000000	98.260566
2372.000000	98.265806
2371.000000	98.275309
2370.000000	98.288690
2369.000000	98.301451
2368.000000	98.307024
2367.000000	98.301866
2366.000000	98.287862
2365.000000	98.270984
2364.000000	98.257184
2363.000000	98.247527
2362.000000	98.239192
2361.000000	98.231651
2360.000000	98.227924
2359.000000	98.230207
2358.000000	98.237403
2357.000000	98.247344
2356.000000	98.257457
2355.000000	98.262527
2354.000000	98.260529
2353.000000	98.254497
2352.000000	98.248849
2351.000000	98.245359
2350.000000	98.243860
2349.000000	98.242638
2348.000000	98.240100
2347.000000	98.236681
2346.000000	98.232441
2345.000000	98.225746
2344.000000	98.218646
2343.000000	98.216087
2342.000000	98.219884
2341.000000	98.227735
2340.000000	98.235778
2339.000000	98.239937
2338.000000	98.236935
2337.000000	98.226931
2336.000000	98.214213
2335.000000	98.205415
2334.000000	98.204622
2333.000000	98.211169
2332.000000	98.218988
2331.000000	98.222982
2330.000000	98.221546
2329.000000	98.216799
2328.000000	98.207617
2327.000000	98.189824
2326.000000	98.160490
2325.000000	98.125737
2324.000000	98.100175
2323.000000	98.096829
2322.000000	98.114260
2321.000000	98.138170
2320.000000	98.155314
2319.000000	98.164102
2318.000000	98.168674
2317.000000	98.172614
2316.000000	98.177480
2315.000000	98.185437
2314.000000	98.195428
2313.000000	98.203818
2312.000000	98.208323
2311.000000	98.212289
2310.000000	98.219336
2309.000000	98.229048
2308.000000	98.237940
2307.000000	98.244197
2306.000000	98.247171
2305.000000	98.246386
2304.000000	98.242396
2303.000000	98.238019
2302.000000	98.235139
2301.000000	98.233044
2300.000000	98.230388
2299.000000	98.228629
2298.000000	98.229809
2297.000000	98.234035
2296.000000	98.238426
2295.000000	98.239679
2294.000000	98.235687
2293.000000	98.227734
2292.000000	98.220174
2291.000000	98.216898
2290.000000	98.217223
2289.000000	98.217522
2288.000000	98.216270
2287.000000	98.214689
2286.000000	98.213155
2285.000000	98.211022
2284.000000	98.210692
2283.000000	98.216741
2282.000000	98.229716
2281.000000	98.244188
2280.000000	98.254464
2279.000000	98.258246
2278.000000	98.254856
2277.000000	98.245889
2276.000000	98.239127
2275.000000	98.245089
2274.000000	98.265814
2273.000000	98.291345
2272.000000	98.310044
2271.000000	98.318554
2270.000000	98.320070
2269.000000	98.318920
2268.000000	98.320085
2267.000000	98.328182
2266.000000	98.341895
2265.000000	98.352686
2264.000000	98.352764
2263.000000	98.341909
2262.000000	98.325092
2261.000000	98.307309
2260.000000	98.292292
2259.000000	98.281904
2258.000000	98.275353
2257.000000	98.272430
2256.000000	98.277231
2255.000000	98.293214
2254.000000	98.314689
2253.000000	98.330569
2252.000000	98.337606
2251.000000	98.342498
2250.000000	98.349636
2249.000000	98.355445
2248.000000	98.357068
2247.000000	98.357986
2246.000000	98.360586
2245.000000	98.361067
2244.000000	98.356476
2243.000000	98.350497
2242.000000	98.347897
2241.000000	98.348898
2240.000000	98.352272
2239.000000	98.358152
2238.000000	98.365065
2237.000000	98.370899
2236.000000	98.379299
2235.000000	98.397318
2234.000000	98.423119
2233.000000	98.443893
2232.000000	98.449746
2231.000000	98.442195
2230.000000	98.425918
2229.000000	98.402502
2228.000000	98.377922
2227.000000	98.365772
2226.000000	98.374477
2225.000000	98.397324
2224.000000	98.422119
2223.000000	98.444454
2222.000000	98.464554
2221.000000	98.477581
2220.000000	98.476820
2219.000000	98.464473
2218.000000	98.452181
2217.000000	98.450853
2216.000000	98.461812
2215.000000	98.475943
2214.000000	98.481465
2213.000000	98.476152
2212.000000	98.471573
2211.000000	98.479478
2210.000000	98.494869
2209.000000	98.500719
2208.000000	98.490055
2207.000000	98.474475
2206.000000	98.467953
2205.000000	98.470185
2204.000000	98.469272
2203.000000	98.455349
2202.000000	98.430561
2201.000000	98.410462
2200.000000	98.413259
2199.000000	98.439900
2198.000000	98.468241
2197.000000	98.477250
2196.000000	98.474967
2195.000000	98.488745
2194.000000	98.528322
2193.000000	98.572648
2192.000000	98.595328
2191.000000	98.590227
2190.000000	98.568804
2189.000000	98.547831
2188.000000	98.542893
2187.000000	98.558710
2186.000000	98.580586
2185.000000	98.588650
2184.000000	98.585764
2183.000000	98.596697
2182.000000	98.631569
2181.000000	98.665136
2180.000000	98.663707
2179.000000	98.622530
2178.000000	98.567986
2177.000000	98.533182
2176.000000	98.535518
2175.000000	98.566104
2174.000000	98.595312
2173.000000	98.596223
2172.000000	98.566953
2171.000000	98.527085
2170.000000	98.496896
2169.000000	98.486525
2168.000000	98.496652
2167.000000	98.517772
2166.000000	98.534547
2165.000000	98.543458
2164.000000	98.559576
2163.000000	98.590435
2162.000000	98.615902
2161.000000	98.619654
2160.000000	98.629910
2159.000000	98.689424
2158.000000	98.781745
2157.000000	98.839800
2156.000000	98.832207
2155.000000	98.787808
2154.000000	98.743500
2153.000000	98.714831
2152.000000	98.708830
2151.000000	98.726962
2150.000000	98.753195
2149.000000	98.763818
2148.000000	98.754697
2147.000000	98.740102
2146.000000	98.725941
2145.000000	98.705038
2144.000000	98.677944
2143.000000	98.654414
2142.000000	98.633722
2141.000000	98.605871
2140.000000	98.573929
2139.000000	98.554646
2138.000000	98.553491
2137.000000	98.558115
2136.000000	98.559829
2135.000000	98.564419
2134.000000	98.576215
2133.000000	98.588472
2132.000000	98.595025
2131.000000	98.597547
2130.000000	98.596899
2129.000000	98.589610
2128.000000	98.576400
2127.000000	98.563790
2126.000000	98.554491
2125.000000	98.544419
2124.000000	98.530432
2123.000000	98.512649
2122.000000	98.489971
2121.000000	98.463250
2120.000000	98.442178
2119.000000	98.437249
2118.000000	98.443800
2117.000000	98.444583
2116.000000	98.429720
2115.000000	98.404428
2114.000000	98.376722
2113.000000	98.350303
2112.000000	98.331309
2111.000000	98.328409
2110.000000	98.340042
2109.000000	98.352198
2108.000000	98.354592
2107.000000	98.351032
2106.000000	98.349581
2105.000000	98.352379
2104.000000	98.359621
2103.000000	98.373621
2102.000000	98.392887
2101.000000	98.409012
2100.000000	98.414726
2099.000000	98.410354
2098.000000	98.402414
2097.000000	98.401458
2096.000000	98.417619
2095.000000	98.447302
2094.000000	98.467226
2093.000000	98.456216
2092.000000	98.422751
2091.000000	98.395880
2090.000000	98.389710
2089.000000	98.391753
2088.000000	98.387826
2087.000000	98.382849
2086.000000	98.389603
2085.000000	98.410674
2084.000000	98.438959
2083.000000	98.466044
2082.000000	98.483911
2081.000000	98.487564
2080.000000	98.481746
2079.000000	98.476486
2078.000000	98.473429
2077.000000	98.466270
2076.000000	98.455379
2075.000000	98.449211
2074.000000	98.448856
2073.000000	98.447045
2072.000000	98.445052
2071.000000	98.453394
2070.000000	98.471637
2069.000000	98.484040
2068.000000	98.483028
2067.000000	98.480618
2066.000000	98.488645
2065.000000	98.502187
2064.000000	98.510509
2063.000000	98.511396
2062.000000	98.507169
2061.000000	98.500615
2060.000000	98.500037
2059.000000	98.513106
2058.000000	98.531993
2057.000000	98.541454
2056.000000	98.543723
2055.000000	98.554810
2054.000000	98.571617
2053.000000	98.568930
2052.000000	98.538800
2051.000000	98.506755
2050.000000	98.496474
2049.000000	98.499496
2048.000000	98.497173
2047.000000	98.494797
2046.000000	98.509707
2045.000000	98.540995
2044.000000	98.573333
2043.000000	98.595693
2042.000000	98.600130
2041.000000	98.582068
2040.000000	98.557743
2039.000000	98.557651
2038.000000	98.586901
2037.000000	98.616527
2036.000000	98.629540
2035.000000	98.648388
2034.000000	98.691823
2033.000000	98.735324
2032.000000	98.747793
2031.000000	98.740713
2030.000000	98.743751
2029.000000	98.756289
2028.000000	98.756026
2027.000000	98.739751
2026.000000	98.725354
2025.000000	98.724971
2024.000000	98.736087
2023.000000	98.747173
2022.000000	98.741252
2021.000000	98.709566
2020.000000	98.675002
2019.000000	98.680502
2018.000000	98.738549
2017.000000	98.806082
2016.000000	98.827992
2015.000000	98.794159
2014.000000	98.735063
2013.000000	98.684154
2012.000000	98.658650
2011.000000	98.657812
2010.000000	98.668997
2009.000000	98.684273
2008.000000	98.711161
2007.000000	98.753783
2006.000000	98.790052
2005.000000	98.794165
2004.000000	98.775732
2003.000000	98.764437
2002.000000	98.763761
2001.000000	98.748460
2000.000000	98.707719
1999.000000	98.658044
1998.000000	98.613175
1997.000000	98.577629
1996.000000	98.568483
1995.000000	98.606984
1994.000000	98.677571
1993.000000	98.725544
1992.000000	98.715962
1991.000000	98.675083
1990.000000	98.648220
1989.000000	98.644899
1988.000000	98.647049
1987.000000	98.642686
1986.000000	98.631378
1985.000000	98.615720
1984.000000	98.601922
1983.000000	98.592130
1982.000000	98.571549
1981.000000	98.525169
1980.000000	98.477362
1979.000000	98.483287
1978.000000	98.563257
1977.000000	98.671667
1976.000000	98.749992
1975.000000	98.782960
1974.000000	98.781685
1973.000000	98.757785
1972.000000	98.732652
1971.000000	98.729548
1970.000000	98.739483
1969.000000	98.728427
1968.000000	98.691330
1967.000000	98.666971
1966.000000	98.681922
1965.000000	98.714592
1964.000000	98.733170
1963.000000	98.735101
1962.000000	98.734879
1961.000000	98.742187
1960.000000	98.763051
1959.000000	98.796844
1958.000000	98.823720
1957.000000	98.818491
1956.000000	98.783632
1955.000000	98.746020
1954.000000	98.718759
1953.000000	98.694454
1952.000000	98.675103
1951.000000	98.678453
1950.000000	98.704872
1949.000000	98.724465
1948.000000	98.717020
1947.000000	98.698859
1946.000000	98.692687
1945.000000	98.693868
1944.000000	98.684501
1943.000000	98.663939
1942.000000	98.646519
1941.000000	98.641580
1940.000000	98.650792
1939.000000	98.671226
1938.000000	98.690862
1937.000000	98.693519
1936.000000	98.678039
1935.000000	98.661047
1934.000000	98.653168
1933.000000	98.647893
1932.000000	98.637490
1931.000000	98.627962
1930.000000	98.626510
1929.000000	98.624865
1928.000000	98.617001
1927.000000	98.612150
1926.000000	98.623248
1925.000000	98.647170
1924.000000	98.669166
1923.000000	98.686583
1922.000000	98.706081
1921.000000	98.726185
1920.000000	98.734191
1919.000000	98.719789
1918.000000	98.687252
1917.000000	98.652322
1916.000000	98.630034
1915.000000	98.624323
1914.000000	98.628526
1913.000000	98.637094
1912.000000	98.650096
1911.000000	98.667981
1910.000000	98.683010
1909.000000	98.682739
1908.000000	98.668481
1907.000000	98.652096
1906.000000	98.642168
1905.000000	98.638959
1904.000000	98.641158
1903.000000	98.652472
1902.000000	98.667705
1901.000000	98.671132
1900.000000	98.658485
1899.000000	98.643956
1898.000000	98.643250
1897.000000	98.657541
1896.000000	98.676395
1895.000000	98.692680
1894.000000	98.703065
1893.000000	98.703817
1892.000000	98.693237
1891.000000	98.675507
1890.000000	98.659294
1889.000000	98.652462
1888.000000	98.659180
1887.000000	98.677387
1886.000000	98.696043
1885.000000	98.704265
1884.000000	98.703600
1883.000000	98.704294
1882.000000	98.708135
1881.000000	98.706297
1880.000000	98.697589
1879.000000	98.690549
1878.000000	98.690023
1877.000000	98.693933
1876.000000	98.698964
1875.000000	98.705888
1874.000000	98.717298
1873.000000	98.732786
1872.000000	98.750450
1871.000000	98.768296
1870.000000	98.783402
1869.000000	98.793543
1868.000000	98.798646
1867.000000	98.797828
1866.000000	98.783794
1865.000000	98.751427
1864.000000	98.712201
1863.000000	98.686396
1862.000000	98.680091
1861.000000	98.682398
1860.000000	98.685886
1859.000000	98.693599
1858.000000	98.704540
1857.000000	98.710485
1856.000000	98.711072
1855.000000	98.714846
1854.000000	98.723327
1853.000000	98.724885
1852.000000	98.718332
1851.000000	98.713610
1850.000000	98.714105
1849.000000	98.722232
1848.000000	98.745213
1847.000000	98.784258
1846.000000	98.816366
1845.000000	98.811786
1844.000000	98.774954
1843.000000	98.747218
1842.000000	98.747525
1841.000000	98.751035
1840.000000	98.738452
1839.000000	98.719178
1838.000000	98.710060
1837.000000	98.708973
1836.000000	98.706457
1835.000000	98.711644
1834.000000	98.736473
1833.000000	98.770860
1832.000000	98.793464
1831.000000	98.793583
1830.000000	98.781819
1829.000000	98.775506
1828.000000	98.776800
1827.000000	98.774868
1826.000000	98.760282
1825.000000	98.739886
1824.000000	98.727534
1823.000000	98.726495
1822.000000	98.727148
1821.000000	98.722503
1820.000000	98.718215
1819.000000	98.719225
1818.000000	98.721669
1817.000000	98.718823
1816.000000	98.713706
1815.000000	98.719155
1814.000000	98.733909
1813.000000	98.743331
1812.000000	98.736569
1811.000000	98.718138
1810.000000	98.701842
1809.000000	98.688763
1808.000000	98.672449
1807.000000	98.654294
1806.000000	98.639576
1805.000000	98.628201
1804.000000	98.615702
1803.000000	98.602028
1802.000000	98.584737
1801.000000	98.562325
1800.000000	98.538555
1799.000000	98.519393
1798.000000	98.509813
1797.000000	98.509779
1796.000000	98.520826
1795.000000	98.542872
1794.000000	98.563886
1793.000000	98.572912
1792.000000	98.575669
1791.000000	98.586729
1790.000000	98.610253
1789.000000	98.634403
1788.000000	98.649333
1787.000000	98.656975
1786.000000	98.663210
1785.000000	98.669733
1784.000000	98.678796
1783.000000	98.696740
1782.000000	98.711897
1781.000000	98.712211
1780.000000	98.704638
1779.000000	98.702015
1778.000000	98.709944
1777.000000	98.723846
1776.000000	98.750909
1775.000000	98.794274
1774.000000	98.829696
1773.000000	98.830215
1772.000000	98.806157
1771.000000	98.785844
1770.000000	98.765097
1769.000000	98.714048
1768.000000	98.628996
1767.000000	98.555951
1766.000000	98.530106
1765.000000	98.528097
1764.000000	98.500205
1763.000000	98.424408
1762.000000	98.315707
1761.000000	98.205016
1760.000000	98.103204
1759.000000	97.988876
1758.000000	97.820751
1757.000000	97.574352
1756.000000	97.297269
1755.000000	97.059310
1754.000000	96.856535
1753.000000	96.620512
1752.000000	96.304552
1751.000000	95.937181
1750.000000	95.586217
1749.000000	95.266511
1748.000000	94.964942
1747.000000	94.702168
1746.000000	94.486319
1745.000000	94.298095
1744.000000	94.129116
1743.000000	94.001544
1742.000000	93.929356
1741.000000	93.888000
1740.000000	93.861347
1739.000000	93.885872
1738.000000	93.988255
1737.000000	94.131545
1736.000000	94.269642
1735.000000	94.415360
1734.000000	94.625604
1733.000000	94.884644
1732.000000	95.135862
1731.000000	95.365428
1730.000000	95.585666
1729.000000	95.806324
1728.000000	96.032055
1727.000000	96.262735
1726.000000	96.486140
1725.000000	96.695615
1724.000000	96.891396
1723.000000	97.079077
1722.000000	97.262228
1721.000000	97.429271
1720.000000	97.571455
1719.000000	97.698994
1718.000000	97.834335
1717.000000	97.960473
1716.000000	98.035050
1715.000000	98.057249
1714.000000	98.046282
1713.000000	98.016792
1712.000000	97.983181
1711.000000	97.957825
1710.000000	97.940811
1709.000000	97.925165
1708.000000	97.908841
1707.000000	97.881172
1706.000000	97.830653
1705.000000	97.772946
1704.000000	97.747094
1703.000000	97.750296
1702.000000	97.706090
1701.000000	97.538221
1700.000000	97.324734
1699.000000	97.242602
1698.000000	97.251428
1697.000000	97.170099
1696.000000	96.933439
1695.000000	96.666519
1694.000000	96.503357
1693.000000	96.411356
1692.000000	96.309915
1691.000000	96.184444
1690.000000	96.059362
1689.000000	95.956927
1688.000000	95.895914
1687.000000	95.865702
1686.000000	95.811539
1685.000000	95.662455
1684.000000	95.432238
1683.000000	95.242113
1682.000000	95.113572
1681.000000	94.973213
1680.000000	94.801586
1679.000000	94.647431
1678.000000	94.529109
1677.000000	94.398583
1676.000000	94.209840
1675.000000	94.006058
1674.000000	93.866065
1673.000000	93.784792
1672.000000	93.692613
1671.000000	93.546591
1670.000000	93.350450
1669.000000	93.127906
1668.000000	92.920859
1667.000000	92.759373
1666.000000	92.629836
1665.000000	92.492543
1664.000000	92.316638
1663.000000	92.117912
1662.000000	91.934478
1661.000000	91.773876
1660.000000	91.623302
1659.000000	91.479403
1658.000000	91.359415
1657.000000	91.281269
1656.000000	91.236736
1655.000000	91.173159
1654.000000	91.030837
1653.000000	90.820699
1652.000000	90.663942
1651.000000	90.624791
1650.000000	90.623043
1649.000000	90.580187
1648.000000	90.497108
1647.000000	90.410074
1646.000000	90.350355
1645.000000	90.308309
1644.000000	90.274374
1643.000000	90.250381
1642.000000	90.235967
1641.000000	90.231108
1640.000000	90.246517
1639.000000	90.286934
1638.000000	90.339868
1637.000000	90.375754
1636.000000	90.383819
1635.000000	90.375343
1634.000000	90.370665
1633.000000	90.376859
1632.000000	90.380438
1631.000000	90.389845
1630.000000	90.422075
1629.000000	90.482863
1628.000000	90.567542
1627.000000	90.670405
1626.000000	90.780358
1625.000000	90.888399
1624.000000	91.000903
1623.000000	91.133366
1622.000000	91.278673
1621.000000	91.416832
1620.000000	91.544963
1619.000000	91.668368
1618.000000	91.801792
1617.000000	91.962769
1616.000000	92.141490
1615.000000	92.301487
1614.000000	92.426170
1613.000000	92.525386
1612.000000	92.623757
1611.000000	92.743741
1610.000000	92.880362
1609.000000	93.013075
1608.000000	93.134191
1607.000000	93.250101
1606.000000	93.358725
1605.000000	93.455914
1604.000000	93.548256
1603.000000	93.637966
1602.000000	93.718998
1601.000000	93.786850
1600.000000	93.845863
1599.000000	93.901268
1598.000000	93.952402
1597.000000	93.999996
1596.000000	94.047899
1595.000000	94.095158
1594.000000	94.133314
1593.000000	94.157823
1592.000000	94.174334
1591.000000	94.188176
1590.000000	94.196625
1589.000000	94.196636
1588.000000	94.191136
1587.000000	94.180994
1586.000000	94.162471
1585.000000	94.132927
1584.000000	94.102451
1583.000000	94.074452
1582.000000	94.040057
1581.000000	94.004384
1580.000000	93.987529
1579.000000	93.989935
1578.000000	93.981221
1577.000000	93.933836
1576.000000	93.855934
1575.000000	93.785425
1574.000000	93.737504
1573.000000	93.697146
1572.000000	93.645361
1571.000000	93.570646
1570.000000	93.475733
1569.000000	93.377687
1568.000000	93.298941
1567.000000	93.229842
1566.000000	93.140095
1565.000000	93.027045
1564.000000	92.934114
1563.000000	92.895698
1562.000000	92.890127
1561.000000	92.859854
1560.000000	92.754342
1559.000000	92.588260
1558.000000	92.416263
1557.000000	92.272848
1556.000000	92.143476
1555.000000	91.986333
1554.000000	91.813088
1553.000000	91.664415
1552.000000	91.551780
1551.000000	91.441203
1550.000000	91.318845
1549.000000	91.201836
1548.000000	91.110079
1547.000000	91.037985
1546.000000	90.968886
1545.000000	90.910419
1544.000000	90.884747
1543.000000	90.888446
1542.000000	90.893511
1541.000000	90.872643
1540.000000	90.815858
1539.000000	90.734417
1538.000000	90.666685
1537.000000	90.634602
1536.000000	90.614040
1535.000000	90.595691
1534.000000	90.587000
1533.000000	90.596887
1532.000000	90.613924
1531.000000	90.626745
1530.000000	90.637992
1529.000000	90.652538
1528.000000	90.678106
1527.000000	90.720970
1526.000000	90.775250
1525.000000	90.832911
1524.000000	90.888682
1523.000000	90.931538
1522.000000	90.954482
1521.000000	90.959733
1520.000000	90.962421
1519.000000	90.971680
1518.000000	90.968896
1517.000000	90.947646
1516.000000	90.928820
1515.000000	90.933814
1514.000000	90.955275
1513.000000	90.980326
1512.000000	91.020765
1511.000000	91.101843
1510.000000	91.222061
1509.000000	91.349781
1508.000000	91.461037
1507.000000	91.557977
1506.000000	91.603936
1505.000000	91.595322
1504.000000	91.596047
1503.000000	91.608565
1502.000000	91.623385
1501.000000	91.642251
1500.000000	91.673576
1499.000000	91.721544
1498.000000	91.772353
1497.000000	91.802499
1496.000000	91.807134
1495.000000	91.818037
1494.000000	91.850913
1493.000000	91.884354
1492.000000	91.900438
1491.000000	91.909261
1490.000000	91.924938
1489.000000	91.928190
1488.000000	91.895273
1487.000000	91.837564
1486.000000	91.773683
1485.000000	91.701033
1484.000000	91.622691
1483.000000	91.540610
1482.000000	91.449087
1481.000000	91.346837
1480.000000	91.243115
1479.000000	91.144515
1478.000000	91.039006
1477.000000	90.918914
1476.000000	90.797890
1475.000000	90.689665
1474.000000	90.555418
1473.000000	90.336496
1472.000000	90.052239
1471.000000	89.792382
1470.000000	89.591442
1469.000000	89.421983
1468.000000	89.264848
1467.000000	89.120812
1466.000000	88.978994
1465.000000	88.823396
1464.000000	88.674199
1463.000000	88.562931
1462.000000	88.489672
1461.000000	88.433082
1460.000000	88.382435
1459.000000	88.321814
1458.000000	88.199748
1457.000000	87.974019
1456.000000	87.733531
1455.000000	87.586269
1454.000000	87.495856
1453.000000	87.400651
1452.000000	87.303498
1451.000000	87.231496
1450.000000	87.182455
1449.000000	87.127377
1448.000000	87.057200
1447.000000	86.996391
1446.000000	86.950617
1445.000000	86.906011
1444.000000	86.857499
1443.000000	86.805775
1442.000000	86.754956
1441.000000	86.710395
1440.000000	86.678855
1439.000000	86.647751
1438.000000	86.585364
1437.000000	86.474609
1436.000000	86.361647
1435.000000	86.306847
1434.000000	86.295890
1433.000000	86.283070
1432.000000	86.254372
1431.000000	86.218002
1430.000000	86.169166
1429.000000	86.094851
1428.000000	86.005954
1427.000000	85.931195
1426.000000	85.868886
1425.000000	85.805223
1424.000000	85.755090
1423.000000	85.740390
1422.000000	85.748701
1421.000000	85.741311
1420.000000	85.701433
1419.000000	85.652499
1418.000000	85.619467
1417.000000	85.598589
1416.000000	85.585295
1415.000000	85.587171
1414.000000	85.608072
1413.000000	85.644882
1412.000000	85.696153
1411.000000	85.762113
1410.000000	85.839625
1409.000000	85.925462
1408.000000	86.019977
1407.000000	86.125979
1406.000000	86.235377
1405.000000	86.337205
1404.000000	86.433194
1403.000000	86.526140
1402.000000	86.609102
1401.000000	86.673503
1400.000000	86.729147
1399.000000	86.797053
1398.000000	86.878848
1397.000000	86.956586
1396.000000	87.020348
1395.000000	87.077439
1394.000000	87.134883
1393.000000	87.200241
1392.000000	87.282076
1391.000000	87.378273
1390.000000	87.478197
1389.000000	87.575124
1388.000000	87.673463
1387.000000	87.779320
1386.000000	87.885525
1385.000000	87.983028
1384.000000	88.076111
1383.000000	88.173227
1382.000000	88.278838
1381.000000	88.391716
1380.000000	88.512005
1379.000000	88.642874
1378.000000	88.784456
1377.000000	88.935670
1376.000000	89.098544
1375.000000	89.271389
1374.000000	89.436028
1373.000000	89.574250
1372.000000	89.691321
1371.000000	89.803452
1370.000000	89.914998
1369.000000	90.025372
1368.000000	90.138220
1367.000000	90.254285
1366.000000	90.368563
1365.000000	90.476932
1364.000000	90.581028
1363.000000	90.680745
1362.000000	90.767679
1361.000000	90.836848
1360.000000	90.895142
1359.000000	90.949625
1358.000000	91.000529
1357.000000	91.048087
1356.000000	91.095281
1355.000000	91.142436
1354.000000	91.186155
1353.000000	91.226336
1352.000000	91.265951
1351.000000	91.306849
1350.000000	91.343834
1349.000000	91.371592
1348.000000	91.389833
1347.000000	91.397699
1346.000000	91.392468
1345.000000	91.375465
1344.000000	91.354928
1343.000000	91.337033
1342.000000	91.318772
1341.000000	91.292248
1340.000000	91.252985
1339.000000	91.202082
1338.000000	91.145236
1337.000000	91.092665
1336.000000	91.056189
1335.000000	91.043603
1334.000000	91.055605
1333.000000	91.088615
1332.000000	91.138454
1331.000000	91.200388
1330.000000	91.268160
1329.000000	91.337087
1328.000000	91.406284
1327.000000	91.476205
1326.000000	91.544978
1325.000000	91.610183
1324.000000	91.670870
1323.000000	91.726100
1322.000000	91.775530
1321.000000	91.821275
1320.000000	91.866661
1319.000000	91.912604
1318.000000	91.958644
1317.000000	92.007223
1316.000000	92.062520
1315.000000	92.124519
1314.000000	92.188307
1313.000000	92.249960
1312.000000	92.309444
1311.000000	92.367753
1310.000000	92.424764
1309.000000	92.481361
1308.000000	92.539579
1307.000000	92.600352
1306.000000	92.662410
1305.000000	92.724884
1304.000000	92.787960
1303.000000	92.850947
1302.000000	92.913093
1301.000000	92.975635
1300.000000	93.040476
1299.000000	93.106683
1298.000000	93.171124
1297.000000	93.231254
1296.000000	93.285066
1295.000000	93.329405
1294.000000	93.362331
1293.000000	93.386287
1292.000000	93.405601
1291.000000	93.421619
1290.000000	93.432054
1289.000000	93.434731
1288.000000	93.429893
1287.000000	93.420273
1286.000000	93.410764
1285.000000	93.405842
1284.000000	93.405512
1283.000000	93.405586
1282.000000	93.403717
1281.000000	93.402309
1280.000000	93.402768
1279.000000	93.399837
1278.000000	93.386016
1277.000000	93.359464
1276.000000	93.323726
1275.000000	93.280458
1274.000000	93.227089
1273.000000	93.161256
1272.000000	93.083238
1271.000000	92.994180
1270.000000	92.894067
1269.000000	92.782939
1268.000000	92.662256
1267.000000	92.533568
1266.000000	92.397820
1265.000000	92.256288
1264.000000	92.111728
1263.000000	91.968021
1262.000000	91.828826
1261.000000	91.696436
1260.000000	91.571252
1259.000000	91.451770
1258.000000	91.336924
1257.000000	91.230698
1256.000000	91.142153
1255.000000	91.078806
1254.000000	91.039509
1253.000000	91.014697
1252.000000	90.993343
1251.000000	90.967388
1250.000000	90.932483
1249.000000	90.888595
1248.000000	90.839811
1247.000000	90.790911
1246.000000	90.743575
1245.000000	90.697238
1244.000000	90.652744
1243.000000	90.613278
1242.000000	90.582412
1241.000000	90.562938
1240.000000	90.556779
1239.000000	90.564243
1238.000000	90.583685
1237.000000	90.614938
1236.000000	90.660979
1235.000000	90.724107
1234.000000	90.802516
1233.000000	90.892082
1232.000000	90.991032
1231.000000	91.100296
1230.000000	91.221843
1229.000000	91.359291
1228.000000	91.515942
1227.000000	91.690236
1226.000000	91.874702
1225.000000	92.061393
1224.000000	92.246121
1223.000000	92.425794
1222.000000	92.595878
1221.000000	92.752427
1220.000000	92.893965
1219.000000	93.019766
1218.000000	93.130104
1217.000000	93.227834
1216.000000	93.315840
1215.000000	93.392866
1214.000000	93.454688
1213.000000	93.501212
1212.000000	93.537387
1211.000000	93.566179
1210.000000	93.585224
1209.000000	93.591345
1208.000000	93.585851
1207.000000	93.572905
1206.000000	93.555615
1205.000000	93.536095
1204.000000	93.516655
1203.000000	93.498838
1202.000000	93.482410
1201.000000	93.467242
1200.000000	93.455058
1199.000000	93.447651
1198.000000	93.444636
1197.000000	93.444543
1196.000000	93.446536
1195.000000	93.449080
1194.000000	93.448238
1193.000000	93.439894
1192.000000	93.423664
1191.000000	93.403178
1190.000000	93.382803
1189.000000	93.364578
1188.000000	93.347177
1187.000000	93.326187
1186.000000	93.295637
1185.000000	93.251714
1184.000000	93.195083
1183.000000	93.129268
1182.000000	93.057177
1181.000000	92.979318
1180.000000	92.895516
1179.000000	92.806644
1178.000000	92.714581
1177.000000	92.621624
1176.000000	92.529903
1175.000000	92.440528
1174.000000	92.352742
1173.000000	92.265004
1172.000000	92.176981
1171.000000	92.090102
1170.000000	92.006868
1169.000000	91.931001
1168.000000	91.866943
1167.000000	91.815912
1166.000000	91.773743
1165.000000	91.735669
1164.000000	91.703521
1163.000000	91.685500
1162.000000	91.687724
1161.000000	91.710390
1160.000000	91.751414
1159.000000	91.810066
1158.000000	91.887011
1157.000000	91.982969
1156.000000	92.099478
1155.000000	92.236950
1154.000000	92.391630
1153.000000	92.558129
1152.000000	92.733934
1151.000000	92.919813
1150.000000	93.115073
1149.000000	93.315167
1148.000000	93.514782
1147.000000	93.711145
1146.000000	93.904405
1145.000000	94.095387
1144.000000	94.283028
1143.000000	94.463254
1142.000000	94.631440
1141.000000	94.785738
1140.000000	94.927361
1139.000000	95.058609
1138.000000	95.180666
1137.000000	95.293216
1136.000000	95.393884
1135.000000	95.478394
1134.000000	95.543759
1133.000000	95.590590
1132.000000	95.622918
1131.000000	95.645406
1130.000000	95.660332
1129.000000	95.667144
1128.000000	95.664241
1127.000000	95.652839
1126.000000	95.637943
1125.000000	95.623969
1124.000000	95.610694
1123.000000	95.594425
1122.000000	95.572226
1121.000000	95.542543
1120.000000	95.502157
1119.000000	95.446406
1118.000000	95.372333
1117.000000	95.280078
1116.000000	95.171066
1115.000000	95.046377
1114.000000	94.908226
1113.000000	94.761914
1112.000000	94.617610
1111.000000	94.489682
1110.000000	94.391299
1109.000000	94.326902
1108.000000	94.291085
1107.000000	94.275105
1106.000000	94.272429
1105.000000	94.279175
1104.000000	94.291145
1103.000000	94.303235
1102.000000	94.309857
1101.000000	94.304585
1100.000000	94.281714
1099.000000	94.239891
1098.000000	94.184357
1097.000000	94.122652
1096.000000	94.060264
1095.000000	94.001587
1094.000000	93.952239
1093.000000	93.916938
1092.000000	93.897407
1091.000000	93.894600
1090.000000	93.911113
1089.000000	93.946782
1088.000000	93.993860
1087.000000	94.042589
1086.000000	94.091670
1085.000000	94.149923
1084.000000	94.225044
1083.000000	94.314471
1082.000000	94.409053
1081.000000	94.501593
1080.000000	94.589986
1079.000000	94.675494
1078.000000	94.761484
1077.000000	94.850998
1076.000000	94.942176
1075.000000	95.027736
1074.000000	95.101248
1073.000000	95.161928
1072.000000	95.211408
1071.000000	95.250137
1070.000000	95.278816
1069.000000	95.299623
1068.000000	95.313306
1067.000000	95.317829
1066.000000	95.313330
1065.000000	95.305104
1064.000000	95.299189
1063.000000	95.297725
1062.000000	95.300335
1061.000000	95.306818
1060.000000	95.316008
1059.000000	95.325541
1058.000000	95.335672
1057.000000	95.350841
1056.000000	95.374262
1055.000000	95.403194
1054.000000	95.432153
1053.000000	95.458460
1052.000000	95.482449
1051.000000	95.504815
1050.000000	95.526659
1049.000000	95.549433
1048.000000	95.572215
1047.000000	95.591652
1046.000000	95.606656
1045.000000	95.619489
1044.000000	95.629748
1043.000000	95.631819
1042.000000	95.621262
1041.000000	95.600324
1040.000000	95.573230
1039.000000	95.538917
1038.000000	95.493142
1037.000000	95.435585
1036.000000	95.371815
1035.000000	95.309866
1034.000000	95.257121
1033.000000	95.217613
1032.000000	95.189071
1031.000000	95.165054
1030.000000	95.143124
1029.000000	95.129185
1028.000000	95.129811
1027.000000	95.142767
1026.000000	95.159681
1025.000000	95.176204
1024.000000	95.195076
1023.000000	95.219782
1022.000000	95.250567
1021.000000	95.286732
1020.000000	95.327626
1019.000000	95.370875
1018.000000	95.413648
1017.000000	95.456714
1016.000000	95.503622
1015.000000	95.555216
1014.000000	95.608860
1013.000000	95.663694
1012.000000	95.722981
1011.000000	95.789658
1010.000000	95.862175
1009.000000	95.936180
1008.000000	96.008392
1007.000000	96.078132
1006.000000	96.146504
1005.000000	96.214099
1004.000000	96.278426
1003.000000	96.335093
1002.000000	96.383460
1001.000000	96.428726
1000.000000	96.475719
999.000000	96.521963
998.000000	96.560438
997.000000	96.588100
996.000000	96.607759
995.000000	96.623200
994.000000	96.636279
993.000000	96.648672
992.000000	96.662503
991.000000	96.678162
990.000000	96.694111
989.000000	96.709049
988.000000	96.722111
987.000000	96.731383
986.000000	96.734899
985.000000	96.733057
984.000000	96.727136
983.000000	96.715529
982.000000	96.695057
981.000000	96.666582
980.000000	96.636645
979.000000	96.611598
978.000000	96.591449
977.000000	96.570531
976.000000	96.542620
975.000000	96.505340
974.000000	96.461691
973.000000	96.419086
972.000000	96.385692
971.000000	96.365723
970.000000	96.357303
969.000000	96.355077
968.000000	96.355211
967.000000	96.358305
966.000000	96.369140
965.000000	96.392934
964.000000	96.429911
963.000000	96.473551
962.000000	96.515901
961.000000	96.555918
960.000000	96.600127
959.000000	96.653567
958.000000	96.712949
957.000000	96.771052
956.000000	96.826758
955.000000	96.886860
954.000000	96.957157
953.000000	97.034569
952.000000	97.109573
951.000000	97.175447
950.000000	97.233316
949.000000	97.288518
948.000000	97.344155
947.000000	97.399057
946.000000	97.450339
945.000000	97.495675
944.000000	97.533828
943.000000	97.565079
942.000000	97.591790
941.000000	97.616671
940.000000	97.639909
939.000000	97.659586
938.000000	97.675300
937.000000	97.690578
936.000000	97.711296
935.000000	97.742339
934.000000	97.784603
933.000000	97.833297
932.000000	97.879670
931.000000	97.916897
930.000000	97.944839
929.000000	97.967828
928.000000	97.988462
927.000000	98.006243
926.000000	98.021987
925.000000	98.039461
924.000000	98.061448
923.000000	98.086808
922.000000	98.113140
921.000000	98.140131
920.000000	98.168884
919.000000	98.199821
918.000000	98.232957
917.000000	98.268941
916.000000	98.308179
915.000000	98.349517
914.000000	98.390211
913.000000	98.426643
912.000000	98.456123
911.000000	98.480108
910.000000	98.504800
909.000000	98.535341
908.000000	98.569381
907.000000	98.599724
906.000000	98.623294
905.000000	98.643645
904.000000	98.663831
903.000000	98.680996
902.000000	98.690866
901.000000	98.695138
900.000000	98.702078
899.000000	98.719802
898.000000	98.748909
897.000000	98.780288
896.000000	98.801608
895.000000	98.808502
894.000000	98.808237
893.000000	98.809318
892.000000	98.809305
891.000000	98.796440
890.000000	98.757967
889.000000	98.677195
888.000000	98.524676
887.000000	98.265769
886.000000	97.890229
885.000000	97.431153
884.000000	96.946871
883.000000	96.481370
882.000000	96.035309
881.000000	95.571572
880.000000	95.050033
879.000000	94.465546
878.000000	93.857812
877.000000	93.291204
876.000000	92.827613
875.000000	92.515649
874.000000	92.395098
873.000000	92.494225
872.000000	92.818839
871.000000	93.336625
870.000000	93.976627
869.000000	94.651946
868.000000	95.286502
867.000000	95.832674
866.000000	96.275404
865.000000	96.626002
864.000000	96.906629
863.000000	97.137580
862.000000	97.333655
861.000000	97.504989
860.000000	97.655412
859.000000	97.781909
858.000000	97.882632
857.000000	97.963234
856.000000	98.032467
855.000000	98.094285
854.000000	98.147456
853.000000	98.188942
852.000000	98.211393
851.000000	98.203414
850.000000	98.164097
849.000000	98.118131
848.000000	98.105682
847.000000	98.149060
846.000000	98.232165
845.000000	98.317510
844.000000	98.379943
843.000000	98.420649
842.000000	98.453507
841.000000	98.486440
840.000000	98.517907
839.000000	98.544427
838.000000	98.565110
837.000000	98.578927
836.000000	98.582489
835.000000	98.574236
834.000000	98.559308
833.000000	98.546955
832.000000	98.542846
831.000000	98.546987
830.000000	98.559425
829.000000	98.583968
828.000000	98.622647
827.000000	98.668467
826.000000	98.708646
825.000000	98.735528
824.000000	98.750965
823.000000	98.759734
822.000000	98.763387
821.000000	98.762483
820.000000	98.760619
819.000000	98.762316
818.000000	98.768260
817.000000	98.775304
816.000000	98.780303
815.000000	98.782010
814.000000	98.780216
813.000000	98.776234
812.000000	98.774482
811.000000	98.779998
810.000000	98.792084
809.000000	98.802216
808.000000	98.801255
807.000000	98.788350
806.000000	98.770629
805.000000	98.754745
804.000000	98.741410
803.000000	98.728513
802.000000	98.716192
801.000000	98.706421
800.000000	98.699204
799.000000	98.691433
798.000000	98.679747
797.000000	98.663534
796.000000	98.645014
795.000000	98.626766
794.000000	98.609132
793.000000	98.590258
792.000000	98.569127
791.000000	98.547975
790.000000	98.530546
789.000000	98.518010
788.000000	98.507516
787.000000	98.494913
786.000000	98.478655
785.000000	98.461470
784.000000	98.448471
783.000000	98.442240
782.000000	98.438901
781.000000	98.430933
780.000000	98.415637
779.000000	98.399100
778.000000	98.389605
777.000000	98.388468
776.000000	98.389930
775.000000	98.388009
774.000000	98.379647
773.000000	98.363231
772.000000	98.340028
771.000000	98.317521
770.000000	98.305491
769.000000	98.306168
768.000000	98.311692
767.000000	98.312817
766.000000	98.306134
765.000000	98.291704
764.000000	98.269126
763.000000	98.239899
762.000000	98.209581
761.000000	98.182519
760.000000	98.156618
759.000000	98.127469
758.000000	98.095693
757.000000	98.065731
756.000000	98.038563
755.000000	98.010890
754.000000	97.982603
753.000000	97.960929
752.000000	97.953953
751.000000	97.960940
750.000000	97.970787
749.000000	97.970804
748.000000	97.957142
747.000000	97.936433
746.000000	97.917773
745.000000	97.904404
744.000000	97.893842
743.000000	97.883879
742.000000	97.874808
741.000000	97.866403
740.000000	97.856855
739.000000	97.845361
738.000000	97.831714
737.000000	97.811824
736.000000	97.778186
735.000000	97.728242
734.000000	97.669145
733.000000	97.610603
732.000000	97.555879
731.000000	97.503389
730.000000	97.454188
729.000000	97.411859
728.000000	97.377372
727.000000	97.349207
726.000000	97.326721
725.000000	97.309280
724.000000	97.291591
723.000000	97.263823
722.000000	97.217658
721.000000	97.150446
720.000000	97.062643
719.000000	96.950149
718.000000	96.796703
717.000000	96.572798
716.000000	96.251242
715.000000	95.842001
714.000000	95.420580
713.000000	95.108333
712.000000	95.001395
711.000000	95.103855
710.000000	95.329651
709.000000	95.568817
708.000000	95.752129
707.000000	95.865334
706.000000	95.921535
705.000000	95.936853
704.000000	95.927366
703.000000	95.909123
702.000000	95.890845
701.000000	95.869967
700.000000	95.840457
699.000000	95.805474
698.000000	95.778008
697.000000	95.768732
696.000000	95.775065
695.000000	95.782362
694.000000	95.778731
693.000000	95.766904
692.000000	95.758519
691.000000	95.760071
690.000000	95.766885
689.000000	95.770959
688.000000	95.769570
687.000000	95.762878
686.000000	95.750816
685.000000	95.735010
684.000000	95.718305
683.000000	95.700918
682.000000	95.680809
681.000000	95.660687
680.000000	95.649204
679.000000	95.651983
678.000000	95.665211
677.000000	95.678734
676.000000	95.687634
675.000000	95.692081
674.000000	95.692603
673.000000	95.692256
672.000000	95.700837
671.000000	95.730054
670.000000	95.789497
669.000000	95.882155
668.000000	95.970920
667.000000	96.005836
666.000000	96.020241
665.000000	96.025389
664.000000	96.016042
663.000000	96.003209
662.000000	95.997600
661.000000	95.997837
660.000000	96.000780
659.000000	96.010744
658.000000	96.026987
657.000000	96.033225
656.000000	96.017425
655.000000	95.984362
654.000000	95.941996
653.000000	95.890613
652.000000	95.834850
651.000000	95.787499
650.000000	95.751196
649.000000	95.710971
648.000000	95.657965
647.000000	95.602182
646.000000	95.550480
645.000000	95.492894
644.000000	95.422889
643.000000	95.351409
642.000000	95.287689
641.000000	95.221384
640.000000	95.141849
639.000000	95.062246
638.000000	95.004110
637.000000	94.970313
636.000000	94.951099
635.000000	94.944367
634.000000	94.953350
633.000000	94.973941
632.000000	94.998320
631.000000	95.022844
630.000000	95.041530
629.000000	95.043484
628.000000	95.029084
627.000000	95.016822
626.000000	95.019800
625.000000	95.025868
624.000000	95.014012
623.000000	94.979935
622.000000	94.934128
621.000000	94.886011
620.000000	94.843007
619.000000	94.814467
618.000000	94.801010
617.000000	94.787280
616.000000	94.759546
615.000000	94.722792
614.000000	94.687833
613.000000	94.654299
612.000000	94.621391
611.000000	94.604087
610.000000	94.619308
609.000000	94.661733
608.000000	94.709378
607.000000	94.749489
606.000000	94.786240
605.000000	94.830914
604.000000	94.896260
603.000000	94.992931
602.000000	95.118295
601.000000	95.251353
600.000000	95.369322
599.000000	95.466059
598.000000	95.548602
597.000000	95.623002
596.000000	95.693900
595.000000	95.770251
594.000000	95.857958
593.000000	95.949923
592.000000	96.032750
591.000000	96.100665
590.000000	96.154875
589.000000	96.193633
588.000000	96.213944
587.000000	96.220644
586.000000	96.225091
585.000000	96.235857
584.000000	96.256024
583.000000	96.284059
582.000000	96.309420
581.000000	96.316379
580.000000	96.303321
579.000000	96.290692
578.000000	96.297049
577.000000	96.315026
576.000000	96.323823
575.000000	96.318777
574.000000	96.315036
573.000000	96.324540
572.000000	96.346233
571.000000	96.373339
570.000000	96.397236
569.000000	96.410271
568.000000	96.415096
567.000000	96.424444
566.000000	96.441179
565.000000	96.447856
564.000000	96.429223
563.000000	96.395119
562.000000	96.367392
561.000000	96.351989
560.000000	96.340413
559.000000	96.332629
558.000000	96.336856
557.000000	96.351289
556.000000	96.365149
555.000000	96.374414
554.000000	96.382171
553.000000	96.386185
552.000000	96.381764
551.000000	96.375149
550.000000	96.379735
549.000000	96.401536
548.000000	96.438984
547.000000	96.488467
546.000000	96.537560
545.000000	96.564042
544.000000	96.559028
543.000000	96.540813
542.000000	96.530930
541.000000	96.526107
540.000000	96.510085
539.000000	96.482239
538.000000	96.453599
537.000000	96.424928
536.000000	96.392098
535.000000	96.365927
534.000000	96.361670
533.000000	96.371053
532.000000	96.368788
531.000000	96.347098
530.000000	96.324671
529.000000	96.322285
528.000000	96.346658
527.000000	96.391958
526.000000	96.436106
525.000000	96.445924
524.000000	96.412176
523.000000	96.366112
522.000000	96.346926
521.000000	96.366164
520.000000	96.411169
519.000000	96.468934
518.000000	96.528687
517.000000	96.573951
516.000000	96.599189
515.000000	96.622183
514.000000	96.658084
513.000000	96.696313
512.000000	96.723196
511.000000	96.751048
510.000000	96.799395
509.000000	96.858315
508.000000	96.900458
507.000000	96.924585
506.000000	96.956086
505.000000	97.006105
504.000000	97.062721
503.000000	97.116774
502.000000	97.163739
501.000000	97.185180
500.000000	97.166253
499.000000	97.128331
498.000000	97.112460
497.000000	97.128395
496.000000	97.144115
495.000000	97.135532
494.000000	97.120651
493.000000	97.127831
492.000000	97.153055
491.000000	97.171182
490.000000	97.175332
489.000000	97.181878
488.000000	97.205155
487.000000	97.243753
486.000000	97.287104
485.000000	97.328737
484.000000	97.372865
483.000000	97.425184
482.000000	97.473734
481.000000	97.492778
480.000000	97.477299
479.000000	97.459146
478.000000	97.476799
477.000000	97.535943
476.000000	97.611593
475.000000	97.677260
474.000000	97.714295
473.000000	97.711274
472.000000	97.684816
471.000000	97.682406
470.000000	97.726989
469.000000	97.791920
468.000000	97.851192
467.000000	97.912600
466.000000	97.980088
465.000000	98.016997
464.000000	97.995146
463.000000	97.955788
462.000000	97.973921
461.000000	98.059583
460.000000	98.152570
459.000000	98.212969
458.000000	98.254675
457.000000	98.294426
456.000000	98.281914
455.000000	98.345096
454.000000	98.445110
453.000000	98.578667
452.000000	98.699837
451.000000	98.778659
450.000000	98.837057
