PE IR       SUBTECH     SPECTRUM    ASCII       PEDS        4.00        
   -1
3C-XXX-C007_1.ASC
23/09/07
10:24:46.00
23/09/07
11:30:09.00
uco
Sample 007 By uco Date Thursday, September 07 2023
450.000000
#HDR
-1
-1
#GR
cm-1
%T
1.0
0.0
4000.000000
-1.000000
3551
8
99.660871
94.431500
#DATA
4000.000000	99.563553
3999.000000	99.564039
3998.000000	99.564764
3997.000000	99.566027
3996.000000	99.567373
3995.000000	99.568009
3994.000000	99.567410
3993.000000	99.565599
3992.000000	99.563009
3991.000000	99.560077
3990.000000	99.556903
3989.000000	99.553308
3988.000000	99.549308
3987.000000	99.545508
3986.000000	99.542905
3985.000000	99.542238
3984.000000	99.543601
3983.000000	99.546436
3982.000000	99.549575
3981.000000	99.551360
3980.000000	99.550306
3979.000000	99.546349
3978.000000	99.541443
3977.000000	99.538401
3976.000000	99.538766
3975.000000	99.541742
3974.000000	99.545387
3973.000000	99.548324
3972.000000	99.550064
3971.000000	99.550151
3970.000000	99.548049
3969.000000	99.544229
3968.000000	99.540734
3967.000000	99.539902
3966.000000	99.542253
3965.000000	99.545962
3964.000000	99.548461
3963.000000	99.548387
3962.000000	99.546136
3961.000000	99.542754
3960.000000	99.538795
3959.000000	99.534374
3958.000000	99.529944
3957.000000	99.526526
3956.000000	99.525011
3955.000000	99.525529
3954.000000	99.527514
3953.000000	99.530470
3952.000000	99.534469
3951.000000	99.539714
3950.000000	99.545463
3949.000000	99.549670
3948.000000	99.550317
3947.000000	99.546996
3946.000000	99.540894
3945.000000	99.533638
3944.000000	99.526999
3943.000000	99.523090
3942.000000	99.523292
3941.000000	99.526793
3940.000000	99.531011
3939.000000	99.533397
3938.000000	99.533021
3937.000000	99.530625
3936.000000	99.527492
3935.000000	99.524922
3934.000000	99.524511
3933.000000	99.528078
3932.000000	99.535796
3931.000000	99.544631
3930.000000	99.550288
3929.000000	99.550458
3928.000000	99.545651
3927.000000	99.537900
3926.000000	99.529795
3925.000000	99.524028
3924.000000	99.522113
3923.000000	99.523665
3922.000000	99.527311
3921.000000	99.531355
3920.000000	99.533657
3919.000000	99.532240
3918.000000	99.527767
3917.000000	99.524621
3916.000000	99.527061
3915.000000	99.534092
3914.000000	99.540063
3913.000000	99.539801
3912.000000	99.532800
3911.000000	99.522970
3910.000000	99.515308
3909.000000	99.512398
3908.000000	99.513302
3907.000000	99.515022
3906.000000	99.515358
3905.000000	99.515847
3904.000000	99.520677
3903.000000	99.531270
3902.000000	99.543659
3901.000000	99.552362
3900.000000	99.555198
3899.000000	99.553280
3898.000000	99.548300
3897.000000	99.541396
3896.000000	99.534089
3895.000000	99.528014
3894.000000	99.523896
3893.000000	99.521774
3892.000000	99.523038
3891.000000	99.529429
3890.000000	99.539397
3889.000000	99.547987
3888.000000	99.548945
3887.000000	99.539990
3886.000000	99.528520
3885.000000	99.525000
3884.000000	99.530895
3883.000000	99.538492
3882.000000	99.539726
3881.000000	99.533579
3880.000000	99.525623
3879.000000	99.520730
3878.000000	99.518976
3877.000000	99.517321
3876.000000	99.513700
3875.000000	99.510481
3874.000000	99.511179
3873.000000	99.513791
3872.000000	99.511746
3871.000000	99.503930
3870.000000	99.500185
3869.000000	99.508387
3868.000000	99.522964
3867.000000	99.532651
3866.000000	99.532905
3865.000000	99.529259
3864.000000	99.529791
3863.000000	99.535080
3862.000000	99.539462
3861.000000	99.538311
3860.000000	99.531745
3859.000000	99.523582
3858.000000	99.518929
3857.000000	99.520077
3856.000000	99.521606
3855.000000	99.515460
3854.000000	99.506990
3853.000000	99.507871
3852.000000	99.515265
3851.000000	99.520900
3850.000000	99.523512
3849.000000	99.525733
3848.000000	99.528951
3847.000000	99.531513
3846.000000	99.530790
3845.000000	99.525956
3844.000000	99.519123
3843.000000	99.513564
3842.000000	99.511398
3841.000000	99.512968
3840.000000	99.518066
3839.000000	99.525853
3838.000000	99.533471
3837.000000	99.537335
3836.000000	99.536930
3835.000000	99.534932
3834.000000	99.533830
3833.000000	99.534067
3832.000000	99.534801
3831.000000	99.534405
3830.000000	99.531115
3829.000000	99.523828
3828.000000	99.513590
3827.000000	99.504745
3826.000000	99.502225
3825.000000	99.506392
3824.000000	99.511552
3823.000000	99.510989
3822.000000	99.506858
3821.000000	99.508574
3820.000000	99.517149
3819.000000	99.524887
3818.000000	99.525731
3817.000000	99.520635
3816.000000	99.517432
3815.000000	99.519932
3814.000000	99.522683
3813.000000	99.520519
3812.000000	99.514948
3811.000000	99.511319
3810.000000	99.512151
3809.000000	99.514236
3808.000000	99.514313
3807.000000	99.514812
3806.000000	99.519521
3805.000000	99.527771
3804.000000	99.535076
3803.000000	99.537759
3802.000000	99.538983
3801.000000	99.543185
3800.000000	99.546705
3799.000000	99.543907
3798.000000	99.534043
3797.000000	99.521637
3796.000000	99.512299
3795.000000	99.507290
3794.000000	99.504188
3793.000000	99.501577
3792.000000	99.500607
3791.000000	99.502531
3790.000000	99.506654
3789.000000	99.510998
3788.000000	99.514178
3787.000000	99.516088
3786.000000	99.517436
3785.000000	99.518918
3784.000000	99.520391
3783.000000	99.520488
3782.000000	99.517576
3781.000000	99.511756
3780.000000	99.506156
3779.000000	99.504229
3778.000000	99.505622
3777.000000	99.507112
3776.000000	99.506851
3775.000000	99.506226
3774.000000	99.507516
3773.000000	99.510251
3772.000000	99.511660
3771.000000	99.511614
3770.000000	99.514241
3769.000000	99.521573
3768.000000	99.529269
3767.000000	99.531172
3766.000000	99.526202
3765.000000	99.519132
3764.000000	99.514618
3763.000000	99.512324
3762.000000	99.509268
3761.000000	99.505071
3760.000000	99.502778
3759.000000	99.504109
3758.000000	99.507423
3757.000000	99.511455
3756.000000	99.516930
3755.000000	99.524247
3754.000000	99.532113
3753.000000	99.539353
3752.000000	99.545766
3751.000000	99.549817
3750.000000	99.549446
3749.000000	99.547366
3748.000000	99.549703
3747.000000	99.557284
3746.000000	99.563740
3745.000000	99.568406
3744.000000	99.575489
3743.000000	99.579740
3742.000000	99.574888
3741.000000	99.562845
3740.000000	99.550662
3739.000000	99.544494
3738.000000	99.545127
3737.000000	99.550277
3736.000000	99.557570
3735.000000	99.562326
3734.000000	99.559728
3733.000000	99.551846
3732.000000	99.546498
3731.000000	99.548990
3730.000000	99.557938
3729.000000	99.567900
3728.000000	99.573956
3727.000000	99.575088
3726.000000	99.572947
3725.000000	99.568622
3724.000000	99.562601
3723.000000	99.556131
3722.000000	99.550792
3721.000000	99.547055
3720.000000	99.544383
3719.000000	99.542319
3718.000000	99.541219
3717.000000	99.541854
3716.000000	99.544059
3715.000000	99.546356
3714.000000	99.547298
3713.000000	99.547416
3712.000000	99.548292
3711.000000	99.548912
3710.000000	99.546862
3709.000000	99.542530
3708.000000	99.538412
3707.000000	99.536336
3706.000000	99.536542
3705.000000	99.537928
3704.000000	99.538689
3703.000000	99.537938
3702.000000	99.537317
3701.000000	99.539700
3700.000000	99.545350
3699.000000	99.550395
3698.000000	99.550214
3697.000000	99.544542
3696.000000	99.537887
3695.000000	99.534305
3694.000000	99.533628
3693.000000	99.533345
3692.000000	99.532744
3691.000000	99.533957
3690.000000	99.539397
3689.000000	99.548474
3688.000000	99.557104
3687.000000	99.561732
3686.000000	99.561961
3685.000000	99.559177
3684.000000	99.554968
3683.000000	99.549979
3682.000000	99.543097
3681.000000	99.534142
3680.000000	99.526766
3679.000000	99.525665
3678.000000	99.529922
3677.000000	99.534293
3676.000000	99.539017
3675.000000	99.545854
3674.000000	99.550357
3673.000000	99.548488
3672.000000	99.539240
3671.000000	99.526285
3670.000000	99.518467
3669.000000	99.517785
3668.000000	99.516550
3667.000000	99.509669
3666.000000	99.499040
3665.000000	99.489540
3664.000000	99.484921
3663.000000	99.485535
3662.000000	99.489087
3661.000000	99.493532
3660.000000	99.498053
3659.000000	99.501579
3658.000000	99.502112
3657.000000	99.500189
3656.000000	99.499945
3655.000000	99.504060
3654.000000	99.510852
3653.000000	99.515479
3652.000000	99.512878
3651.000000	99.502856
3650.000000	99.491818
3649.000000	99.486183
3648.000000	99.485874
3647.000000	99.485644
3646.000000	99.481028
3645.000000	99.471575
3644.000000	99.460382
3643.000000	99.452226
3642.000000	99.450310
3641.000000	99.453270
3640.000000	99.456359
3639.000000	99.456463
3638.000000	99.454411
3637.000000	99.452222
3636.000000	99.450265
3635.000000	99.448548
3634.000000	99.448771
3633.000000	99.452373
3632.000000	99.456911
3631.000000	99.456011
3630.000000	99.448565
3629.000000	99.444168
3628.000000	99.446535
3627.000000	99.446591
3626.000000	99.438285
3625.000000	99.424544
3624.000000	99.412532
3623.000000	99.407515
3622.000000	99.408559
3621.000000	99.410040
3620.000000	99.407656
3619.000000	99.402403
3618.000000	99.398450
3617.000000	99.398475
3616.000000	99.401159
3615.000000	99.402497
3614.000000	99.399588
3613.000000	99.392800
3612.000000	99.383986
3611.000000	99.373309
3610.000000	99.359567
3609.000000	99.344250
3608.000000	99.332674
3607.000000	99.328883
3606.000000	99.331733
3605.000000	99.337227
3604.000000	99.341932
3603.000000	99.343664
3602.000000	99.341023
3601.000000	99.334248
3600.000000	99.325662
3599.000000	99.317892
3598.000000	99.311205
3597.000000	99.303586
3596.000000	99.293719
3595.000000	99.283662
3594.000000	99.277418
3593.000000	99.276911
3592.000000	99.280538
3591.000000	99.284749
3590.000000	99.285990
3589.000000	99.283101
3588.000000	99.278271
3587.000000	99.273502
3586.000000	99.267871
3585.000000	99.259971
3584.000000	99.249810
3583.000000	99.238254
3582.000000	99.226442
3581.000000	99.215683
3580.000000	99.207074
3579.000000	99.200891
3578.000000	99.196500
3577.000000	99.192757
3576.000000	99.188397
3575.000000	99.182192
3574.000000	99.173634
3573.000000	99.163985
3572.000000	99.156281
3571.000000	99.153213
3570.000000	99.154671
3569.000000	99.157978
3568.000000	99.160050
3567.000000	99.158100
3566.000000	99.150522
3565.000000	99.139219
3564.000000	99.128329
3563.000000	99.120223
3562.000000	99.114021
3561.000000	99.107198
3560.000000	99.098279
3559.000000	99.088001
3558.000000	99.077968
3557.000000	99.068816
3556.000000	99.059907
3555.000000	99.050353
3554.000000	99.040263
3553.000000	99.031234
3552.000000	99.025289
3551.000000	99.022879
3550.000000	99.022264
3549.000000	99.021045
3548.000000	99.018183
3547.000000	99.014356
3546.000000	99.010460
3545.000000	99.006246
3544.000000	99.000580
3543.000000	98.992015
3542.000000	98.979178
3541.000000	98.962130
3540.000000	98.943811
3539.000000	98.929106
3538.000000	98.921130
3537.000000	98.918392
3536.000000	98.916051
3535.000000	98.910338
3534.000000	98.901190
3533.000000	98.891084
3532.000000	98.882677
3531.000000	98.877738
3530.000000	98.877129
3529.000000	98.880743
3528.000000	98.887215
3527.000000	98.893781
3526.000000	98.896989
3525.000000	98.894212
3524.000000	98.885016
3523.000000	98.871346
3522.000000	98.856214
3521.000000	98.842061
3520.000000	98.829949
3519.000000	98.819562
3518.000000	98.809516
3517.000000	98.798401
3516.000000	98.786489
3515.000000	98.776181
3514.000000	98.769824
3513.000000	98.766957
3512.000000	98.764599
3511.000000	98.760571
3510.000000	98.755849
3509.000000	98.753034
3508.000000	98.753098
3507.000000	98.754466
3506.000000	98.754737
3505.000000	98.752342
3504.000000	98.747042
3503.000000	98.739887
3502.000000	98.732763
3501.000000	98.726997
3500.000000	98.721950
3499.000000	98.715603
3498.000000	98.706983
3497.000000	98.697636
3496.000000	98.690034
3495.000000	98.684737
3494.000000	98.680037
3493.000000	98.674427
3492.000000	98.668437
3491.000000	98.663722
3490.000000	98.661062
3489.000000	98.659730
3488.000000	98.658469
3487.000000	98.656404
3486.000000	98.652892
3485.000000	98.647027
3484.000000	98.637990
3483.000000	98.626382
3482.000000	98.615105
3481.000000	98.607987
3480.000000	98.606733
3479.000000	98.609362
3478.000000	98.612114
3477.000000	98.612691
3476.000000	98.611345
3475.000000	98.609212
3474.000000	98.606414
3473.000000	98.602115
3472.000000	98.595740
3471.000000	98.587585
3470.000000	98.578687
3469.000000	98.570657
3468.000000	98.565162
3467.000000	98.562673
3466.000000	98.561744
3465.000000	98.560314
3464.000000	98.557815
3463.000000	98.555340
3462.000000	98.553499
3461.000000	98.550848
3460.000000	98.545229
3459.000000	98.536420
3458.000000	98.526640
3457.000000	98.518265
3456.000000	98.511557
3455.000000	98.505047
3454.000000	98.497950
3453.000000	98.491601
3452.000000	98.488213
3451.000000	98.488627
3450.000000	98.491768
3449.000000	98.495930
3448.000000	98.499685
3447.000000	98.501471
3446.000000	98.499522
3445.000000	98.493290
3444.000000	98.484479
3443.000000	98.476065
3442.000000	98.470205
3441.000000	98.466957
3440.000000	98.464572
3439.000000	98.460845
3438.000000	98.454681
3437.000000	98.447006
3436.000000	98.440008
3435.000000	98.435000
3434.000000	98.431238
3433.000000	98.427195
3432.000000	98.422474
3431.000000	98.417730
3430.000000	98.413269
3429.000000	98.408815
3428.000000	98.404531
3427.000000	98.401033
3426.000000	98.398145
3425.000000	98.394715
3424.000000	98.390179
3423.000000	98.385559
3422.000000	98.382215
3421.000000	98.379956
3420.000000	98.377081
3419.000000	98.372300
3418.000000	98.366143
3417.000000	98.360351
3416.000000	98.356227
3415.000000	98.353522
3414.000000	98.350732
3413.000000	98.346352
3412.000000	98.339744
3411.000000	98.331001
3410.000000	98.320727
3409.000000	98.310510
3408.000000	98.302992
3407.000000	98.300247
3406.000000	98.301688
3405.000000	98.304171
3404.000000	98.304624
3403.000000	98.302417
3402.000000	98.299079
3401.000000	98.296102
3400.000000	98.293324
3399.000000	98.289154
3398.000000	98.282086
3397.000000	98.272086
3396.000000	98.260790
3395.000000	98.250344
3394.000000	98.241863
3393.000000	98.234839
3392.000000	98.227954
3391.000000	98.220545
3390.000000	98.213468
3389.000000	98.208573
3388.000000	98.207120
3387.000000	98.208500
3386.000000	98.210480
3385.000000	98.210745
3384.000000	98.208025
3383.000000	98.201969
3382.000000	98.192832
3381.000000	98.181861
3380.000000	98.171352
3379.000000	98.163232
3378.000000	98.157576
3377.000000	98.153155
3376.000000	98.149301
3375.000000	98.146280
3374.000000	98.143668
3373.000000	98.139543
3372.000000	98.132267
3371.000000	98.122692
3370.000000	98.113686
3369.000000	98.107232
3368.000000	98.102336
3367.000000	98.095912
3366.000000	98.085679
3365.000000	98.072343
3364.000000	98.059160
3363.000000	98.049367
3362.000000	98.043741
3361.000000	98.040379
3360.000000	98.036598
3359.000000	98.030794
3358.000000	98.022560
3357.000000	98.011742
3356.000000	97.998273
3355.000000	97.983125
3354.000000	97.968713
3353.000000	97.957541
3352.000000	97.950234
3351.000000	97.945113
3350.000000	97.939753
3349.000000	97.932704
3348.000000	97.923765
3347.000000	97.913306
3346.000000	97.901989
3345.000000	97.890871
3344.000000	97.880882
3343.000000	97.871950
3342.000000	97.863190
3341.000000	97.854121
3340.000000	97.845085
3339.000000	97.836307
3338.000000	97.827370
3337.000000	97.818194
3336.000000	97.809745
3335.000000	97.802845
3334.000000	97.796634
3333.000000	97.789203
3332.000000	97.779670
3331.000000	97.768827
3330.000000	97.757857
3329.000000	97.747199
3328.000000	97.736618
3327.000000	97.725606
3326.000000	97.713613
3325.000000	97.700668
3324.000000	97.688097
3323.000000	97.677920
3322.000000	97.671091
3321.000000	97.666783
3320.000000	97.663467
3319.000000	97.660108
3318.000000	97.656146
3317.000000	97.651080
3316.000000	97.644723
3315.000000	97.637521
3314.000000	97.630062
3313.000000	97.622413
3312.000000	97.614222
3311.000000	97.605203
3310.000000	97.595386
3309.000000	97.585273
3308.000000	97.575983
3307.000000	97.568664
3306.000000	97.563221
3305.000000	97.558017
3304.000000	97.551572
3303.000000	97.544688
3302.000000	97.540407
3301.000000	97.541472
3300.000000	97.547601
3299.000000	97.555030
3298.000000	97.558800
3297.000000	97.556063
3296.000000	97.547810
3295.000000	97.537648
3294.000000	97.528947
3293.000000	97.523160
3292.000000	97.520214
3291.000000	97.519475
3290.000000	97.520048
3289.000000	97.520896
3288.000000	97.521318
3287.000000	97.521129
3286.000000	97.520102
3285.000000	97.517669
3284.000000	97.513470
3283.000000	97.507745
3282.000000	97.500949
3281.000000	97.493823
3280.000000	97.488556
3279.000000	97.488681
3278.000000	97.495999
3277.000000	97.507498
3276.000000	97.516939
3275.000000	97.520488
3274.000000	97.519709
3273.000000	97.518450
3272.000000	97.518060
3271.000000	97.516916
3270.000000	97.514032
3269.000000	97.511192
3268.000000	97.511055
3267.000000	97.514296
3266.000000	97.519330
3265.000000	97.524408
3264.000000	97.529220
3263.000000	97.534472
3262.000000	97.540508
3261.000000	97.546614
3260.000000	97.551574
3259.000000	97.554787
3258.000000	97.556872
3257.000000	97.559298
3256.000000	97.563513
3255.000000	97.570316
3254.000000	97.579720
3253.000000	97.591048
3252.000000	97.602939
3251.000000	97.613397
3250.000000	97.620298
3249.000000	97.622538
3248.000000	97.621196
3247.000000	97.619366
3246.000000	97.620113
3245.000000	97.623879
3244.000000	97.628116
3243.000000	97.629921
3242.000000	97.628920
3241.000000	97.627466
3240.000000	97.628348
3239.000000	97.632737
3238.000000	97.640016
3237.000000	97.648744
3236.000000	97.657543
3235.000000	97.665664
3234.000000	97.673098
3233.000000	97.679896
3232.000000	97.685156
3231.000000	97.687206
3230.000000	97.685343
3229.000000	97.681187
3228.000000	97.677848
3227.000000	97.677594
3226.000000	97.680492
3225.000000	97.685137
3224.000000	97.690167
3223.000000	97.695107
3222.000000	97.700273
3221.000000	97.706209
3220.000000	97.713119
3219.000000	97.720529
3218.000000	97.727448
3217.000000	97.732954
3216.000000	97.736723
3215.000000	97.739113
3214.000000	97.740627
3213.000000	97.741283
3212.000000	97.740664
3211.000000	97.738899
3210.000000	97.737356
3209.000000	97.737590
3208.000000	97.739390
3207.000000	97.740711
3206.000000	97.740473
3205.000000	97.740906
3204.000000	97.745902
3203.000000	97.756629
3202.000000	97.769718
3201.000000	97.780340
3200.000000	97.786502
3199.000000	97.789990
3198.000000	97.793735
3197.000000	97.799178
3196.000000	97.805662
3195.000000	97.811198
3194.000000	97.813716
3193.000000	97.812705
3192.000000	97.810486
3191.000000	97.811209
3190.000000	97.817653
3189.000000	97.828751
3188.000000	97.840572
3187.000000	97.849731
3186.000000	97.855764
3185.000000	97.860592
3184.000000	97.866256
3183.000000	97.873358
3182.000000	97.881188
3181.000000	97.888792
3180.000000	97.895700
3179.000000	97.901784
3178.000000	97.906923
3177.000000	97.911249
3176.000000	97.915669
3175.000000	97.921535
3174.000000	97.929371
3173.000000	97.938080
3172.000000	97.945586
3171.000000	97.950194
3170.000000	97.951386
3169.000000	97.950113
3168.000000	97.948959
3167.000000	97.951417
3166.000000	97.959656
3165.000000	97.972345
3164.000000	97.985317
3163.000000	97.994880
3162.000000	98.000535
3161.000000	98.004641
3160.000000	98.010042
3159.000000	98.018039
3158.000000	98.027688
3157.000000	98.036432
3156.000000	98.042012
3155.000000	98.044704
3154.000000	98.047592
3153.000000	98.053914
3152.000000	98.063960
3151.000000	98.074950
3150.000000	98.083969
3149.000000	98.090642
3148.000000	98.096926
3147.000000	98.104773
3146.000000	98.114213
3145.000000	98.123539
3144.000000	98.131125
3143.000000	98.137035
3142.000000	98.142749
3141.000000	98.149304
3140.000000	98.155978
3139.000000	98.161047
3138.000000	98.163698
3137.000000	98.164958
3136.000000	98.166747
3135.000000	98.170030
3134.000000	98.173679
3133.000000	98.175266
3132.000000	98.173630
3131.000000	98.170785
3130.000000	98.170539
3129.000000	98.174751
3128.000000	98.181504
3127.000000	98.187422
3126.000000	98.191146
3125.000000	98.193698
3124.000000	98.196091
3123.000000	98.197906
3122.000000	98.198256
3121.000000	98.197036
3120.000000	98.194989
3119.000000	98.193399
3118.000000	98.193691
3117.000000	98.196336
3116.000000	98.199831
3115.000000	98.201797
3114.000000	98.201390
3113.000000	98.199658
3112.000000	98.197383
3111.000000	98.193996
3110.000000	98.189427
3109.000000	98.185709
3108.000000	98.185126
3107.000000	98.187084
3106.000000	98.188222
3105.000000	98.185983
3104.000000	98.181366
3103.000000	98.177792
3102.000000	98.177434
3101.000000	98.178731
3100.000000	98.177581
3099.000000	98.171441
3098.000000	98.162266
3097.000000	98.154853
3096.000000	98.152120
3095.000000	98.152561
3094.000000	98.152643
3093.000000	98.150762
3092.000000	98.148049
3091.000000	98.146157
3090.000000	98.145517
3089.000000	98.145393
3088.000000	98.144411
3087.000000	98.141013
3086.000000	98.134415
3085.000000	98.125548
3084.000000	98.116573
3083.000000	98.109252
3082.000000	98.104117
3081.000000	98.101093
3080.000000	98.100255
3079.000000	98.101683
3078.000000	98.104710
3077.000000	98.107447
3076.000000	98.107389
3075.000000	98.103302
3074.000000	98.096952
3073.000000	98.092202
3072.000000	98.091605
3071.000000	98.094242
3070.000000	98.097502
3069.000000	98.100171
3068.000000	98.102756
3067.000000	98.105563
3066.000000	98.108182
3065.000000	98.110890
3064.000000	98.114910
3063.000000	98.120871
3062.000000	98.128210
3061.000000	98.136258
3060.000000	98.144495
3059.000000	98.151346
3058.000000	98.154453
3057.000000	98.153384
3056.000000	98.151077
3055.000000	98.151298
3054.000000	98.155153
3053.000000	98.161052
3052.000000	98.167368
3051.000000	98.173895
3050.000000	98.181058
3049.000000	98.188963
3048.000000	98.197395
3047.000000	98.205930
3046.000000	98.213833
3045.000000	98.220458
3044.000000	98.225963
3043.000000	98.231176
3042.000000	98.236501
3041.000000	98.241253
3040.000000	98.244402
3039.000000	98.246014
3038.000000	98.247893
3037.000000	98.252655
3036.000000	98.261827
3035.000000	98.274432
3034.000000	98.287307
3033.000000	98.297057
3032.000000	98.302026
3031.000000	98.302891
3030.000000	98.301823
3029.000000	98.301223
3028.000000	98.302998
3027.000000	98.308314
3026.000000	98.317209
3025.000000	98.327935
3024.000000	98.337043
3023.000000	98.341367
3022.000000	98.340895
3021.000000	98.339450
3020.000000	98.341528
3019.000000	98.348073
3018.000000	98.355799
3017.000000	98.360729
3016.000000	98.361890
3015.000000	98.361505
3014.000000	98.362388
3013.000000	98.365526
3012.000000	98.369423
3011.000000	98.371030
3010.000000	98.367726
3009.000000	98.359403
3008.000000	98.348984
3007.000000	98.340655
3006.000000	98.337102
3005.000000	98.337878
3004.000000	98.339868
3003.000000	98.339438
3002.000000	98.334867
3001.000000	98.327382
3000.000000	98.319900
2999.000000	98.314666
2998.000000	98.311933
2997.000000	98.310374
2996.000000	98.308004
2995.000000	98.302762
2994.000000	98.293360
2993.000000	98.280595
2992.000000	98.267574
2991.000000	98.257560
2990.000000	98.250989
2989.000000	98.244628
2988.000000	98.234083
2987.000000	98.217558
2986.000000	98.197423
2985.000000	98.178112
2984.000000	98.162388
2983.000000	98.149569
2982.000000	98.136996
2981.000000	98.122352
2980.000000	98.104520
2979.000000	98.083337
2978.000000	98.059807
2977.000000	98.036049
2976.000000	98.013422
2975.000000	97.990561
2974.000000	97.964541
2973.000000	97.934463
2972.000000	97.902582
2971.000000	97.871189
2970.000000	97.839785
2969.000000	97.806641
2968.000000	97.772323
2967.000000	97.739865
2966.000000	97.711325
2965.000000	97.685501
2964.000000	97.659553
2963.000000	97.632242
2962.000000	97.605125
2961.000000	97.581317
2960.000000	97.563628
2959.000000	97.553394
2958.000000	97.550179
2957.000000	97.552190
2956.000000	97.557545
2955.000000	97.565655
2954.000000	97.577430
2953.000000	97.593650
2952.000000	97.612898
2951.000000	97.631513
2950.000000	97.645716
2949.000000	97.653558
2948.000000	97.654666
2947.000000	97.649070
2946.000000	97.637168
2945.000000	97.620330
2944.000000	97.600365
2943.000000	97.578087
2942.000000	97.553218
2941.000000	97.525534
2940.000000	97.495332
2939.000000	97.462833
2938.000000	97.428354
2937.000000	97.393456
2936.000000	97.360591
2935.000000	97.330982
2934.000000	97.303791
2933.000000	97.278221
2932.000000	97.255528
2931.000000	97.237755
2930.000000	97.224992
2929.000000	97.214960
2928.000000	97.205501
2927.000000	97.196920
2926.000000	97.191905
2925.000000	97.193502
2924.000000	97.202847
2923.000000	97.218539
2922.000000	97.238313
2921.000000	97.261480
2920.000000	97.289241
2919.000000	97.322334
2918.000000	97.359247
2917.000000	97.397493
2916.000000	97.436223
2915.000000	97.476561
2914.000000	97.519351
2913.000000	97.563358
2912.000000	97.605981
2911.000000	97.645392
2910.000000	97.681635
2909.000000	97.715762
2908.000000	97.748095
2907.000000	97.777495
2906.000000	97.802583
2905.000000	97.823643
2904.000000	97.843039
2903.000000	97.863608
2902.000000	97.886806
2901.000000	97.912263
2900.000000	97.938510
2899.000000	97.963815
2898.000000	97.986936
2897.000000	98.007680
2896.000000	98.026666
2895.000000	98.044340
2894.000000	98.060567
2893.000000	98.075334
2892.000000	98.089285
2891.000000	98.103094
2890.000000	98.116573
2889.000000	98.128679
2888.000000	98.137984
2887.000000	98.142893
2886.000000	98.142249
2885.000000	98.136627
2884.000000	98.128782
2883.000000	98.121866
2882.000000	98.116904
2881.000000	98.112217
2880.000000	98.105148
2879.000000	98.094214
2878.000000	98.080064
2877.000000	98.065015
2876.000000	98.051396
2875.000000	98.039904
2874.000000	98.029753
2873.000000	98.020617
2872.000000	98.013860
2871.000000	98.011183
2870.000000	98.012485
2869.000000	98.015744
2868.000000	98.018766
2867.000000	98.020390
2866.000000	98.020310
2865.000000	98.018562
2864.000000	98.015096
2863.000000	98.009202
2862.000000	97.999548
2861.000000	97.985744
2860.000000	97.969776
2859.000000	97.954961
2858.000000	97.943307
2857.000000	97.934742
2856.000000	97.929104
2855.000000	97.927835
2854.000000	97.933222
2853.000000	97.946538
2852.000000	97.967438
2851.000000	97.994852
2850.000000	98.027901
2849.000000	98.065922
2848.000000	98.107725
2847.000000	98.150885
2846.000000	98.192295
2845.000000	98.230286
2844.000000	98.266103
2843.000000	98.302394
2842.000000	98.339722
2841.000000	98.375004
2840.000000	98.404032
2839.000000	98.425201
2838.000000	98.440430
2837.000000	98.452907
2836.000000	98.464480
2835.000000	98.475220
2834.000000	98.484852
2833.000000	98.493948
2832.000000	98.503465
2831.000000	98.513279
2830.000000	98.521895
2829.000000	98.528171
2828.000000	98.532949
2827.000000	98.538309
2826.000000	98.545316
2825.000000	98.553230
2824.000000	98.560883
2823.000000	98.567864
2822.000000	98.574056
2821.000000	98.578963
2820.000000	98.582264
2819.000000	98.584580
2818.000000	98.586997
2817.000000	98.589962
2816.000000	98.593052
2815.000000	98.595659
2814.000000	98.597620
2813.000000	98.599377
2812.000000	98.601766
2811.000000	98.605454
2810.000000	98.610463
2809.000000	98.616615
2808.000000	98.624396
2807.000000	98.634378
2806.000000	98.645175
2805.000000	98.652950
2804.000000	98.654370
2803.000000	98.650204
2802.000000	98.645056
2801.000000	98.643351
2800.000000	98.646087
2799.000000	98.651247
2798.000000	98.656205
2797.000000	98.659330
2796.000000	98.660306
2795.000000	98.660002
2794.000000	98.659871
2793.000000	98.660807
2792.000000	98.662507
2791.000000	98.664228
2790.000000	98.666107
2789.000000	98.669448
2788.000000	98.675723
2787.000000	98.685332
2786.000000	98.696932
2785.000000	98.707709
2784.000000	98.714752
2783.000000	98.716915
2782.000000	98.715558
2781.000000	98.713258
2780.000000	98.711803
2779.000000	98.711578
2778.000000	98.712350
2777.000000	98.713774
2776.000000	98.715144
2775.000000	98.715651
2774.000000	98.715549
2773.000000	98.716665
2772.000000	98.721000
2771.000000	98.728679
2770.000000	98.737536
2769.000000	98.744741
2768.000000	98.748839
2767.000000	98.750516
2766.000000	98.751671
2765.000000	98.753556
2764.000000	98.755665
2763.000000	98.756629
2762.000000	98.756282
2761.000000	98.756338
2760.000000	98.758621
2759.000000	98.763073
2758.000000	98.768028
2757.000000	98.772095
2756.000000	98.775062
2755.000000	98.777236
2754.000000	98.778833
2753.000000	98.780198
2752.000000	98.781761
2751.000000	98.783309
2750.000000	98.783803
2749.000000	98.782422
2748.000000	98.779653
2747.000000	98.777140
2746.000000	98.776668
2745.000000	98.779377
2744.000000	98.785455
2743.000000	98.793993
2742.000000	98.803096
2741.000000	98.810471
2740.000000	98.814428
2739.000000	98.814737
2738.000000	98.812712
2737.000000	98.810310
2736.000000	98.808985
2735.000000	98.809477
2734.000000	98.812356
2733.000000	98.817800
2732.000000	98.824402
2731.000000	98.829279
2730.000000	98.830680
2729.000000	98.830265
2728.000000	98.831578
2727.000000	98.836170
2726.000000	98.842170
2725.000000	98.846646
2724.000000	98.848324
2723.000000	98.847825
2722.000000	98.846455
2721.000000	98.845455
2720.000000	98.845650
2719.000000	98.847087
2718.000000	98.849303
2717.000000	98.851992
2716.000000	98.854824
2715.000000	98.856747
2714.000000	98.856657
2713.000000	98.855016
2712.000000	98.853610
2711.000000	98.853255
2710.000000	98.853003
2709.000000	98.852199
2708.000000	98.851876
2707.000000	98.853050
2706.000000	98.854930
2705.000000	98.856221
2704.000000	98.857134
2703.000000	98.858545
2702.000000	98.859980
2701.000000	98.860268
2700.000000	98.859808
2699.000000	98.860362
2698.000000	98.862558
2697.000000	98.865160
2696.000000	98.867049
2695.000000	98.868505
2694.000000	98.870112
2693.000000	98.871652
2692.000000	98.872643
2691.000000	98.873079
2690.000000	98.873176
2689.000000	98.873114
2688.000000	98.873330
2687.000000	98.874364
2686.000000	98.876131
2685.000000	98.877995
2684.000000	98.879680
2683.000000	98.881319
2682.000000	98.882515
2681.000000	98.882350
2680.000000	98.880772
2679.000000	98.879162
2678.000000	98.879008
2677.000000	98.880632
2676.000000	98.883484
2675.000000	98.886835
2674.000000	98.889680
2673.000000	98.890870
2672.000000	98.890264
2671.000000	98.889355
2670.000000	98.889874
2669.000000	98.891804
2668.000000	98.893302
2667.000000	98.892547
2666.000000	98.889267
2665.000000	98.884613
2664.000000	98.880004
2663.000000	98.876187
2662.000000	98.873157
2661.000000	98.870694
2660.000000	98.868792
2659.000000	98.867552
2658.000000	98.866954
2657.000000	98.867078
2656.000000	98.868418
2655.000000	98.871486
2654.000000	98.876028
2653.000000	98.881001
2652.000000	98.885361
2651.000000	98.888604
2650.000000	98.890653
2649.000000	98.891777
2648.000000	98.892764
2647.000000	98.894710
2646.000000	98.898355
2645.000000	98.903712
2644.000000	98.910102
2643.000000	98.916094
2642.000000	98.919772
2641.000000	98.920116
2640.000000	98.918563
2639.000000	98.918520
2638.000000	98.922665
2637.000000	98.930667
2636.000000	98.939466
2635.000000	98.945487
2634.000000	98.946926
2633.000000	98.944933
2632.000000	98.942988
2631.000000	98.944432
2630.000000	98.949892
2629.000000	98.957152
2628.000000	98.963599
2627.000000	98.968455
2626.000000	98.972682
2625.000000	98.977314
2624.000000	98.982131
2623.000000	98.985525
2622.000000	98.985569
2621.000000	98.981816
2620.000000	98.976342
2619.000000	98.972653
2618.000000	98.973410
2617.000000	98.979162
2616.000000	98.988514
2615.000000	98.998575
2614.000000	99.005942
2613.000000	99.009122
2612.000000	99.010345
2611.000000	99.013367
2610.000000	99.018818
2609.000000	99.023215
2608.000000	99.023443
2607.000000	99.020770
2606.000000	99.019016
2605.000000	99.019963
2604.000000	99.022373
2603.000000	99.024704
2602.000000	99.026634
2601.000000	99.027762
2600.000000	99.026927
2599.000000	99.023987
2598.000000	99.021323
2597.000000	99.022365
2596.000000	99.028504
2595.000000	99.037716
2594.000000	99.045981
2593.000000	99.050151
2592.000000	99.050288
2591.000000	99.049852
2590.000000	99.053034
2589.000000	99.060735
2588.000000	99.068819
2587.000000	99.071438
2586.000000	99.067132
2585.000000	99.061176
2584.000000	99.060544
2583.000000	99.066120
2582.000000	99.071406
2581.000000	99.069876
2580.000000	99.062487
2579.000000	99.056297
2578.000000	99.056082
2577.000000	99.059500
2576.000000	99.060977
2575.000000	99.058656
2574.000000	99.055997
2573.000000	99.057053
2572.000000	99.061611
2571.000000	99.065555
2570.000000	99.065764
2569.000000	99.064014
2568.000000	99.065261
2567.000000	99.071868
2566.000000	99.080584
2565.000000	99.086292
2564.000000	99.088075
2563.000000	99.089778
2562.000000	99.094526
2561.000000	99.100658
2560.000000	99.104102
2559.000000	99.103697
2558.000000	99.102616
2557.000000	99.104714
2556.000000	99.110326
2555.000000	99.115912
2554.000000	99.117691
2553.000000	99.115515
2552.000000	99.112778
2551.000000	99.112222
2550.000000	99.112492
2549.000000	99.109923
2548.000000	99.103318
2547.000000	99.095682
2546.000000	99.091286
2545.000000	99.092454
2544.000000	99.099224
2543.000000	99.110012
2542.000000	99.121460
2541.000000	99.129180
2540.000000	99.130504
2539.000000	99.126341
2538.000000	99.119831
2537.000000	99.113994
2536.000000	99.111254
2535.000000	99.113546
2534.000000	99.120751
2533.000000	99.129249
2532.000000	99.133776
2531.000000	99.131561
2530.000000	99.124307
2529.000000	99.116359
2528.000000	99.111440
2527.000000	99.110463
2526.000000	99.111087
2525.000000	99.109261
2524.000000	99.102420
2523.000000	99.092194
2522.000000	99.083910
2521.000000	99.082959
2520.000000	99.091100
2519.000000	99.105405
2518.000000	99.119804
2517.000000	99.128027
2516.000000	99.126853
2515.000000	99.118193
2514.000000	99.108226
2513.000000	99.103466
2512.000000	99.106405
2511.000000	99.114338
2510.000000	99.122261
2509.000000	99.126752
2508.000000	99.127172
2507.000000	99.124004
2506.000000	99.117650
2505.000000	99.109572
2504.000000	99.103406
2503.000000	99.103120
2502.000000	99.109688
2501.000000	99.120259
2500.000000	99.130592
2499.000000	99.137796
2498.000000	99.141361
2497.000000	99.143044
2496.000000	99.145834
2495.000000	99.151204
2494.000000	99.156513
2493.000000	99.156809
2492.000000	99.150678
2491.000000	99.143069
2490.000000	99.140603
2489.000000	99.144754
2488.000000	99.151758
2487.000000	99.158754
2486.000000	99.166957
2485.000000	99.177621
2484.000000	99.187387
2483.000000	99.190660
2482.000000	99.186150
2481.000000	99.178409
2480.000000	99.172312
2479.000000	99.167711
2478.000000	99.160900
2477.000000	99.150434
2476.000000	99.139880
2475.000000	99.134821
2474.000000	99.137978
2473.000000	99.147366
2472.000000	99.158382
2471.000000	99.167498
2470.000000	99.174238
2469.000000	99.179832
2468.000000	99.184153
2467.000000	99.184792
2466.000000	99.179977
2465.000000	99.172026
2464.000000	99.166569
2463.000000	99.167629
2462.000000	99.173961
2461.000000	99.180457
2460.000000	99.182903
2459.000000	99.181187
2458.000000	99.178361
2457.000000	99.177109
2456.000000	99.177182
2455.000000	99.176499
2454.000000	99.174798
2453.000000	99.175207
2452.000000	99.180996
2451.000000	99.191212
2450.000000	99.201057
2449.000000	99.206682
2448.000000	99.208082
2447.000000	99.207123
2446.000000	99.204786
2445.000000	99.201564
2444.000000	99.198723
2443.000000	99.197007
2442.000000	99.195035
2441.000000	99.191004
2440.000000	99.185822
2439.000000	99.182706
2438.000000	99.183440
2437.000000	99.186320
2436.000000	99.188169
2435.000000	99.187456
2434.000000	99.185084
2433.000000	99.183015
2432.000000	99.182659
2431.000000	99.184146
2430.000000	99.186788
2429.000000	99.190150
2428.000000	99.194559
2427.000000	99.200524
2426.000000	99.207940
2425.000000	99.215805
2424.000000	99.222075
2423.000000	99.223822
2422.000000	99.219011
2421.000000	99.209157
2420.000000	99.199299
2419.000000	99.193979
2418.000000	99.193498
2417.000000	99.194923
2416.000000	99.196110
2415.000000	99.197474
2414.000000	99.200315
2413.000000	99.204987
2412.000000	99.210895
2411.000000	99.217061
2410.000000	99.222377
2409.000000	99.226188
2408.000000	99.228815
2407.000000	99.230577
2406.000000	99.230264
2405.000000	99.225913
2404.000000	99.217842
2403.000000	99.209910
2402.000000	99.206430
2401.000000	99.207849
2400.000000	99.210154
2399.000000	99.208905
2398.000000	99.203692
2397.000000	99.198366
2396.000000	99.196971
2395.000000	99.199901
2394.000000	99.204206
2393.000000	99.207081
2392.000000	99.208028
2391.000000	99.207849
2390.000000	99.207160
2389.000000	99.206960
2388.000000	99.209747
2387.000000	99.218159
2386.000000	99.231872
2385.000000	99.246399
2384.000000	99.255860
2383.000000	99.257786
2382.000000	99.255565
2381.000000	99.256170
2380.000000	99.264252
2379.000000	99.277598
2378.000000	99.288983
2377.000000	99.293110
2376.000000	99.291510
2375.000000	99.289950
2374.000000	99.291747
2373.000000	99.294663
2372.000000	99.293909
2371.000000	99.286899
2370.000000	99.275235
2369.000000	99.263248
2368.000000	99.254589
2367.000000	99.250237
2366.000000	99.250025
2365.000000	99.255235
2364.000000	99.267051
2363.000000	99.281757
2362.000000	99.290917
2361.000000	99.288236
2360.000000	99.274953
2359.000000	99.259466
2358.000000	99.251320
2357.000000	99.254319
2356.000000	99.263583
2355.000000	99.269230
2354.000000	99.266510
2353.000000	99.258766
2352.000000	99.251397
2351.000000	99.246560
2350.000000	99.244228
2349.000000	99.243764
2348.000000	99.243491
2347.000000	99.240404
2346.000000	99.230979
2345.000000	99.216326
2344.000000	99.205632
2343.000000	99.207269
2342.000000	99.220471
2341.000000	99.236615
2340.000000	99.246017
2339.000000	99.244017
2338.000000	99.233123
2337.000000	99.220379
2336.000000	99.212046
2335.000000	99.210597
2334.000000	99.214906
2333.000000	99.221801
2332.000000	99.225904
2331.000000	99.222834
2330.000000	99.212811
2329.000000	99.201502
2328.000000	99.191817
2327.000000	99.180353
2326.000000	99.162193
2325.000000	99.140028
2324.000000	99.123776
2323.000000	99.121094
2322.000000	99.129979
2321.000000	99.142782
2320.000000	99.154386
2319.000000	99.163823
2318.000000	99.169862
2317.000000	99.171642
2316.000000	99.170945
2315.000000	99.171537
2314.000000	99.174229
2313.000000	99.178038
2312.000000	99.183508
2311.000000	99.192787
2310.000000	99.203982
2309.000000	99.211355
2308.000000	99.211492
2307.000000	99.207635
2306.000000	99.204744
2305.000000	99.203726
2304.000000	99.201843
2303.000000	99.197572
2302.000000	99.191783
2301.000000	99.185684
2300.000000	99.179280
2299.000000	99.172711
2298.000000	99.166432
2297.000000	99.160972
2296.000000	99.156511
2295.000000	99.154046
2294.000000	99.154732
2293.000000	99.158389
2292.000000	99.162730
2291.000000	99.165529
2290.000000	99.166554
2289.000000	99.166534
2288.000000	99.164349
2287.000000	99.157087
2286.000000	99.144103
2285.000000	99.129735
2284.000000	99.120597
2283.000000	99.120389
2282.000000	99.128650
2281.000000	99.142581
2280.000000	99.157423
2279.000000	99.166229
2278.000000	99.164251
2277.000000	99.155078
2276.000000	99.148923
2275.000000	99.152725
2274.000000	99.164487
2273.000000	99.178293
2272.000000	99.190783
2271.000000	99.200697
2270.000000	99.206781
2269.000000	99.210353
2268.000000	99.216745
2267.000000	99.229316
2266.000000	99.243696
2265.000000	99.252021
2264.000000	99.251501
2263.000000	99.245289
2262.000000	99.236565
2261.000000	99.225658
2260.000000	99.212026
2259.000000	99.196382
2258.000000	99.182322
2257.000000	99.177217
2256.000000	99.187502
2255.000000	99.209724
2254.000000	99.230379
2253.000000	99.239435
2252.000000	99.240556
2251.000000	99.243203
2250.000000	99.248980
2249.000000	99.252322
2248.000000	99.250760
2247.000000	99.246451
2246.000000	99.239367
2245.000000	99.227489
2244.000000	99.214026
2243.000000	99.207122
2242.000000	99.210989
2241.000000	99.222545
2240.000000	99.236653
2239.000000	99.249135
2238.000000	99.255012
2237.000000	99.250830
2236.000000	99.240127
2235.000000	99.231361
2234.000000	99.229657
2233.000000	99.235018
2232.000000	99.246457
2231.000000	99.260600
2230.000000	99.267133
2229.000000	99.255866
2228.000000	99.231717
2227.000000	99.214672
2226.000000	99.220196
2225.000000	99.244543
2224.000000	99.272189
2223.000000	99.292132
2222.000000	99.302936
2221.000000	99.306752
2220.000000	99.304293
2219.000000	99.295492
2218.000000	99.283448
2217.000000	99.277504
2216.000000	99.289014
2215.000000	99.318973
2214.000000	99.351851
2213.000000	99.368249
2212.000000	99.364145
2211.000000	99.351487
2210.000000	99.339552
2209.000000	99.324639
2208.000000	99.301170
2207.000000	99.274947
2206.000000	99.258874
2205.000000	99.257977
2204.000000	99.263322
2203.000000	99.261161
2202.000000	99.247631
2201.000000	99.234391
2200.000000	99.237465
2199.000000	99.258365
2198.000000	99.280006
2197.000000	99.285324
2196.000000	99.276588
2195.000000	99.269799
2194.000000	99.273748
2193.000000	99.282887
2192.000000	99.288264
2191.000000	99.285229
2190.000000	99.270341
2189.000000	99.243618
2188.000000	99.217658
2187.000000	99.213477
2186.000000	99.239454
2185.000000	99.280330
2184.000000	99.313885
2183.000000	99.335055
2182.000000	99.355367
2181.000000	99.379508
2180.000000	99.391529
2179.000000	99.369798
2178.000000	99.314321
2177.000000	99.255217
2176.000000	99.229131
2175.000000	99.245539
2174.000000	99.280639
2173.000000	99.305241
2172.000000	99.310882
2171.000000	99.305642
2170.000000	99.295468
2169.000000	99.278314
2168.000000	99.250573
2167.000000	99.211511
2166.000000	99.166210
2165.000000	99.130244
2164.000000	99.122714
2163.000000	99.145957
2162.000000	99.183570
2161.000000	99.229860
2160.000000	99.306564
2159.000000	99.426351
2158.000000	99.549123
2157.000000	99.615295
2156.000000	99.616765
2155.000000	99.595521
2154.000000	99.584898
2153.000000	99.583583
2152.000000	99.576215
2151.000000	99.554606
2150.000000	99.520943
2149.000000	99.487531
2148.000000	99.473318
2147.000000	99.485355
2146.000000	99.503508
2145.000000	99.497735
2144.000000	99.462254
2143.000000	99.419238
2142.000000	99.389571
2141.000000	99.375225
2140.000000	99.370632
2139.000000	99.375656
2138.000000	99.390120
2137.000000	99.406470
2136.000000	99.416583
2135.000000	99.420424
2134.000000	99.422085
2133.000000	99.422080
2132.000000	99.418195
2131.000000	99.410071
2130.000000	99.399619
2129.000000	99.389198
2128.000000	99.380453
2127.000000	99.372909
2126.000000	99.364245
2125.000000	99.354128
2124.000000	99.345799
2123.000000	99.340491
2122.000000	99.332983
2121.000000	99.318006
2120.000000	99.299308
2119.000000	99.285827
2118.000000	99.279439
2117.000000	99.273263
2116.000000	99.262745
2115.000000	99.251810
2114.000000	99.245643
2113.000000	99.243485
2112.000000	99.241874
2111.000000	99.240283
2110.000000	99.239288
2109.000000	99.236658
2108.000000	99.230069
2107.000000	99.222390
2106.000000	99.220350
2105.000000	99.227380
2104.000000	99.239651
2103.000000	99.250128
2102.000000	99.256326
2101.000000	99.262955
2100.000000	99.275575
2099.000000	99.292732
2098.000000	99.308188
2097.000000	99.320934
2096.000000	99.336648
2095.000000	99.355528
2094.000000	99.365838
2093.000000	99.357057
2092.000000	99.335034
2091.000000	99.315617
2090.000000	99.306600
2089.000000	99.303374
2088.000000	99.299834
2087.000000	99.295362
2086.000000	99.291003
2085.000000	99.287123
2084.000000	99.286049
2083.000000	99.290370
2082.000000	99.297310
2081.000000	99.300864
2080.000000	99.300232
2079.000000	99.299778
2078.000000	99.299903
2077.000000	99.295151
2076.000000	99.283167
2075.000000	99.268991
2074.000000	99.258891
2073.000000	99.256067
2072.000000	99.262883
2071.000000	99.279599
2070.000000	99.299180
2069.000000	99.311514
2068.000000	99.316323
2067.000000	99.324220
2066.000000	99.341010
2065.000000	99.357249
2064.000000	99.358442
2063.000000	99.341714
2062.000000	99.318200
2061.000000	99.303543
2060.000000	99.307565
2059.000000	99.327761
2058.000000	99.352058
2057.000000	99.371414
2056.000000	99.387894
2055.000000	99.404465
2054.000000	99.410325
2053.000000	99.388783
2052.000000	99.341023
2051.000000	99.290538
2050.000000	99.261741
2049.000000	99.261115
2048.000000	99.279106
2047.000000	99.302082
2046.000000	99.318364
2045.000000	99.321431
2044.000000	99.314987
2043.000000	99.308623
2042.000000	99.305106
2041.000000	99.300066
2040.000000	99.295731
2039.000000	99.302532
2038.000000	99.323291
2037.000000	99.348556
2036.000000	99.372460
2035.000000	99.401114
2034.000000	99.436716
2033.000000	99.465741
2032.000000	99.473705
2031.000000	99.461186
2030.000000	99.436200
2029.000000	99.403766
2028.000000	99.371959
2027.000000	99.357017
2026.000000	99.371468
2025.000000	99.409341
2024.000000	99.446612
2023.000000	99.457068
2022.000000	99.432038
2021.000000	99.392354
2020.000000	99.376511
2019.000000	99.403976
2018.000000	99.451361
2017.000000	99.474399
2016.000000	99.455360
2015.000000	99.415661
2014.000000	99.384193
2013.000000	99.374845
2012.000000	99.390883
2011.000000	99.430279
2010.000000	99.483526
2009.000000	99.539354
2008.000000	99.593949
2007.000000	99.641832
2006.000000	99.660871
2005.000000	99.629710
2004.000000	99.561773
2003.000000	99.497350
2002.000000	99.459393
2001.000000	99.435113
2000.000000	99.403215
1999.000000	99.363812
1998.000000	99.334940
1997.000000	99.331765
1996.000000	99.356379
1995.000000	99.399588
1994.000000	99.444135
1993.000000	99.470354
1992.000000	99.468102
1991.000000	99.442852
1990.000000	99.406166
1989.000000	99.366464
1988.000000	99.330672
1987.000000	99.306185
1986.000000	99.298933
1985.000000	99.313314
1984.000000	99.349896
1983.000000	99.395527
1982.000000	99.421123
1981.000000	99.404151
1980.000000	99.357833
1979.000000	99.327306
1978.000000	99.351526
1977.000000	99.430451
1976.000000	99.526836
1975.000000	99.595193
1974.000000	99.611226
1973.000000	99.587513
1972.000000	99.562243
1971.000000	99.559056
1970.000000	99.563985
1969.000000	99.553552
1968.000000	99.532502
1967.000000	99.522885
1966.000000	99.524811
1965.000000	99.519196
1964.000000	99.506500
1963.000000	99.510679
1962.000000	99.542373
1961.000000	99.580439
1960.000000	99.596776
1959.000000	99.584921
1958.000000	99.557638
1957.000000	99.532231
1956.000000	99.522270
1955.000000	99.528749
1954.000000	99.535712
1953.000000	99.526379
1952.000000	99.505407
1951.000000	99.494024
1950.000000	99.502559
1949.000000	99.520310
1948.000000	99.533570
1947.000000	99.539987
1946.000000	99.541509
1945.000000	99.535926
1944.000000	99.521527
1943.000000	99.502552
1942.000000	99.485599
1941.000000	99.476579
1940.000000	99.481249
1939.000000	99.499405
1938.000000	99.518870
1937.000000	99.524149
1936.000000	99.512806
1935.000000	99.494621
1934.000000	99.475237
1933.000000	99.452667
1932.000000	99.429349
1931.000000	99.414666
1930.000000	99.411571
1929.000000	99.411689
1928.000000	99.408752
1927.000000	99.406618
1926.000000	99.410526
1925.000000	99.418800
1924.000000	99.429228
1923.000000	99.445163
1922.000000	99.467070
1921.000000	99.485476
1920.000000	99.488423
1919.000000	99.471298
1918.000000	99.441113
1917.000000	99.412397
1916.000000	99.396378
1915.000000	99.393810
1914.000000	99.398073
1913.000000	99.404428
1912.000000	99.415286
1911.000000	99.433883
1910.000000	99.453780
1909.000000	99.462096
1908.000000	99.455796
1907.000000	99.445133
1906.000000	99.440095
1905.000000	99.441915
1904.000000	99.448859
1903.000000	99.461106
1902.000000	99.476174
1901.000000	99.487805
1900.000000	99.494026
1899.000000	99.499224
1898.000000	99.505543
1897.000000	99.508368
1896.000000	99.504305
1895.000000	99.498306
1894.000000	99.497497
1893.000000	99.502584
1892.000000	99.508867
1891.000000	99.511476
1890.000000	99.508414
1889.000000	99.502383
1888.000000	99.500073
1887.000000	99.505088
1886.000000	99.511668
1885.000000	99.510891
1884.000000	99.502919
1883.000000	99.496925
1882.000000	99.497933
1881.000000	99.501970
1880.000000	99.505493
1879.000000	99.510257
1878.000000	99.516699
1877.000000	99.520015
1876.000000	99.516851
1875.000000	99.511320
1874.000000	99.510453
1873.000000	99.517249
1872.000000	99.530201
1871.000000	99.544639
1870.000000	99.552845
1869.000000	99.549002
1868.000000	99.536071
1867.000000	99.522672
1866.000000	99.511930
1865.000000	99.500861
1864.000000	99.489432
1863.000000	99.482404
1862.000000	99.481801
1861.000000	99.483958
1860.000000	99.486396
1859.000000	99.491390
1858.000000	99.499681
1857.000000	99.506729
1856.000000	99.509142
1855.000000	99.509191
1854.000000	99.509671
1853.000000	99.509021
1852.000000	99.505349
1851.000000	99.499149
1850.000000	99.492337
1849.000000	99.489076
1848.000000	99.495889
1847.000000	99.514886
1846.000000	99.535568
1845.000000	99.540209
1844.000000	99.524693
1843.000000	99.504776
1842.000000	99.493460
1841.000000	99.489178
1840.000000	99.487304
1839.000000	99.487788
1838.000000	99.491433
1837.000000	99.496102
1836.000000	99.501715
1835.000000	99.512467
1834.000000	99.529013
1833.000000	99.544695
1832.000000	99.551668
1831.000000	99.547021
1830.000000	99.535539
1829.000000	99.523226
1828.000000	99.513259
1827.000000	99.507594
1826.000000	99.505058
1825.000000	99.503253
1824.000000	99.501457
1823.000000	99.500853
1822.000000	99.501855
1821.000000	99.503302
1820.000000	99.505625
1819.000000	99.511028
1818.000000	99.519798
1817.000000	99.528720
1816.000000	99.535370
1815.000000	99.540326
1814.000000	99.542386
1813.000000	99.537604
1812.000000	99.525142
1811.000000	99.511358
1810.000000	99.502961
1809.000000	99.498918
1808.000000	99.495284
1807.000000	99.492128
1806.000000	99.491072
1805.000000	99.491411
1804.000000	99.492428
1803.000000	99.495997
1802.000000	99.502363
1801.000000	99.507728
1800.000000	99.508012
1799.000000	99.504417
1798.000000	99.501270
1797.000000	99.501477
1796.000000	99.506874
1795.000000	99.517620
1794.000000	99.527328
1793.000000	99.526868
1792.000000	99.517216
1791.000000	99.509073
1790.000000	99.507789
1789.000000	99.509720
1788.000000	99.511296
1787.000000	99.513441
1786.000000	99.517446
1785.000000	99.521561
1784.000000	99.524809
1783.000000	99.529347
1782.000000	99.533594
1781.000000	99.533089
1780.000000	99.528138
1779.000000	99.526054
1778.000000	99.532625
1777.000000	99.546433
1776.000000	99.564581
1775.000000	99.585169
1774.000000	99.600253
1773.000000	99.597341
1772.000000	99.578467
1771.000000	99.558757
1770.000000	99.543374
1769.000000	99.525894
1768.000000	99.505089
1767.000000	99.490689
1766.000000	99.488360
1765.000000	99.490086
1764.000000	99.482057
1763.000000	99.455339
1762.000000	99.411458
1761.000000	99.360762
1760.000000	99.311910
1759.000000	99.263744
1758.000000	99.203041
1757.000000	99.118680
1756.000000	99.021676
1755.000000	98.932715
1754.000000	98.852219
1753.000000	98.760990
1752.000000	98.645779
1751.000000	98.518242
1750.000000	98.398640
1749.000000	98.286611
1748.000000	98.179520
1747.000000	98.091860
1746.000000	98.033535
1745.000000	97.998843
1744.000000	97.982746
1743.000000	97.989193
1742.000000	98.017612
1741.000000	98.056989
1740.000000	98.103271
1739.000000	98.164520
1738.000000	98.237358
1737.000000	98.309461
1736.000000	98.377267
1735.000000	98.451538
1734.000000	98.553315
1733.000000	98.668242
1732.000000	98.770075
1731.000000	98.861537
1730.000000	98.948959
1729.000000	99.030764
1728.000000	99.105207
1727.000000	99.174753
1726.000000	99.240547
1725.000000	99.299505
1724.000000	99.349610
1723.000000	99.395026
1722.000000	99.438835
1721.000000	99.475648
1720.000000	99.496747
1719.000000	99.499137
1718.000000	99.495961
1717.000000	99.500614
1716.000000	99.506578
1715.000000	99.505192
1714.000000	99.492769
1713.000000	99.469514
1712.000000	99.441022
1711.000000	99.415679
1710.000000	99.394176
1709.000000	99.378016
1708.000000	99.354566
1707.000000	99.330550
1706.000000	99.216347
1705.000000	99.161028
1704.000000	99.116300
1703.000000	99.061691
1702.000000	99.009156
1701.000000	98.943874
1700.000000	98.865222
1699.000000	98.787400
1698.000000	98.715817
1697.000000	98.636000
1696.000000	98.543425
1695.000000	98.455429
1694.000000	98.382676
1693.000000	98.315320
1692.000000	98.245292
1691.000000	98.174550
1690.000000	98.106742
1689.000000	98.040557
1688.000000	97.973608
1687.000000	97.906962
1686.000000	97.840215
1685.000000	97.767440
1684.000000	97.687243
1683.000000	97.609748
1682.000000	97.534597
1681.000000	97.452636
1680.000000	97.363745
1679.000000	97.274408
1678.000000	97.188041
1677.000000	97.096972
1676.000000	97.003358
1675.000000	96.907136
1674.000000	96.860168
1673.000000	96.792954
1672.000000	96.715328
1671.000000	96.624188
1670.000000	96.507785
1669.000000	96.378569
1668.000000	96.255467
1667.000000	96.156448
1666.000000	96.077771
1665.000000	95.999724
1664.000000	95.902760
1663.000000	95.790173
1662.000000	95.683401
1661.000000	95.590663
1660.000000	95.507763
1659.000000	95.435338
1658.000000	95.375831
1657.000000	95.323300
1656.000000	95.269718
1655.000000	95.202582
1654.000000	95.102542
1653.000000	95.003143
1652.000000	94.952580
1651.000000	94.943519
1650.000000	94.940947
1649.000000	94.912911
1648.000000	94.849486
1647.000000	94.773088
1646.000000	94.713756
1645.000000	94.672078
1644.000000	94.638820
1643.000000	94.611757
1642.000000	94.590863
1641.000000	94.575237
1640.000000	94.562925
1639.000000	94.553253
1638.000000	94.545356
1637.000000	94.531113
1636.000000	94.507000
1635.000000	94.482516
1634.000000	94.464019
1633.000000	94.449771
1632.000000	94.437713
1631.000000	94.431500
1630.000000	94.435322
1629.000000	94.449026
1628.000000	94.473032
1627.000000	94.509358
1626.000000	94.556218
1625.000000	94.609308
1624.000000	94.669299
1623.000000	94.743254
1622.000000	94.825542
1621.000000	94.898764
1620.000000	94.956411
1619.000000	95.006477
1618.000000	95.067662
1617.000000	95.162529
1616.000000	95.288061
1615.000000	95.408350
1614.000000	95.503710
1613.000000	95.583327
1612.000000	95.663864
1611.000000	95.753577
1610.000000	95.847614
1609.000000	95.939950
1608.000000	96.032514
1607.000000	96.126987
1606.000000	96.217184
1605.000000	96.297827
1604.000000	96.370612
1603.000000	96.437661
1602.000000	96.497865
1601.000000	96.552203
1600.000000	96.605124
1599.000000	96.657430
1598.000000	96.704445
1597.000000	96.744069
1596.000000	96.780066
1595.000000	96.814752
1594.000000	96.844537
1593.000000	96.866521
1592.000000	96.883611
1591.000000	96.899391
1590.000000	96.912993
1589.000000	96.922089
1588.000000	96.925901
1587.000000	96.923139
1586.000000	96.912135
1585.000000	96.894894
1584.000000	96.876643
1583.000000	96.858707
1582.000000	96.838969
1581.000000	96.818302
1580.000000	96.798204
1579.000000	96.773302
1578.000000	96.733084
1577.000000	96.673971
1576.000000	96.614546
1575.000000	96.575535
1574.000000	96.550941
1573.000000	96.527328
1572.000000	96.498280
1571.000000	96.454762
1570.000000	96.389654
1569.000000	96.314923
1568.000000	96.249719
1567.000000	96.193656
1566.000000	96.131730
1565.000000	96.058395
1564.000000	95.986925
1563.000000	95.931660
1562.000000	95.896157
1561.000000	95.868963
1560.000000	95.803881
1559.000000	95.700516
1558.000000	95.606602
1557.000000	95.526345
1556.000000	95.453059
1555.000000	95.381883
1554.000000	95.311939
1553.000000	95.246453
1552.000000	95.184484
1551.000000	95.124189
1550.000000	95.068573
1549.000000	95.020931
1548.000000	94.979813
1547.000000	94.942314
1546.000000	94.908509
1545.000000	94.885078
1544.000000	94.878281
1543.000000	94.879801
1542.000000	94.869773
1541.000000	94.837127
1540.000000	94.802898
1539.000000	94.788597
1538.000000	94.788598
1537.000000	94.792650
1536.000000	94.793656
1535.000000	94.791572
1534.000000	94.795886
1533.000000	94.814146
1532.000000	94.833551
1531.000000	94.844821
1530.000000	94.854177
1529.000000	94.866917
1528.000000	94.887211
1527.000000	94.920288
1526.000000	94.963037
1525.000000	94.999576
1524.000000	95.017297
1523.000000	95.022549
1522.000000	95.043859
1521.000000	95.099846
1520.000000	95.162865
1519.000000	95.204752
1518.000000	95.228354
1517.000000	95.251448
1516.000000	95.283392
1515.000000	95.315659
1514.000000	95.344157
1513.000000	95.377170
1512.000000	95.423830
1511.000000	95.484334
1510.000000	95.550153
1509.000000	95.615583
1508.000000	95.687919
1507.000000	95.789387
1506.000000	95.896256
1505.000000	95.967130
1504.000000	96.016368
1503.000000	96.062997
1502.000000	96.115082
1501.000000	96.177013
1500.000000	96.243482
1499.000000	96.306159
1498.000000	96.364788
1497.000000	96.427062
1496.000000	96.495284
1495.000000	96.566196
1494.000000	96.636675
1493.000000	96.703041
1492.000000	96.762600
1491.000000	96.818485
1490.000000	96.877070
1489.000000	96.932183
1488.000000	96.971286
1487.000000	96.996302
1486.000000	97.013699
1485.000000	97.021741
1484.000000	97.019420
1483.000000	97.011455
1482.000000	97.003672
1481.000000	96.996083
1480.000000	96.984234
1479.000000	96.966045
1478.000000	96.940530
1477.000000	96.905693
1476.000000	96.863064
1475.000000	96.818228
1474.000000	96.768338
1473.000000	96.702387
1472.000000	96.620826
1471.000000	96.538489
1470.000000	96.464626
1469.000000	96.398046
1468.000000	96.338068
1467.000000	96.285510
1466.000000	96.235637
1465.000000	96.181561
1464.000000	96.126617
1463.000000	96.081124
1462.000000	96.048263
1461.000000	96.019971
1460.000000	95.985593
1459.000000	95.936245
1458.000000	95.864925
1457.000000	95.778484
1456.000000	95.703225
1455.000000	95.655007
1454.000000	95.621533
1453.000000	95.589982
1452.000000	95.564251
1451.000000	95.551143
1450.000000	95.547048
1449.000000	95.543890
1448.000000	95.540758
1447.000000	95.541540
1446.000000	95.545481
1445.000000	95.550908
1444.000000	95.559280
1443.000000	95.572324
1442.000000	95.589638
1441.000000	95.608951
1440.000000	95.628544
1439.000000	95.648324
1438.000000	95.670379
1437.000000	95.700060
1436.000000	95.738814
1435.000000	95.776236
1434.000000	95.806524
1433.000000	95.834646
1432.000000	95.866482
1431.000000	95.901841
1430.000000	95.934164
1429.000000	95.957796
1428.000000	95.972762
1427.000000	95.983267
1426.000000	95.992602
1425.000000	96.003390
1424.000000	96.016138
1423.000000	96.024572
1422.000000	96.023666
1421.000000	96.016720
1420.000000	96.011133
1419.000000	96.013288
1418.000000	96.019255
1417.000000	96.020378
1416.000000	96.017259
1415.000000	96.014593
1414.000000	96.013719
1413.000000	96.013304
1412.000000	96.012308
1411.000000	96.010530
1410.000000	96.007612
1409.000000	96.003257
1408.000000	95.997229
1407.000000	95.989724
1406.000000	95.980958
1405.000000	95.972416
1404.000000	95.965950
1403.000000	95.960728
1402.000000	95.955010
1401.000000	95.949067
1400.000000	95.946977
1399.000000	95.952045
1398.000000	95.959009
1397.000000	95.960381
1396.000000	95.957192
1395.000000	95.956288
1394.000000	95.960177
1393.000000	95.967009
1392.000000	95.976620
1391.000000	95.989153
1390.000000	96.002933
1389.000000	96.017459
1388.000000	96.036099
1387.000000	96.061582
1386.000000	96.089023
1385.000000	96.112289
1384.000000	96.132667
1383.000000	96.154898
1382.000000	96.180916
1381.000000	96.209818
1380.000000	96.242386
1379.000000	96.280664
1378.000000	96.323045
1377.000000	96.365949
1376.000000	96.410192
1375.000000	96.460445
1374.000000	96.515519
1373.000000	96.565960
1372.000000	96.606395
1371.000000	96.640786
1370.000000	96.674417
1369.000000	96.710722
1368.000000	96.751935
1367.000000	96.796985
1366.000000	96.841184
1365.000000	96.880360
1364.000000	96.915272
1363.000000	96.950502
1362.000000	96.986639
1361.000000	97.018403
1360.000000	97.042686
1359.000000	97.060619
1358.000000	97.073213
1357.000000	97.080408
1356.000000	97.083022
1355.000000	97.083115
1354.000000	97.081978
1353.000000	97.079042
1352.000000	97.073099
1351.000000	97.063901
1350.000000	97.051219
1349.000000	97.034237
1348.000000	97.012063
1347.000000	96.984284
1346.000000	96.951396
1345.000000	96.915197
1344.000000	96.878222
1343.000000	96.841718
1342.000000	96.805238
1341.000000	96.769702
1340.000000	96.739525
1339.000000	96.718123
1338.000000	96.703149
1337.000000	96.690899
1336.000000	96.682652
1335.000000	96.682848
1334.000000	96.693127
1333.000000	96.711031
1332.000000	96.733679
1331.000000	96.759795
1330.000000	96.787925
1329.000000	96.815739
1328.000000	96.842293
1327.000000	96.868620
1326.000000	96.894830
1325.000000	96.918511
1324.000000	96.936830
1323.000000	96.949181
1322.000000	96.957304
1321.000000	96.963491
1320.000000	96.969139
1319.000000	96.974445
1318.000000	96.979186
1317.000000	96.984367
1316.000000	96.992899
1315.000000	97.007609
1314.000000	97.028255
1313.000000	97.051013
1312.000000	97.071428
1311.000000	97.087864
1310.000000	97.102217
1309.000000	97.118004
1308.000000	97.137934
1307.000000	97.162309
1306.000000	97.188833
1305.000000	97.214277
1304.000000	97.236396
1303.000000	97.254454
1302.000000	97.268962
1301.000000	97.281538
1300.000000	97.294528
1299.000000	97.309927
1298.000000	97.328239
1297.000000	97.348047
1296.000000	97.366094
1295.000000	97.377786
1294.000000	97.379560
1293.000000	97.372061
1292.000000	97.360305
1291.000000	97.349089
1290.000000	97.337608
1289.000000	97.320459
1288.000000	97.294678
1287.000000	97.264340
1286.000000	97.236878
1285.000000	97.215926
1284.000000	97.200109
1283.000000	97.187836
1282.000000	97.180082
1281.000000	97.177433
1280.000000	97.176521
1279.000000	97.171769
1278.000000	97.160852
1277.000000	97.147159
1276.000000	97.135990
1275.000000	97.129036
1274.000000	97.123457
1273.000000	97.115713
1272.000000	97.104595
1271.000000	97.090076
1270.000000	97.070925
1269.000000	97.045736
1268.000000	97.015829
1267.000000	96.984698
1266.000000	96.953921
1265.000000	96.921044
1264.000000	96.882865
1263.000000	96.839913
1262.000000	96.796384
1261.000000	96.756239
1260.000000	96.720387
1259.000000	96.687045
1258.000000	96.653752
1257.000000	96.619387
1256.000000	96.584952
1255.000000	96.552185
1254.000000	96.521042
1253.000000	96.489021
1252.000000	96.453291
1251.000000	96.412982
1250.000000	96.369414
1249.000000	96.325011
1248.000000	96.282035
1247.000000	96.241044
1246.000000	96.200316
1245.000000	96.157784
1244.000000	96.113675
1243.000000	96.070175
1242.000000	96.028924
1241.000000	95.990600
1240.000000	95.956829
1239.000000	95.930123
1238.000000	95.911194
1237.000000	95.899115
1236.000000	95.894438
1235.000000	95.899513
1234.000000	95.914781
1233.000000	95.936650
1232.000000	95.961213
1231.000000	95.988453
1230.000000	96.021963
1229.000000	96.065806
1228.000000	96.121320
1227.000000	96.186300
1226.000000	96.256660
1225.000000	96.329410
1224.000000	96.403796
1223.000000	96.478862
1222.000000	96.551957
1221.000000	96.621023
1220.000000	96.686945
1219.000000	96.751702
1218.000000	96.814919
1217.000000	96.873319
1216.000000	96.922864
1215.000000	96.960902
1214.000000	96.987241
1213.000000	97.004740
1212.000000	97.017261
1211.000000	97.025602
1210.000000	97.026543
1209.000000	97.016674
1208.000000	96.996919
1207.000000	96.972007
1206.000000	96.946518
1205.000000	96.923080
1204.000000	96.903487
1203.000000	96.889509
1202.000000	96.882207
1201.000000	96.881916
1200.000000	96.888617
1199.000000	96.901161
1198.000000	96.916590
1197.000000	96.932309
1196.000000	96.948967
1195.000000	96.969118
1194.000000	96.993171
1193.000000	97.018011
1192.000000	97.039655
1191.000000	97.056287
1190.000000	97.069178
1189.000000	97.081623
1188.000000	97.096205
1187.000000	97.111670
1186.000000	97.122988
1185.000000	97.126269
1184.000000	97.122783
1183.000000	97.116922
1182.000000	97.111102
1181.000000	97.104030
1180.000000	97.093449
1179.000000	97.078328
1178.000000	97.058798
1177.000000	97.036287
1176.000000	97.013592
1175.000000	96.992951
1174.000000	96.973861
1173.000000	96.954663
1172.000000	96.935848
1171.000000	96.919162
1170.000000	96.903640
1169.000000	96.885623
1168.000000	96.863506
1167.000000	96.839842
1166.000000	96.818114
1165.000000	96.800004
1164.000000	96.786986
1163.000000	96.781825
1162.000000	96.786066
1161.000000	96.797966
1160.000000	96.814450
1159.000000	96.834569
1158.000000	96.860809
1157.000000	96.897237
1156.000000	96.946321
1155.000000	97.005693
1154.000000	97.068836
1153.000000	97.131254
1152.000000	97.194672
1151.000000	97.263141
1150.000000	97.336023
1149.000000	97.408170
1148.000000	97.476561
1147.000000	97.542979
1146.000000	97.609915
1145.000000	97.677214
1144.000000	97.743665
1143.000000	97.808722
1142.000000	97.871438
1141.000000	97.929729
1140.000000	97.982206
1139.000000	98.029561
1138.000000	98.072979
1137.000000	98.112606
1136.000000	98.147835
1135.000000	98.177800
1134.000000	98.201723
1133.000000	98.220281
1132.000000	98.237103
1131.000000	98.256142
1130.000000	98.276331
1129.000000	98.291866
1128.000000	98.299703
1127.000000	98.304566
1126.000000	98.313422
1125.000000	98.326434
1124.000000	98.337024
1123.000000	98.340140
1122.000000	98.337356
1121.000000	98.333266
1120.000000	98.329381
1119.000000	98.322817
1118.000000	98.309138
1117.000000	98.286143
1116.000000	98.255976
1115.000000	98.223260
1114.000000	98.190345
1113.000000	98.155532
1112.000000	98.118255
1111.000000	98.084176
1110.000000	98.061334
1109.000000	98.051654
1108.000000	98.050112
1107.000000	98.052065
1106.000000	98.057095
1105.000000	98.065122
1104.000000	98.072897
1103.000000	98.076633
1102.000000	98.075200
1101.000000	98.068598
1100.000000	98.055756
1099.000000	98.036309
1098.000000	98.012709
1097.000000	97.988355
1096.000000	97.964898
1095.000000	97.942315
1094.000000	97.919931
1093.000000	97.896542
1092.000000	97.872074
1091.000000	97.850097
1090.000000	97.835362
1089.000000	97.826608
1088.000000	97.815240
1087.000000	97.794852
1086.000000	97.769887
1085.000000	97.751417
1084.000000	97.745314
1083.000000	97.748377
1082.000000	97.755586
1081.000000	97.766540
1080.000000	97.784031
1079.000000	97.809533
1078.000000	97.842513
1077.000000	97.882337
1076.000000	97.927885
1075.000000	97.976022
1074.000000	98.022215
1073.000000	98.062788
1072.000000	98.095915
1071.000000	98.121335
1070.000000	98.139918
1069.000000	98.152848
1068.000000	98.160932
1067.000000	98.165302
1066.000000	98.168735
1065.000000	98.173966
1064.000000	98.180003
1063.000000	98.182384
1062.000000	98.178648
1061.000000	98.172589
1060.000000	98.171541
1059.000000	98.180001
1058.000000	98.196674
1057.000000	98.216658
1056.000000	98.235226
1055.000000	98.250278
1054.000000	98.262835
1053.000000	98.275292
1052.000000	98.288305
1051.000000	98.299565
1050.000000	98.306424
1049.000000	98.309138
1048.000000	98.310857
1047.000000	98.314915
1046.000000	98.322372
1045.000000	98.331262
1044.000000	98.337683
1043.000000	98.338907
1042.000000	98.336030
1041.000000	98.332224
1040.000000	98.327280
1039.000000	98.315091
1038.000000	98.288447
1037.000000	98.245971
1036.000000	98.194108
1035.000000	98.143610
1034.000000	98.104521
1033.000000	98.081809
1032.000000	98.073053
1031.000000	98.070711
1030.000000	98.068818
1029.000000	98.068607
1028.000000	98.076260
1027.000000	98.095367
1026.000000	98.122841
1025.000000	98.151887
1024.000000	98.177558
1023.000000	98.199436
1022.000000	98.220871
1021.000000	98.245518
1020.000000	98.272923
1019.000000	98.297744
1018.000000	98.315335
1017.000000	98.327854
1016.000000	98.342329
1015.000000	98.362921
1014.000000	98.387896
1013.000000	98.414377
1012.000000	98.442438
1011.000000	98.472624
1010.000000	98.502668
1009.000000	98.529749
1008.000000	98.554581
1007.000000	98.580676
1006.000000	98.609943
1005.000000	98.640755
1004.000000	98.670084
1003.000000	98.696457
1002.000000	98.721031
1001.000000	98.746419
1000.000000	98.774184
999.000000	98.803050
998.000000	98.829935
997.000000	98.852774
996.000000	98.871512
995.000000	98.886917
994.000000	98.900094
993.000000	98.913164
992.000000	98.928401
991.000000	98.945600
990.000000	98.961530
989.000000	98.972887
988.000000	98.979069
987.000000	98.981909
986.000000	98.984068
985.000000	98.987840
984.000000	98.993469
983.000000	98.997791
982.000000	98.996709
981.000000	98.990589
980.000000	98.985626
979.000000	98.987639
978.000000	98.995206
977.000000	99.000523
976.000000	98.996257
975.000000	98.980896
974.000000	98.959226
973.000000	98.939872
972.000000	98.931284
971.000000	98.936784
970.000000	98.952223
969.000000	98.969791
968.000000	98.984343
967.000000	98.995489
966.000000	99.005179
965.000000	99.015322
964.000000	99.027182
963.000000	99.040719
962.000000	99.054348
961.000000	99.067180
960.000000	99.081009
959.000000	99.097909
958.000000	99.116492
957.000000	99.133363
956.000000	99.148385
955.000000	99.165016
954.000000	99.184568
953.000000	99.203567
952.000000	99.218512
951.000000	99.230276
950.000000	99.241104
949.000000	99.249808
948.000000	99.253292
947.000000	99.251890
946.000000	99.249869
945.000000	99.250473
944.000000	99.253083
943.000000	99.255447
942.000000	99.256654
941.000000	99.257150
940.000000	99.257332
939.000000	99.256987
938.000000	99.255626
937.000000	99.253597
936.000000	99.253444
935.000000	99.259106
934.000000	99.272046
933.000000	99.288743
932.000000	99.303957
931.000000	99.316082
930.000000	99.327056
929.000000	99.337200
928.000000	99.343027
927.000000	99.341796
926.000000	99.336196
925.000000	99.332251
924.000000	99.333353
923.000000	99.337942
922.000000	99.342967
921.000000	99.348190
920.000000	99.356549
919.000000	99.370647
918.000000	99.389266
917.000000	99.407988
916.000000	99.423388
915.000000	99.435833
914.000000	99.447284
913.000000	99.457224
912.000000	99.463220
911.000000	99.465825
910.000000	99.470249
909.000000	99.481065
908.000000	99.496548
907.000000	99.510597
906.000000	99.519260
905.000000	99.522953
904.000000	99.522635
903.000000	99.517301
902.000000	99.507584
901.000000	99.499856
900.000000	99.503248
899.000000	99.520996
898.000000	99.545935
897.000000	99.566152
896.000000	99.575141
895.000000	99.575894
894.000000	99.575398
893.000000	99.577152
892.000000	99.580017
891.000000	99.581959
890.000000	99.581370
889.000000	99.574312
888.000000	99.553853
887.000000	99.514927
886.000000	99.459820
885.000000	99.396912
884.000000	99.333760
883.000000	99.272186
882.000000	99.209049
881.000000	99.140845
880.000000	99.067584
879.000000	98.992916
878.000000	98.921134
877.000000	98.855205
876.000000	98.798229
875.000000	98.755526
874.000000	98.733362
873.000000	98.735433
872.000000	98.762015
871.000000	98.811052
870.000000	98.877873
869.000000	98.954083
868.000000	99.028748
867.000000	99.092745
866.000000	99.142668
865.000000	99.180884
864.000000	99.212189
863.000000	99.240357
862.000000	99.266396
861.000000	99.288840
860.000000	99.305751
859.000000	99.316885
858.000000	99.324409
857.000000	99.331511
856.000000	99.340494
855.000000	99.351913
854.000000	99.364522
853.000000	99.375895
852.000000	99.383873
851.000000	99.388176
850.000000	99.390744
849.000000	99.394570
848.000000	99.402190
847.000000	99.414380
846.000000	99.429085
845.000000	99.442151
844.000000	99.451140
843.000000	99.458909
842.000000	99.471404
841.000000	99.490426
840.000000	99.510268
839.000000	99.523528
838.000000	99.529202
837.000000	99.532238
836.000000	99.535741
835.000000	99.537902
834.000000	99.537912
833.000000	99.540548
832.000000	99.550613
831.000000	99.564906
830.000000	99.574721
829.000000	99.576610
828.000000	99.576230
827.000000	99.579427
826.000000	99.583788
825.000000	99.582475
824.000000	99.573143
823.000000	99.559155
822.000000	99.544413
821.000000	99.531591
820.000000	99.523686
819.000000	99.522357
818.000000	99.525469
817.000000	99.530513
816.000000	99.539377
815.000000	99.554550
814.000000	99.571095
813.000000	99.579048
812.000000	99.575680
811.000000	99.569341
810.000000	99.568020
809.000000	99.569381
808.000000	99.566967
807.000000	99.561687
806.000000	99.560607
805.000000	99.566299
804.000000	99.573331
803.000000	99.575632
802.000000	99.572859
801.000000	99.568712
800.000000	99.566146
799.000000	99.564856
798.000000	99.561934
797.000000	99.555524
796.000000	99.548901
795.000000	99.548688
794.000000	99.556370
793.000000	99.564073
792.000000	99.562678
791.000000	99.552582
790.000000	99.542437
789.000000	99.537873
788.000000	99.535967
787.000000	99.531381
786.000000	99.524108
785.000000	99.519646
784.000000	99.523778
783.000000	99.537943
782.000000	99.557618
781.000000	99.574687
780.000000	99.583110
779.000000	99.582908
778.000000	99.577993
777.000000	99.570853
776.000000	99.561076
775.000000	99.548303
774.000000	99.534342
773.000000	99.522548
772.000000	99.516704
771.000000	99.519665
770.000000	99.530656
769.000000	99.544520
768.000000	99.555963
767.000000	99.563924
766.000000	99.569567
765.000000	99.571320
764.000000	99.565799
763.000000	99.553928
762.000000	99.542109
761.000000	99.535445
760.000000	99.532363
759.000000	99.527647
758.000000	99.518558
757.000000	99.505742
756.000000	99.490037
755.000000	99.471926
754.000000	99.454631
753.000000	99.444564
752.000000	99.445427
751.000000	99.452158
750.000000	99.453789
749.000000	99.444346
748.000000	99.429070
747.000000	99.417677
746.000000	99.413578
745.000000	99.412997
744.000000	99.412739
743.000000	99.412990
742.000000	99.412538
741.000000	99.408179
740.000000	99.401540
739.000000	99.400176
738.000000	99.407136
737.000000	99.414027
736.000000	99.409464
735.000000	99.391265
734.000000	99.365714
733.000000	99.338775
732.000000	99.314254
731.000000	99.297295
730.000000	99.291424
729.000000	99.292096
728.000000	99.290661
727.000000	99.285477
726.000000	99.282268
725.000000	99.282470
724.000000	99.278029
723.000000	99.260783
722.000000	99.232487
721.000000	99.202714
720.000000	99.179164
719.000000	99.161514
718.000000	99.142626
717.000000	99.113435
716.000000	99.067870
715.000000	99.007046
714.000000	98.940951
713.000000	98.885303
712.000000	98.853899
711.000000	98.849545
710.000000	98.860957
709.000000	98.871711
708.000000	98.875010
707.000000	98.878049
706.000000	98.889486
705.000000	98.906682
704.000000	98.919357
703.000000	98.921760
702.000000	98.916403
701.000000	98.908049
700.000000	98.899985
699.000000	98.895659
698.000000	98.896986
697.000000	98.900260
696.000000	98.899060
695.000000	98.892028
694.000000	98.885119
693.000000	98.885229
692.000000	98.894391
691.000000	98.911042
690.000000	98.931913
689.000000	98.951309
688.000000	98.961925
687.000000	98.958672
686.000000	98.941427
685.000000	98.913688
684.000000	98.880628
683.000000	98.848283
682.000000	98.821446
681.000000	98.802310
680.000000	98.791543
679.000000	98.789738
678.000000	98.794692
677.000000	98.798806
676.000000	98.795849
675.000000	98.787101
674.000000	98.778158
673.000000	98.772776
672.000000	98.771306
671.000000	98.777605
670.000000	98.798239
669.000000	98.834976
668.000000	98.855445
667.000000	98.831482
666.000000	98.798471
665.000000	98.778952
664.000000	98.764770
663.000000	98.750999
662.000000	98.736150
661.000000	98.724053
660.000000	98.723112
659.000000	98.739470
658.000000	98.764489
657.000000	98.777650
656.000000	98.768726
655.000000	98.747718
654.000000	98.730271
653.000000	98.720997
652.000000	98.715131
651.000000	98.707315
650.000000	98.693081
649.000000	98.670451
648.000000	98.646928
647.000000	98.636861
646.000000	98.644057
645.000000	98.654681
644.000000	98.654094
643.000000	98.643498
642.000000	98.634107
641.000000	98.630941
640.000000	98.630558
639.000000	98.630789
638.000000	98.632734
637.000000	98.635287
636.000000	98.635001
635.000000	98.630474
634.000000	98.623564
633.000000	98.617191
632.000000	98.613037
631.000000	98.608173
630.000000	98.593844
629.000000	98.565446
628.000000	98.536073
627.000000	98.530655
626.000000	98.558343
625.000000	98.597360
624.000000	98.616388
623.000000	98.604595
622.000000	98.574492
621.000000	98.543572
620.000000	98.522267
619.000000	98.513706
618.000000	98.512979
617.000000	98.508026
616.000000	98.491387
615.000000	98.470764
614.000000	98.459975
613.000000	98.461748
612.000000	98.467354
611.000000	98.471818
610.000000	98.481106
609.000000	98.502314
608.000000	98.532130
607.000000	98.556550
606.000000	98.561064
605.000000	98.544058
604.000000	98.521195
603.000000	98.512963
602.000000	98.524721
601.000000	98.541302
600.000000	98.544067
599.000000	98.530284
598.000000	98.513655
597.000000	98.509575
596.000000	98.523525
595.000000	98.549527
594.000000	98.574776
593.000000	98.589037
592.000000	98.592426
591.000000	98.592114
590.000000	98.592640
589.000000	98.594797
588.000000	98.601530
587.000000	98.614605
586.000000	98.625643
585.000000	98.621681
584.000000	98.602585
583.000000	98.581621
582.000000	98.565137
581.000000	98.545993
580.000000	98.523711
579.000000	98.515810
578.000000	98.535930
577.000000	98.570969
576.000000	98.591932
575.000000	98.583054
574.000000	98.553146
573.000000	98.522062
572.000000	98.506532
571.000000	98.513031
570.000000	98.530389
569.000000	98.536146
568.000000	98.520520
567.000000	98.495885
566.000000	98.476452
565.000000	98.459562
564.000000	98.437708
563.000000	98.417787
562.000000	98.413390
561.000000	98.424904
560.000000	98.438955
559.000000	98.442106
558.000000	98.427492
557.000000	98.397906
556.000000	98.371147
555.000000	98.371269
554.000000	98.401420
553.000000	98.435722
552.000000	98.450007
551.000000	98.447081
550.000000	98.440773
549.000000	98.431450
548.000000	98.415219
547.000000	98.403898
546.000000	98.413365
545.000000	98.437802
544.000000	98.455906
543.000000	98.457587
542.000000	98.447678
541.000000	98.430872
540.000000	98.410132
539.000000	98.394623
538.000000	98.392044
537.000000	98.396617
536.000000	98.397550
535.000000	98.392847
534.000000	98.383498
533.000000	98.363108
532.000000	98.326999
531.000000	98.284359
530.000000	98.247784
529.000000	98.220572
528.000000	98.207530
527.000000	98.224897
526.000000	98.277252
525.000000	98.333138
524.000000	98.353174
523.000000	98.331854
522.000000	98.290436
521.000000	98.250733
520.000000	98.232327
519.000000	98.252393
518.000000	98.303898
517.000000	98.350129
516.000000	98.368498
515.000000	98.380825
514.000000	98.416480
513.000000	98.470105
512.000000	98.517817
511.000000	98.554258
510.000000	98.587873
509.000000	98.613964
508.000000	98.622130
507.000000	98.620583
506.000000	98.623913
505.000000	98.627940
504.000000	98.627218
503.000000	98.644638
502.000000	98.702247
501.000000	98.768025
500.000000	98.786083
499.000000	98.753852
498.000000	98.721921
497.000000	98.725284
496.000000	98.747289
495.000000	98.753265
494.000000	98.731623
493.000000	98.693885
492.000000	98.663567
491.000000	98.672057
490.000000	98.734575
489.000000	98.821342
488.000000	98.876221
487.000000	98.869348
486.000000	98.818409
485.000000	98.764733
484.000000	98.745336
483.000000	98.782153
482.000000	98.867189
481.000000	98.953882
480.000000	98.989649
479.000000	98.965693
478.000000	98.923365
477.000000	98.906207
476.000000	98.920845
475.000000	98.949956
474.000000	98.978455
473.000000	98.997080
472.000000	99.003655
471.000000	99.006534
470.000000	99.009289
469.000000	98.998571
468.000000	98.966354
467.000000	98.937894
466.000000	98.949034
465.000000	98.998883
464.000000	99.059111
463.000000	99.121757
462.000000	99.200120
461.000000	99.291862
460.000000	99.367704
459.000000	99.409105
458.000000	99.433104
457.000000	99.451666
456.000000	99.476333
455.000000	99.524069
454.000000	99.594656
453.000000	99.647787
452.000000	99.632236
451.000000	99.566989
450.000000	99.510453
