PE IR       SUBTECH     SPECTRUM    ASCII       PEDS        4.00        
   -1
3C-YYX-F007_1.ASC
23/09/07
10:58:36.00
23/09/07
11:30:09.00
uco
Sample 007 By uco Date Thursday, September 07 2023
450.000000
#HDR
-1
-1
#GR
cm-1
%T
1.0
0.0
4000.000000
-1.000000
3551
8
98.893219
85.131537
#DATA
4000.000000	98.781150
3999.000000	98.782028
3998.000000	98.779474
3997.000000	98.775177
3996.000000	98.771138
3995.000000	98.768460
3994.000000	98.767018
3993.000000	98.766083
3992.000000	98.764858
3991.000000	98.762669
3990.000000	98.759220
3989.000000	98.755081
3988.000000	98.751645
3987.000000	98.750056
3986.000000	98.750164
3985.000000	98.750895
3984.000000	98.751746
3983.000000	98.753516
3982.000000	98.757070
3981.000000	98.761565
3980.000000	98.764410
3979.000000	98.763145
3978.000000	98.757356
3977.000000	98.749034
3976.000000	98.741493
3975.000000	98.737841
3974.000000	98.739640
3973.000000	98.746153
3972.000000	98.754591
3971.000000	98.761558
3970.000000	98.764992
3969.000000	98.765017
3968.000000	98.763082
3967.000000	98.760385
3966.000000	98.757090
3965.000000	98.753004
3964.000000	98.748578
3963.000000	98.744949
3962.000000	98.742989
3961.000000	98.742542
3960.000000	98.742686
3959.000000	98.742695
3958.000000	98.742564
3957.000000	98.742660
3956.000000	98.743141
3955.000000	98.743807
3954.000000	98.744317
3953.000000	98.744377
3952.000000	98.743919
3951.000000	98.743236
3950.000000	98.742836
3949.000000	98.742970
3948.000000	98.743199
3947.000000	98.742277
3946.000000	98.738709
3945.000000	98.732162
3944.000000	98.725048
3943.000000	98.722028
3942.000000	98.726157
3941.000000	98.735446
3940.000000	98.743986
3939.000000	98.746449
3938.000000	98.741462
3937.000000	98.731409
3936.000000	98.720063
3935.000000	98.711038
3934.000000	98.707844
3933.000000	98.713511
3932.000000	98.728168
3931.000000	98.746897
3930.000000	98.761711
3929.000000	98.766516
3928.000000	98.760403
3927.000000	98.747455
3926.000000	98.734439
3925.000000	98.727350
3924.000000	98.727677
3923.000000	98.731975
3922.000000	98.735735
3921.000000	98.736819
3920.000000	98.735455
3919.000000	98.732622
3918.000000	98.729588
3917.000000	98.728226
3916.000000	98.729704
3915.000000	98.732628
3914.000000	98.733673
3913.000000	98.730882
3912.000000	98.725378
3911.000000	98.720283
3910.000000	98.717727
3909.000000	98.717023
3908.000000	98.715327
3907.000000	98.710121
3906.000000	98.701834
3905.000000	98.694704
3904.000000	98.693871
3903.000000	98.700090
3902.000000	98.708764
3901.000000	98.715008
3900.000000	98.718442
3899.000000	98.721997
3898.000000	98.727261
3897.000000	98.732907
3896.000000	98.736639
3895.000000	98.737240
3894.000000	98.734583
3893.000000	98.729715
3892.000000	98.725390
3891.000000	98.725377
3890.000000	98.730792
3889.000000	98.738003
3888.000000	98.741554
3887.000000	98.739296
3886.000000	98.734602
3885.000000	98.732383
3884.000000	98.732800
3883.000000	98.731617
3882.000000	98.726367
3881.000000	98.719574
3880.000000	98.715780
3879.000000	98.716442
3878.000000	98.718677
3877.000000	98.718955
3876.000000	98.717333
3875.000000	98.717921
3874.000000	98.723749
3873.000000	98.731215
3872.000000	98.732829
3871.000000	98.726793
3870.000000	98.721172
3869.000000	98.724739
3868.000000	98.735549
3867.000000	98.744444
3866.000000	98.746195
3865.000000	98.743165
3864.000000	98.740141
3863.000000	98.739026
3862.000000	98.738650
3861.000000	98.738142
3860.000000	98.737958
3859.000000	98.739296
3858.000000	98.742867
3857.000000	98.747238
3856.000000	98.748232
3855.000000	98.741698
3854.000000	98.729893
3853.000000	98.720938
3852.000000	98.717321
3851.000000	98.714944
3850.000000	98.712193
3849.000000	98.711326
3848.000000	98.714082
3847.000000	98.718701
3846.000000	98.721413
3845.000000	98.719929
3844.000000	98.715647
3843.000000	98.713227
3842.000000	98.716682
3841.000000	98.726301
3840.000000	98.739393
3839.000000	98.752417
3838.000000	98.762124
3837.000000	98.766881
3836.000000	98.767417
3835.000000	98.765356
3834.000000	98.761265
3833.000000	98.754814
3832.000000	98.746497
3831.000000	98.738013
3830.000000	98.730740
3829.000000	98.724867
3828.000000	98.720352
3827.000000	98.718519
3826.000000	98.720803
3825.000000	98.725824
3824.000000	98.729263
3823.000000	98.728371
3822.000000	98.725906
3821.000000	98.727248
3820.000000	98.732000
3819.000000	98.734208
3818.000000	98.730825
3817.000000	98.725061
3816.000000	98.723503
3815.000000	98.727603
3814.000000	98.731332
3813.000000	98.729746
3812.000000	98.724461
3811.000000	98.720122
3810.000000	98.718678
3809.000000	98.718285
3808.000000	98.717454
3807.000000	98.718668
3806.000000	98.724813
3805.000000	98.734061
3804.000000	98.741650
3803.000000	98.745476
3802.000000	98.747740
3801.000000	98.750176
3800.000000	98.749357
3799.000000	98.741681
3798.000000	98.729255
3797.000000	98.718506
3796.000000	98.714248
3795.000000	98.714886
3794.000000	98.715200
3793.000000	98.712678
3792.000000	98.709314
3791.000000	98.708072
3790.000000	98.709548
3789.000000	98.711994
3788.000000	98.713903
3787.000000	98.715750
3786.000000	98.719456
3785.000000	98.726269
3784.000000	98.734801
3783.000000	98.741412
3782.000000	98.742892
3781.000000	98.739034
3780.000000	98.732590
3779.000000	98.726602
3778.000000	98.721570
3777.000000	98.716580
3776.000000	98.712042
3775.000000	98.710106
3774.000000	98.711904
3773.000000	98.715406
3772.000000	98.717365
3771.000000	98.717988
3770.000000	98.721448
3769.000000	98.729927
3768.000000	98.739844
3767.000000	98.745661
3766.000000	98.745279
3765.000000	98.740865
3764.000000	98.735585
3763.000000	98.730593
3762.000000	98.726003
3761.000000	98.723387
3760.000000	98.724149
3759.000000	98.726336
3758.000000	98.726523
3757.000000	98.724816
3756.000000	98.724131
3755.000000	98.726304
3754.000000	98.731794
3753.000000	98.741294
3752.000000	98.754174
3751.000000	98.764806
3750.000000	98.766581
3749.000000	98.761892
3748.000000	98.758785
3747.000000	98.760071
3746.000000	98.763381
3745.000000	98.766253
3744.000000	98.767534
3743.000000	98.765900
3742.000000	98.759516
3741.000000	98.748816
3740.000000	98.737433
3739.000000	98.728474
3738.000000	98.722590
3737.000000	98.721829
3736.000000	98.731857
3735.000000	98.753991
3734.000000	98.778531
3733.000000	98.793693
3732.000000	98.797137
3731.000000	98.794361
3730.000000	98.790274
3729.000000	98.785374
3728.000000	98.778454
3727.000000	98.769665
3726.000000	98.760356
3725.000000	98.751317
3724.000000	98.743370
3723.000000	98.738644
3722.000000	98.738750
3721.000000	98.742767
3720.000000	98.747938
3719.000000	98.751724
3718.000000	98.753176
3717.000000	98.753092
3716.000000	98.752888
3715.000000	98.753434
3714.000000	98.754452
3713.000000	98.755190
3712.000000	98.755852
3711.000000	98.758046
3710.000000	98.762116
3709.000000	98.765496
3708.000000	98.765493
3707.000000	98.762249
3706.000000	98.758528
3705.000000	98.756997
3704.000000	98.758437
3703.000000	98.761951
3702.000000	98.766820
3701.000000	98.773218
3700.000000	98.780857
3699.000000	98.787211
3698.000000	98.788984
3697.000000	98.785414
3696.000000	98.778719
3695.000000	98.771474
3694.000000	98.765108
3693.000000	98.761446
3692.000000	98.763013
3691.000000	98.770571
3690.000000	98.779844
3689.000000	98.783405
3688.000000	98.778285
3687.000000	98.768562
3686.000000	98.758243
3685.000000	98.747499
3684.000000	98.735955
3683.000000	98.724696
3682.000000	98.715770
3681.000000	98.710598
3680.000000	98.709376
3679.000000	98.710048
3678.000000	98.708790
3677.000000	98.704525
3676.000000	98.702866
3675.000000	98.708215
3674.000000	98.714905
3673.000000	98.715388
3672.000000	98.708096
3671.000000	98.698316
3670.000000	98.693968
3669.000000	98.695918
3668.000000	98.697417
3667.000000	98.694124
3666.000000	98.686759
3665.000000	98.677816
3664.000000	98.668901
3663.000000	98.659922
3662.000000	98.650626
3661.000000	98.642302
3660.000000	98.637205
3659.000000	98.635965
3658.000000	98.636968
3657.000000	98.638335
3656.000000	98.639965
3655.000000	98.642386
3654.000000	98.644439
3653.000000	98.643428
3652.000000	98.637366
3651.000000	98.625755
3650.000000	98.608986
3649.000000	98.589385
3648.000000	98.572341
3647.000000	98.561994
3646.000000	98.557182
3645.000000	98.553999
3644.000000	98.550266
3643.000000	98.547036
3642.000000	98.546302
3641.000000	98.547647
3640.000000	98.548150
3639.000000	98.545609
3638.000000	98.540315
3637.000000	98.533265
3636.000000	98.524698
3635.000000	98.515494
3634.000000	98.508330
3633.000000	98.504932
3632.000000	98.502917
3631.000000	98.497370
3630.000000	98.485824
3629.000000	98.471284
3628.000000	98.458802
3627.000000	98.450407
3626.000000	98.445478
3625.000000	98.443541
3624.000000	98.444880
3623.000000	98.448298
3622.000000	98.449735
3621.000000	98.444489
3620.000000	98.430987
3619.000000	98.412699
3618.000000	98.395589
3617.000000	98.383020
3616.000000	98.374167
3615.000000	98.366762
3614.000000	98.359711
3613.000000	98.352683
3612.000000	98.344769
3611.000000	98.334631
3610.000000	98.321843
3609.000000	98.308642
3608.000000	98.299093
3607.000000	98.295153
3606.000000	98.295024
3605.000000	98.295406
3604.000000	98.294233
3603.000000	98.291072
3602.000000	98.286686
3601.000000	98.282480
3600.000000	98.279297
3599.000000	98.275662
3598.000000	98.268184
3597.000000	98.254119
3596.000000	98.234066
3595.000000	98.212739
3594.000000	98.196029
3593.000000	98.186276
3592.000000	98.180424
3591.000000	98.172841
3590.000000	98.159191
3589.000000	98.139622
3588.000000	98.119500
3587.000000	98.105767
3586.000000	98.101068
3585.000000	98.102344
3584.000000	98.104150
3583.000000	98.101547
3582.000000	98.091992
3581.000000	98.076703
3580.000000	98.060312
3579.000000	98.047578
3578.000000	98.039622
3577.000000	98.033921
3576.000000	98.027211
3575.000000	98.018028
3574.000000	98.006508
3573.000000	97.993366
3572.000000	97.979539
3571.000000	97.966121
3570.000000	97.953557
3569.000000	97.941394
3568.000000	97.928857
3567.000000	97.915915
3566.000000	97.903862
3565.000000	97.894204
3564.000000	97.886809
3563.000000	97.880183
3562.000000	97.872994
3561.000000	97.864741
3560.000000	97.855266
3559.000000	97.844113
3558.000000	97.830514
3557.000000	97.814173
3556.000000	97.795799
3555.000000	97.776820
3554.000000	97.758793
3553.000000	97.742975
3552.000000	97.729899
3551.000000	97.718885
3550.000000	97.708466
3549.000000	97.697959
3548.000000	97.688530
3547.000000	97.682147
3546.000000	97.679257
3545.000000	97.677945
3544.000000	97.675311
3543.000000	97.668876
3542.000000	97.657201
3541.000000	97.640766
3540.000000	97.622294
3539.000000	97.605006
3538.000000	97.590036
3537.000000	97.576220
3536.000000	97.562702
3535.000000	97.550553
3534.000000	97.540763
3533.000000	97.531852
3532.000000	97.521113
3531.000000	97.507900
3530.000000	97.494841
3529.000000	97.485425
3528.000000	97.480657
3527.000000	97.478114
3526.000000	97.473896
3525.000000	97.465294
3524.000000	97.452112
3523.000000	97.436276
3522.000000	97.420203
3521.000000	97.405340
3520.000000	97.392077
3519.000000	97.380391
3518.000000	97.369931
3517.000000	97.359722
3516.000000	97.348801
3515.000000	97.337431
3514.000000	97.327015
3513.000000	97.318301
3512.000000	97.310278
3511.000000	97.301416
3510.000000	97.291635
3509.000000	97.282326
3508.000000	97.274482
3507.000000	97.267572
3506.000000	97.260498
3505.000000	97.252797
3504.000000	97.244459
3503.000000	97.235130
3502.000000	97.224410
3501.000000	97.212704
3500.000000	97.200931
3499.000000	97.189611
3498.000000	97.178853
3497.000000	97.168849
3496.000000	97.159460
3495.000000	97.149398
3494.000000	97.136843
3493.000000	97.121457
3492.000000	97.105202
3491.000000	97.090787
3490.000000	97.079621
3489.000000	97.071434
3488.000000	97.065274
3487.000000	97.060019
3486.000000	97.054195
3485.000000	97.046266
3484.000000	97.035554
3483.000000	97.022773
3482.000000	97.009615
3481.000000	96.997859
3480.000000	96.988763
3479.000000	96.982822
3478.000000	96.979591
3477.000000	96.977504
3476.000000	96.974087
3475.000000	96.967131
3474.000000	96.956503
3473.000000	96.944589
3472.000000	96.934056
3471.000000	96.924934
3470.000000	96.914579
3469.000000	96.900844
3468.000000	96.884807
3467.000000	96.869942
3466.000000	96.859092
3465.000000	96.852939
3464.000000	96.850706
3463.000000	96.850978
3462.000000	96.851655
3461.000000	96.850143
3460.000000	96.844427
3459.000000	96.833985
3458.000000	96.819766
3457.000000	96.803700
3456.000000	96.788175
3455.000000	96.775306
3454.000000	96.766225
3453.000000	96.761029
3452.000000	96.759051
3451.000000	96.758934
3450.000000	96.758875
3449.000000	96.757526
3448.000000	96.754734
3447.000000	96.750900
3446.000000	96.745494
3445.000000	96.737004
3444.000000	96.724732
3443.000000	96.710500
3442.000000	96.698327
3441.000000	96.691889
3440.000000	96.691654
3439.000000	96.694234
3438.000000	96.694710
3437.000000	96.690104
3436.000000	96.680940
3435.000000	96.669723
3434.000000	96.658431
3433.000000	96.647634
3432.000000	96.637150
3431.000000	96.626601
3430.000000	96.615639
3429.000000	96.604487
3428.000000	96.594269
3427.000000	96.586091
3426.000000	96.579808
3425.000000	96.574187
3424.000000	96.568166
3423.000000	96.561301
3422.000000	96.553041
3421.000000	96.542492
3420.000000	96.529536
3419.000000	96.515925
3418.000000	96.504681
3417.000000	96.498042
3416.000000	96.495576
3415.000000	96.494068
3414.000000	96.489767
3413.000000	96.481342
3412.000000	96.470406
3411.000000	96.459163
3410.000000	96.448599
3409.000000	96.439552
3408.000000	96.434085
3407.000000	96.433692
3406.000000	96.436282
3405.000000	96.436835
3404.000000	96.431936
3403.000000	96.422815
3402.000000	96.413304
3401.000000	96.405666
3400.000000	96.398973
3399.000000	96.390697
3398.000000	96.378971
3397.000000	96.363847
3396.000000	96.347335
3395.000000	96.332178
3394.000000	96.319818
3393.000000	96.309345
3392.000000	96.298802
3391.000000	96.287563
3390.000000	96.277064
3389.000000	96.269189
3388.000000	96.264446
3387.000000	96.261849
3386.000000	96.260078
3385.000000	96.258078
3384.000000	96.254485
3383.000000	96.247252
3382.000000	96.234856
3381.000000	96.218175
3380.000000	96.200679
3379.000000	96.186020
3378.000000	96.175255
3377.000000	96.166480
3376.000000	96.157005
3375.000000	96.145619
3374.000000	96.132995
3373.000000	96.120576
3372.000000	96.109442
3371.000000	96.099878
3370.000000	96.091318
3369.000000	96.082438
3368.000000	96.071675
3367.000000	96.058380
3366.000000	96.043795
3365.000000	96.030515
3364.000000	96.020308
3363.000000	96.012386
3362.000000	96.004111
3361.000000	95.993475
3360.000000	95.980616
3359.000000	95.966964
3358.000000	95.953428
3357.000000	95.939608
3356.000000	95.924391
3355.000000	95.907051
3354.000000	95.888062
3353.000000	95.869028
3352.000000	95.851587
3351.000000	95.836233
3350.000000	95.822305
3349.000000	95.808821
3348.000000	95.794813
3347.000000	95.779174
3346.000000	95.761270
3345.000000	95.742110
3344.000000	95.724120
3343.000000	95.709194
3342.000000	95.697265
3341.000000	95.686919
3340.000000	95.676557
3339.000000	95.664837
3338.000000	95.651110
3337.000000	95.636113
3336.000000	95.621379
3335.000000	95.607256
3334.000000	95.592349
3333.000000	95.575683
3332.000000	95.558472
3331.000000	95.542748
3330.000000	95.529119
3329.000000	95.516817
3328.000000	95.504980
3327.000000	95.492617
3326.000000	95.478172
3325.000000	95.460985
3324.000000	95.443075
3323.000000	95.427757
3322.000000	95.416187
3321.000000	95.406441
3320.000000	95.395902
3319.000000	95.383304
3318.000000	95.368550
3317.000000	95.352190
3316.000000	95.335833
3315.000000	95.321860
3314.000000	95.311595
3313.000000	95.303962
3312.000000	95.296272
3311.000000	95.286088
3310.000000	95.272640
3309.000000	95.257357
3308.000000	95.243129
3307.000000	95.232016
3306.000000	95.223194
3305.000000	95.213644
3304.000000	95.200945
3303.000000	95.185112
3302.000000	95.168216
3301.000000	95.153328
3300.000000	95.143653
3299.000000	95.140824
3298.000000	95.142977
3297.000000	95.145382
3296.000000	95.143987
3295.000000	95.138212
3294.000000	95.130024
3293.000000	95.121295
3292.000000	95.112803
3291.000000	95.104876
3290.000000	95.097716
3289.000000	95.091112
3288.000000	95.084756
3287.000000	95.079085
3286.000000	95.075323
3285.000000	95.074410
3284.000000	95.075893
3283.000000	95.077968
3282.000000	95.078844
3281.000000	95.078428
3280.000000	95.078768
3279.000000	95.082329
3278.000000	95.089608
3277.000000	95.098617
3276.000000	95.106944
3275.000000	95.114091
3274.000000	95.121411
3273.000000	95.130136
3272.000000	95.139921
3271.000000	95.149214
3270.000000	95.156588
3269.000000	95.161529
3268.000000	95.164325
3267.000000	95.165774
3266.000000	95.167249
3265.000000	95.170764
3264.000000	95.178190
3263.000000	95.189933
3262.000000	95.204465
3261.000000	95.219349
3260.000000	95.232818
3259.000000	95.244489
3258.000000	95.255232
3257.000000	95.266867
3256.000000	95.281468
3255.000000	95.299998
3254.000000	95.321207
3253.000000	95.342190
3252.000000	95.360154
3251.000000	95.373667
3250.000000	95.382694
3249.000000	95.388301
3248.000000	95.392623
3247.000000	95.398418
3246.000000	95.407774
3245.000000	95.420599
3244.000000	95.434303
3243.000000	95.445381
3242.000000	95.451821
3241.000000	95.454408
3240.000000	95.455960
3239.000000	95.459525
3238.000000	95.467164
3237.000000	95.479483
3236.000000	95.495158
3235.000000	95.511172
3234.000000	95.525008
3233.000000	95.537111
3232.000000	95.550056
3231.000000	95.564544
3230.000000	95.577487
3229.000000	95.585185
3228.000000	95.587527
3227.000000	95.587841
3226.000000	95.589275
3225.000000	95.592908
3224.000000	95.598756
3223.000000	95.606688
3222.000000	95.616059
3221.000000	95.625948
3220.000000	95.636254
3219.000000	95.647361
3218.000000	95.658345
3217.000000	95.666910
3216.000000	95.671805
3215.000000	95.674369
3214.000000	95.676808
3213.000000	95.679747
3212.000000	95.682430
3211.000000	95.684789
3210.000000	95.688220
3209.000000	95.694167
3208.000000	95.702618
3207.000000	95.712237
3206.000000	95.721779
3205.000000	95.731143
3204.000000	95.741022
3203.000000	95.751600
3202.000000	95.761961
3201.000000	95.771005
3200.000000	95.778645
3199.000000	95.785695
3198.000000	95.792814
3197.000000	95.799971
3196.000000	95.806649
3195.000000	95.812167
3194.000000	95.816352
3193.000000	95.820742
3192.000000	95.828709
3191.000000	95.842903
3190.000000	95.862225
3189.000000	95.882102
3188.000000	95.898210
3187.000000	95.909537
3186.000000	95.918156
3185.000000	95.927109
3184.000000	95.938537
3183.000000	95.952629
3182.000000	95.967484
3181.000000	95.980614
3180.000000	95.991114
3179.000000	96.000056
3178.000000	96.008857
3177.000000	96.018174
3176.000000	96.028707
3175.000000	96.041714
3174.000000	96.057544
3173.000000	96.074171
3172.000000	96.088183
3171.000000	96.097419
3170.000000	96.102445
3169.000000	96.106059
3168.000000	96.111813
3167.000000	96.122180
3166.000000	96.137061
3165.000000	96.153830
3164.000000	96.169574
3163.000000	96.183459
3162.000000	96.196853
3161.000000	96.211360
3160.000000	96.227126
3159.000000	96.242866
3158.000000	96.257082
3157.000000	96.269218
3156.000000	96.280033
3155.000000	96.290999
3154.000000	96.303184
3153.000000	96.316452
3152.000000	96.329467
3151.000000	96.340418
3150.000000	96.348225
3149.000000	96.353683
3148.000000	96.359298
3147.000000	96.367315
3146.000000	96.377541
3145.000000	96.387662
3144.000000	96.395868
3143.000000	96.402860
3142.000000	96.410986
3141.000000	96.421867
3140.000000	96.435005
3139.000000	96.448237
3138.000000	96.459215
3137.000000	96.466947
3136.000000	96.472252
3135.000000	96.476749
3134.000000	96.481411
3133.000000	96.486493
3132.000000	96.492418
3131.000000	96.499528
3130.000000	96.506731
3129.000000	96.511750
3128.000000	96.513786
3127.000000	96.515267
3126.000000	96.519794
3125.000000	96.528543
3124.000000	96.539444
3123.000000	96.549546
3122.000000	96.557209
3121.000000	96.562253
3120.000000	96.565214
3119.000000	96.566997
3118.000000	96.568538
3117.000000	96.570307
3116.000000	96.572375
3115.000000	96.574901
3114.000000	96.577829
3113.000000	96.579828
3112.000000	96.578649
3111.000000	96.573586
3110.000000	96.567351
3109.000000	96.564270
3108.000000	96.565974
3107.000000	96.569438
3106.000000	96.569807
3105.000000	96.565020
3104.000000	96.557240
3103.000000	96.550008
3102.000000	96.544690
3101.000000	96.539948
3100.000000	96.534220
3099.000000	96.528176
3098.000000	96.524522
3097.000000	96.525346
3096.000000	96.529544
3095.000000	96.532928
3094.000000	96.531349
3093.000000	96.524053
3092.000000	96.513922
3091.000000	96.504696
3090.000000	96.498285
3089.000000	96.494581
3088.000000	96.492740
3087.000000	96.491822
3086.000000	96.490559
3085.000000	96.487636
3084.000000	96.482718
3083.000000	96.476939
3082.000000	96.472104
3081.000000	96.469438
3080.000000	96.469024
3079.000000	96.470039
3078.000000	96.471174
3077.000000	96.470785
3076.000000	96.467213
3075.000000	96.459874
3074.000000	96.450697
3073.000000	96.443952
3072.000000	96.443491
3071.000000	96.449482
3070.000000	96.458277
3069.000000	96.465703
3068.000000	96.470145
3067.000000	96.472575
3066.000000	96.474608
3065.000000	96.477227
3064.000000	96.480506
3063.000000	96.483675
3062.000000	96.485903
3061.000000	96.487768
3060.000000	96.491420
3059.000000	96.498394
3058.000000	96.507618
3057.000000	96.516537
3056.000000	96.523902
3055.000000	96.530496
3054.000000	96.537282
3053.000000	96.544029
3052.000000	96.549950
3051.000000	96.554834
3050.000000	96.559503
3049.000000	96.565846
3048.000000	96.576117
3047.000000	96.590991
3046.000000	96.608068
3045.000000	96.623402
3044.000000	96.634950
3043.000000	96.643777
3042.000000	96.651583
3041.000000	96.658228
3040.000000	96.662756
3039.000000	96.666306
3038.000000	96.672649
3037.000000	96.685177
3036.000000	96.703542
3035.000000	96.723393
3034.000000	96.739431
3033.000000	96.748980
3032.000000	96.753011
3031.000000	96.754411
3030.000000	96.755736
3029.000000	96.758547
3028.000000	96.763811
3027.000000	96.771749
3026.000000	96.781283
3025.000000	96.790377
3024.000000	96.797331
3023.000000	96.801769
3022.000000	96.804738
3021.000000	96.808210
3020.000000	96.813923
3019.000000	96.821816
3018.000000	96.829750
3017.000000	96.835439
3016.000000	96.838559
3015.000000	96.840379
3014.000000	96.841601
3013.000000	96.841412
3012.000000	96.838450
3011.000000	96.831747
3010.000000	96.820954
3009.000000	96.806793
3008.000000	96.791676
3007.000000	96.778829
3006.000000	96.770151
3005.000000	96.764912
3004.000000	96.760298
3003.000000	96.752935
3002.000000	96.740619
3001.000000	96.723953
3000.000000	96.706148
2999.000000	96.690047
2998.000000	96.675045
2997.000000	96.658001
2996.000000	96.637071
2995.000000	96.613303
2994.000000	96.588169
2993.000000	96.561396
2992.000000	96.532247
2991.000000	96.501337
2990.000000	96.469578
2989.000000	96.435907
2988.000000	96.397755
2987.000000	96.353728
2986.000000	96.304833
2985.000000	96.253252
2984.000000	96.200763
2983.000000	96.148275
2982.000000	96.095615
2981.000000	96.041008
2980.000000	95.981665
2979.000000	95.915854
2978.000000	95.844848
2977.000000	95.772263
2976.000000	95.700827
2975.000000	95.629627
2974.000000	95.554755
2973.000000	95.472833
2972.000000	95.383623
2971.000000	95.289231
2970.000000	95.191906
2969.000000	95.093396
2968.000000	94.995671
2967.000000	94.900632
2966.000000	94.809004
2965.000000	94.720865
2964.000000	94.637585
2963.000000	94.562307
2962.000000	94.497757
2961.000000	94.444555
2960.000000	94.402247
2959.000000	94.371315
2958.000000	94.353642
2957.000000	94.351173
2956.000000	94.364846
2955.000000	94.393817
2954.000000	94.434864
2953.000000	94.482694
2952.000000	94.531500
2951.000000	94.576819
2950.000000	94.615232
2949.000000	94.643003
2948.000000	94.655606
2947.000000	94.649466
2946.000000	94.624208
2945.000000	94.583028
2944.000000	94.530783
2943.000000	94.470613
2942.000000	94.402156
2941.000000	94.322661
2940.000000	94.230403
2939.000000	94.127006
2938.000000	94.016602
2937.000000	93.903464
2936.000000	93.790672
2935.000000	93.681005
2934.000000	93.577924
2933.000000	93.484976
2932.000000	93.404081
2931.000000	93.334693
2930.000000	93.274959
2929.000000	93.223427
2928.000000	93.180018
2927.000000	93.145757
2926.000000	93.122038
2925.000000	93.109980
2924.000000	93.109932
2923.000000	93.121796
2922.000000	93.145632
2921.000000	93.181639
2920.000000	93.229298
2919.000000	93.287082
2918.000000	93.354261
2917.000000	93.432622
2916.000000	93.525256
2915.000000	93.632765
2914.000000	93.750876
2913.000000	93.872216
2912.000000	93.990252
2911.000000	94.101891
2910.000000	94.207339
2909.000000	94.308210
2908.000000	94.405499
2907.000000	94.498479
2906.000000	94.585784
2905.000000	94.667819
2904.000000	94.747815
2903.000000	94.829669
2902.000000	94.914977
2901.000000	95.002590
2900.000000	95.090543
2899.000000	95.177397
2898.000000	95.261894
2897.000000	95.342740
2896.000000	95.419308
2895.000000	95.491648
2894.000000	95.559295
2893.000000	95.620951
2892.000000	95.675985
2891.000000	95.725633
2890.000000	95.771597
2889.000000	95.813532
2888.000000	95.848653
2887.000000	95.874094
2886.000000	95.889421
2885.000000	95.896614
2884.000000	95.897822
2883.000000	95.893382
2882.000000	95.881921
2881.000000	95.861876
2880.000000	95.832342
2879.000000	95.792922
2878.000000	95.744090
2877.000000	95.688834
2876.000000	95.633209
2875.000000	95.583937
2874.000000	95.545050
2873.000000	95.516867
2872.000000	95.498005
2871.000000	95.487421
2870.000000	95.484272
2869.000000	95.486187
2868.000000	95.488341
2867.000000	95.484820
2866.000000	95.471571
2865.000000	95.448367
2864.000000	95.417233
2863.000000	95.379097
2862.000000	95.333005
2861.000000	95.279385
2860.000000	95.222648
2859.000000	95.168948
2858.000000	95.121925
2857.000000	95.082313
2856.000000	95.051365
2855.000000	95.032284
2854.000000	95.028305
2853.000000	95.041131
2852.000000	95.072458
2851.000000	95.125765
2850.000000	95.204998
2849.000000	95.311567
2848.000000	95.442510
2847.000000	95.590419
2846.000000	95.744445
2845.000000	95.893184
2844.000000	96.028435
2843.000000	96.147422
2842.000000	96.251450
2841.000000	96.342865
2840.000000	96.423664
2839.000000	96.495489
2838.000000	96.559479
2837.000000	96.615936
2836.000000	96.664701
2835.000000	96.705853
2834.000000	96.740046
2833.000000	96.768607
2832.000000	96.793714
2831.000000	96.817815
2830.000000	96.842069
2829.000000	96.865633
2828.000000	96.886886
2827.000000	96.905183
2826.000000	96.921294
2825.000000	96.936538
2824.000000	96.951898
2823.000000	96.967482
2822.000000	96.982470
2821.000000	96.995923
2820.000000	97.007898
2819.000000	97.019381
2818.000000	97.030964
2817.000000	97.042249
2816.000000	97.052819
2815.000000	97.062992
2814.000000	97.073115
2813.000000	97.082844
2812.000000	97.091893
2811.000000	97.100964
2810.000000	97.111204
2809.000000	97.123069
2808.000000	97.136338
2807.000000	97.150705
2806.000000	97.165450
2805.000000	97.178956
2804.000000	97.189680
2803.000000	97.197800
2802.000000	97.205108
2801.000000	97.213050
2800.000000	97.221382
2799.000000	97.228904
2798.000000	97.235051
2797.000000	97.240517
2796.000000	97.246656
2795.000000	97.254386
2794.000000	97.263465
2793.000000	97.272607
2792.000000	97.280395
2791.000000	97.286233
2790.000000	97.290672
2789.000000	97.295050
2788.000000	97.300787
2787.000000	97.308574
2786.000000	97.317918
2785.000000	97.327603
2784.000000	97.336736
2783.000000	97.345266
2782.000000	97.353533
2781.000000	97.361686
2780.000000	97.369604
2779.000000	97.376984
2778.000000	97.383273
2777.000000	97.387890
2776.000000	97.390840
2775.000000	97.392944
2774.000000	97.395321
2773.000000	97.398847
2772.000000	97.404007
2771.000000	97.410631
2770.000000	97.417417
2769.000000	97.422334
2768.000000	97.424357
2767.000000	97.424843
2766.000000	97.426743
2765.000000	97.432036
2764.000000	97.439878
2763.000000	97.447248
2762.000000	97.451601
2761.000000	97.453064
2760.000000	97.453997
2759.000000	97.456459
2758.000000	97.460449
2757.000000	97.464750
2756.000000	97.468781
2755.000000	97.472889
2754.000000	97.477246
2753.000000	97.481614
2752.000000	97.486163
2751.000000	97.491325
2750.000000	97.496342
2749.000000	97.499010
2748.000000	97.497892
2747.000000	97.494475
2746.000000	97.492307
2745.000000	97.493996
2744.000000	97.499364
2743.000000	97.506265
2742.000000	97.512604
2741.000000	97.517486
2740.000000	97.521013
2739.000000	97.523538
2738.000000	97.525474
2737.000000	97.527730
2736.000000	97.531768
2735.000000	97.538471
2734.000000	97.546862
2733.000000	97.554410
2732.000000	97.558939
2731.000000	97.560141
2730.000000	97.559389
2729.000000	97.558693
2728.000000	97.559979
2727.000000	97.564577
2726.000000	97.572383
2725.000000	97.581363
2724.000000	97.588562
2723.000000	97.592254
2722.000000	97.593235
2721.000000	97.593844
2720.000000	97.595691
2719.000000	97.598509
2718.000000	97.601248
2717.000000	97.603743
2716.000000	97.606697
2715.000000	97.610236
2714.000000	97.613370
2713.000000	97.615259
2712.000000	97.616376
2711.000000	97.617927
2710.000000	97.620544
2709.000000	97.623924
2708.000000	97.627319
2707.000000	97.630067
2706.000000	97.632129
2705.000000	97.634410
2704.000000	97.637774
2703.000000	97.641354
2702.000000	97.642900
2701.000000	97.641729
2700.000000	97.640340
2699.000000	97.641742
2698.000000	97.645868
2697.000000	97.650162
2696.000000	97.653256
2695.000000	97.656219
2694.000000	97.659965
2693.000000	97.663309
2692.000000	97.664385
2691.000000	97.662829
2690.000000	97.659816
2689.000000	97.656872
2688.000000	97.655391
2687.000000	97.656470
2686.000000	97.660178
2685.000000	97.665133
2684.000000	97.669303
2683.000000	97.671254
2682.000000	97.670797
2681.000000	97.669099
2680.000000	97.668320
2679.000000	97.670333
2678.000000	97.675192
2677.000000	97.681039
2676.000000	97.685601
2675.000000	97.687535
2674.000000	97.686652
2673.000000	97.683899
2672.000000	97.681364
2671.000000	97.681136
2670.000000	97.683307
2669.000000	97.685563
2668.000000	97.685571
2667.000000	97.683630
2666.000000	97.682352
2665.000000	97.683705
2664.000000	97.686772
2663.000000	97.688662
2662.000000	97.687436
2661.000000	97.683779
2660.000000	97.679706
2659.000000	97.676196
2658.000000	97.673029
2657.000000	97.670869
2656.000000	97.672124
2655.000000	97.678680
2654.000000	97.689525
2653.000000	97.701669
2652.000000	97.712698
2651.000000	97.721344
2650.000000	97.726516
2649.000000	97.727991
2648.000000	97.728159
2647.000000	97.730901
2646.000000	97.737574
2645.000000	97.745216
2644.000000	97.749662
2643.000000	97.749617
2642.000000	97.747235
2641.000000	97.745750
2640.000000	97.747318
2639.000000	97.752250
2638.000000	97.759185
2637.000000	97.766114
2636.000000	97.771816
2635.000000	97.776342
2634.000000	97.780262
2633.000000	97.784030
2632.000000	97.787985
2631.000000	97.792150
2630.000000	97.796005
2629.000000	97.799339
2628.000000	97.803273
2627.000000	97.809291
2626.000000	97.817031
2625.000000	97.824072
2624.000000	97.828197
2623.000000	97.828854
2622.000000	97.826530
2621.000000	97.822370
2620.000000	97.818955
2619.000000	97.819762
2618.000000	97.826534
2617.000000	97.837731
2616.000000	97.850038
2615.000000	97.860580
2614.000000	97.867605
2613.000000	97.870846
2612.000000	97.872228
2611.000000	97.874707
2610.000000	97.878933
2609.000000	97.882114
2608.000000	97.881504
2607.000000	97.878274
2606.000000	97.876476
2605.000000	97.878665
2604.000000	97.883958
2603.000000	97.889903
2602.000000	97.894706
2601.000000	97.897411
2600.000000	97.897571
2599.000000	97.895815
2598.000000	97.894295
2597.000000	97.895589
2596.000000	97.900754
2595.000000	97.908432
2594.000000	97.915798
2593.000000	97.920470
2592.000000	97.922057
2591.000000	97.922640
2590.000000	97.925794
2589.000000	97.933973
2588.000000	97.945615
2587.000000	97.955264
2586.000000	97.958115
2585.000000	97.954508
2584.000000	97.948882
2583.000000	97.944282
2582.000000	97.939742
2581.000000	97.933490
2580.000000	97.926351
2579.000000	97.920793
2578.000000	97.918523
2577.000000	97.920677
2576.000000	97.928178
2575.000000	97.939589
2574.000000	97.949993
2573.000000	97.954769
2572.000000	97.954207
2571.000000	97.952741
2570.000000	97.954555
2569.000000	97.961465
2568.000000	97.973187
2567.000000	97.986644
2566.000000	97.996055
2565.000000	97.997126
2564.000000	97.991679
2563.000000	97.985818
2562.000000	97.983521
2561.000000	97.983939
2560.000000	97.984472
2559.000000	97.984075
2558.000000	97.983558
2557.000000	97.984773
2556.000000	97.989395
2555.000000	97.996748
2554.000000	98.003414
2553.000000	98.006888
2552.000000	98.008489
2551.000000	98.010356
2550.000000	98.011013
2549.000000	98.007495
2548.000000	98.001042
2547.000000	97.996805
2546.000000	97.997746
2545.000000	98.002325
2544.000000	98.008184
2543.000000	98.014246
2542.000000	98.018490
2541.000000	98.017638
2540.000000	98.010895
2539.000000	98.001277
2538.000000	97.992092
2537.000000	97.984470
2536.000000	97.979064
2535.000000	97.977057
2534.000000	97.977978
2533.000000	97.979076
2532.000000	97.978084
2531.000000	97.974584
2530.000000	97.967925
2529.000000	97.956908
2528.000000	97.943157
2527.000000	97.932157
2526.000000	97.928518
2525.000000	97.931207
2524.000000	97.934835
2523.000000	97.934590
2522.000000	97.929684
2521.000000	97.923563
2520.000000	97.921364
2519.000000	97.925259
2518.000000	97.931493
2517.000000	97.933535
2516.000000	97.928936
2515.000000	97.921566
2514.000000	97.917050
2513.000000	97.917969
2512.000000	97.923639
2511.000000	97.932173
2510.000000	97.941665
2509.000000	97.951315
2508.000000	97.962117
2507.000000	97.974853
2506.000000	97.987201
2505.000000	97.995029
2504.000000	97.997151
2503.000000	97.996843
2502.000000	97.998146
2501.000000	98.002548
2500.000000	98.009454
2499.000000	98.017334
2498.000000	98.024001
2497.000000	98.028453
2496.000000	98.033187
2495.000000	98.042046
2494.000000	98.054747
2493.000000	98.066227
2492.000000	98.072842
2491.000000	98.076602
2490.000000	98.081502
2489.000000	98.087983
2488.000000	98.093518
2487.000000	98.097184
2486.000000	98.100935
2485.000000	98.106555
2484.000000	98.112962
2483.000000	98.117098
2482.000000	98.117221
2481.000000	98.115145
2480.000000	98.114799
2479.000000	98.117858
2478.000000	98.121672
2477.000000	98.122871
2476.000000	98.122029
2475.000000	98.122845
2474.000000	98.127159
2473.000000	98.133058
2472.000000	98.137860
2471.000000	98.140839
2470.000000	98.142822
2469.000000	98.145038
2468.000000	98.148565
2467.000000	98.153109
2466.000000	98.156358
2465.000000	98.156313
2464.000000	98.154163
2463.000000	98.152951
2462.000000	98.153711
2461.000000	98.154981
2460.000000	98.155713
2459.000000	98.156240
2458.000000	98.156550
2457.000000	98.156221
2456.000000	98.156079
2455.000000	98.157581
2454.000000	98.160499
2453.000000	98.163546
2452.000000	98.166941
2451.000000	98.171640
2450.000000	98.176366
2449.000000	98.178640
2448.000000	98.178769
2447.000000	98.179405
2446.000000	98.180842
2445.000000	98.180426
2444.000000	98.177474
2443.000000	98.175010
2442.000000	98.175200
2441.000000	98.176329
2440.000000	98.176180
2439.000000	98.175470
2438.000000	98.175846
2437.000000	98.176752
2436.000000	98.176482
2435.000000	98.174903
2434.000000	98.173383
2433.000000	98.172994
2432.000000	98.173865
2431.000000	98.175341
2430.000000	98.176171
2429.000000	98.175481
2428.000000	98.173859
2427.000000	98.172631
2426.000000	98.172435
2425.000000	98.173671
2424.000000	98.177252
2423.000000	98.182820
2422.000000	98.187123
2421.000000	98.186925
2420.000000	98.183317
2419.000000	98.180648
2418.000000	98.181533
2417.000000	98.185314
2416.000000	98.190808
2415.000000	98.197316
2414.000000	98.203088
2413.000000	98.206180
2412.000000	98.207390
2411.000000	98.209444
2410.000000	98.212960
2409.000000	98.216108
2408.000000	98.218453
2407.000000	98.221528
2406.000000	98.224723
2405.000000	98.224001
2404.000000	98.216748
2403.000000	98.205849
2402.000000	98.197562
2401.000000	98.196584
2400.000000	98.203303
2399.000000	98.213666
2398.000000	98.221485
2397.000000	98.223023
2396.000000	98.220037
2395.000000	98.217075
2394.000000	98.216154
2393.000000	98.215989
2392.000000	98.215484
2391.000000	98.215212
2390.000000	98.215901
2389.000000	98.218381
2388.000000	98.224781
2387.000000	98.236006
2386.000000	98.248183
2385.000000	98.254962
2384.000000	98.254501
2383.000000	98.251689
2382.000000	98.252081
2381.000000	98.256787
2380.000000	98.263207
2379.000000	98.267550
2378.000000	98.265813
2377.000000	98.255651
2376.000000	98.240022
2375.000000	98.226353
2374.000000	98.220244
2373.000000	98.221282
2372.000000	98.225852
2371.000000	98.230884
2370.000000	98.234178
2369.000000	98.235064
2368.000000	98.235215
2367.000000	98.236946
2366.000000	98.239344
2365.000000	98.238708
2364.000000	98.233003
2363.000000	98.222868
2362.000000	98.209399
2361.000000	98.194832
2360.000000	98.184966
2359.000000	98.185681
2358.000000	98.197372
2357.000000	98.214498
2356.000000	98.227716
2355.000000	98.230407
2354.000000	98.225076
2353.000000	98.218402
2352.000000	98.213279
2351.000000	98.209322
2350.000000	98.207467
2349.000000	98.206963
2348.000000	98.205615
2347.000000	98.202148
2346.000000	98.195593
2345.000000	98.185544
2344.000000	98.177030
2343.000000	98.179071
2342.000000	98.192219
2341.000000	98.209007
2340.000000	98.221813
2339.000000	98.226280
2338.000000	98.221052
2337.000000	98.208037
2336.000000	98.192677
2335.000000	98.181535
2334.000000	98.178474
2333.000000	98.181611
2332.000000	98.184871
2331.000000	98.184264
2330.000000	98.182063
2329.000000	98.180823
2328.000000	98.177716
2327.000000	98.165630
2326.000000	98.142232
2325.000000	98.115599
2324.000000	98.099822
2323.000000	98.103392
2322.000000	98.119046
2321.000000	98.130784
2320.000000	98.130516
2319.000000	98.125117
2318.000000	98.126266
2317.000000	98.138698
2316.000000	98.159526
2315.000000	98.182280
2314.000000	98.200398
2313.000000	98.210486
2312.000000	98.215843
2311.000000	98.222567
2310.000000	98.231728
2309.000000	98.237958
2308.000000	98.238374
2307.000000	98.236842
2306.000000	98.237480
2305.000000	98.238347
2304.000000	98.235956
2303.000000	98.231678
2302.000000	98.229424
2301.000000	98.229173
2300.000000	98.228000
2299.000000	98.225277
2298.000000	98.223074
2297.000000	98.221630
2296.000000	98.218116
2295.000000	98.210312
2294.000000	98.199890
2293.000000	98.191678
2292.000000	98.190188
2291.000000	98.195871
2290.000000	98.203611
2289.000000	98.206039
2288.000000	98.199580
2287.000000	98.187395
2286.000000	98.176477
2285.000000	98.173006
2284.000000	98.179451
2283.000000	98.193398
2282.000000	98.208976
2281.000000	98.221333
2280.000000	98.229551
2279.000000	98.233686
2278.000000	98.231939
2277.000000	98.225220
2276.000000	98.221757
2275.000000	98.230031
2274.000000	98.247689
2273.000000	98.263749
2272.000000	98.272383
2271.000000	98.278010
2270.000000	98.286275
2269.000000	98.297098
2268.000000	98.307913
2267.000000	98.316511
2266.000000	98.318179
2265.000000	98.307168
2264.000000	98.284969
2263.000000	98.262189
2262.000000	98.249278
2261.000000	98.248752
2260.000000	98.255960
2259.000000	98.262744
2258.000000	98.261079
2257.000000	98.250319
2256.000000	98.240900
2255.000000	98.243654
2254.000000	98.255608
2253.000000	98.264924
2252.000000	98.269481
2251.000000	98.279419
2250.000000	98.299833
2249.000000	98.322092
2248.000000	98.335780
2247.000000	98.339337
2246.000000	98.335021
2245.000000	98.324528
2244.000000	98.315085
2243.000000	98.319641
2242.000000	98.342597
2241.000000	98.371460
2240.000000	98.388242
2239.000000	98.384803
2238.000000	98.364416
2237.000000	98.336807
2236.000000	98.315458
2235.000000	98.311291
2234.000000	98.323482
2233.000000	98.341911
2232.000000	98.360205
2231.000000	98.378073
2230.000000	98.389441
2229.000000	98.381468
2228.000000	98.352797
2227.000000	98.323089
2226.000000	98.316445
2225.000000	98.340545
2224.000000	98.384644
2223.000000	98.429633
2222.000000	98.457061
2221.000000	98.459160
2220.000000	98.446916
2219.000000	98.439647
2218.000000	98.442388
2217.000000	98.442689
2216.000000	98.432401
2215.000000	98.419660
2214.000000	98.413616
2213.000000	98.411087
2212.000000	98.407413
2211.000000	98.409092
2210.000000	98.424443
2209.000000	98.449862
2208.000000	98.475631
2207.000000	98.498499
2206.000000	98.518319
2205.000000	98.527259
2204.000000	98.513477
2203.000000	98.475250
2202.000000	98.426706
2201.000000	98.390101
2200.000000	98.381359
2199.000000	98.397558
2198.000000	98.418823
2197.000000	98.428784
2196.000000	98.433121
2195.000000	98.450073
2194.000000	98.484194
2193.000000	98.519150
2192.000000	98.535534
2191.000000	98.525429
2190.000000	98.491476
2189.000000	98.448191
2188.000000	98.423537
2187.000000	98.439796
2186.000000	98.487042
2185.000000	98.530151
2184.000000	98.548066
2183.000000	98.553010
2182.000000	98.564952
2181.000000	98.583586
2180.000000	98.594117
2179.000000	98.586234
2178.000000	98.559306
2177.000000	98.521489
2176.000000	98.490179
2175.000000	98.480588
2174.000000	98.488628
2173.000000	98.495215
2172.000000	98.489734
2171.000000	98.477727
2170.000000	98.466241
2169.000000	98.454690
2168.000000	98.439736
2167.000000	98.417783
2166.000000	98.386167
2165.000000	98.355768
2164.000000	98.355179
2163.000000	98.401144
2162.000000	98.472706
2161.000000	98.540826
2160.000000	98.614952
2159.000000	98.719852
2158.000000	98.823911
2157.000000	98.855901
2156.000000	98.804159
2155.000000	98.731704
2154.000000	98.692730
2153.000000	98.685193
2152.000000	98.683068
2151.000000	98.675387
2150.000000	98.664735
2149.000000	98.653594
2148.000000	98.645919
2147.000000	98.644698
2146.000000	98.640098
2145.000000	98.615794
2144.000000	98.572536
2143.000000	98.529698
2142.000000	98.501762
2141.000000	98.489199
2140.000000	98.490585
2139.000000	98.504874
2138.000000	98.520736
2137.000000	98.523574
2136.000000	98.517074
2135.000000	98.519298
2134.000000	98.532607
2133.000000	98.537698
2132.000000	98.522502
2131.000000	98.498774
2130.000000	98.483909
2129.000000	98.482544
2128.000000	98.491125
2127.000000	98.506182
2126.000000	98.520538
2125.000000	98.522257
2124.000000	98.506175
2123.000000	98.480045
2122.000000	98.455048
2121.000000	98.437136
2120.000000	98.429359
2119.000000	98.432235
2118.000000	98.437453
2117.000000	98.430729
2116.000000	98.407257
2115.000000	98.377392
2114.000000	98.352715
2113.000000	98.334306
2112.000000	98.318804
2111.000000	98.307866
2110.000000	98.305142
2109.000000	98.309472
2108.000000	98.316378
2107.000000	98.322464
2106.000000	98.325715
2105.000000	98.326357
2104.000000	98.328658
2103.000000	98.336064
2102.000000	98.344127
2101.000000	98.345390
2100.000000	98.341412
2099.000000	98.341504
2098.000000	98.350721
2097.000000	98.367720
2096.000000	98.392380
2095.000000	98.422488
2094.000000	98.443686
2093.000000	98.439248
2092.000000	98.413458
2091.000000	98.390314
2090.000000	98.385111
2089.000000	98.389781
2088.000000	98.390185
2087.000000	98.385541
2086.000000	98.383123
2085.000000	98.385314
2084.000000	98.389995
2083.000000	98.396008
2082.000000	98.402030
2081.000000	98.406385
2080.000000	98.411508
2079.000000	98.420512
2078.000000	98.427632
2077.000000	98.422963
2076.000000	98.409753
2075.000000	98.404896
2074.000000	98.417209
2073.000000	98.437772
2072.000000	98.455691
2071.000000	98.469836
2070.000000	98.479893
2069.000000	98.479611
2068.000000	98.468028
2067.000000	98.455666
2066.000000	98.452304
2065.000000	98.457644
2064.000000	98.467680
2063.000000	98.479517
2062.000000	98.487036
2061.000000	98.485208
2060.000000	98.481499
2059.000000	98.488193
2058.000000	98.501197
2057.000000	98.504255
2056.000000	98.496580
2055.000000	98.495460
2054.000000	98.504837
2053.000000	98.505064
2052.000000	98.485118
2051.000000	98.462689
2050.000000	98.459380
2049.000000	98.473458
2048.000000	98.492564
2047.000000	98.517673
2046.000000	98.552189
2045.000000	98.580470
2044.000000	98.581855
2043.000000	98.557659
2042.000000	98.528251
2041.000000	98.513401
2040.000000	98.524050
2039.000000	98.558618
2038.000000	98.597903
2037.000000	98.619605
2036.000000	98.629136
2035.000000	98.657312
2034.000000	98.715173
2033.000000	98.775178
2032.000000	98.811610
2031.000000	98.831102
2030.000000	98.842549
2029.000000	98.829699
2028.000000	98.779564
2027.000000	98.716392
2026.000000	98.681870
2025.000000	98.693452
2024.000000	98.732041
2023.000000	98.759664
2022.000000	98.748051
2021.000000	98.705868
2020.000000	98.680600
2019.000000	98.711147
2018.000000	98.777322
2017.000000	98.817307
2016.000000	98.799512
2015.000000	98.747745
2014.000000	98.692821
2013.000000	98.643183
2012.000000	98.607490
2011.000000	98.605500
2010.000000	98.641759
2009.000000	98.695334
2008.000000	98.746006
2007.000000	98.788431
2006.000000	98.813363
2005.000000	98.807099
2004.000000	98.778431
2003.000000	98.753094
2002.000000	98.737238
2001.000000	98.712147
2000.000000	98.671408
1999.000000	98.633896
1998.000000	98.614069
1997.000000	98.609684
1996.000000	98.622383
1995.000000	98.661825
1994.000000	98.717913
1993.000000	98.753677
1992.000000	98.743074
1991.000000	98.700559
1990.000000	98.655557
1989.000000	98.620317
1988.000000	98.596186
1987.000000	98.585588
1986.000000	98.584406
1985.000000	98.581679
1984.000000	98.575330
1983.000000	98.569843
1982.000000	98.557497
1981.000000	98.527390
1980.000000	98.501704
1979.000000	98.529825
1978.000000	98.629269
1977.000000	98.756652
1976.000000	98.853078
1975.000000	98.893219
1974.000000	98.876241
1973.000000	98.814952
1972.000000	98.748056
1971.000000	98.718504
1970.000000	98.725597
1969.000000	98.729409
1968.000000	98.708209
1967.000000	98.682290
1966.000000	98.674597
1965.000000	98.684089
1964.000000	98.706296
1963.000000	98.743488
1962.000000	98.784730
1961.000000	98.807102
1960.000000	98.807114
1959.000000	98.802014
1958.000000	98.795658
1957.000000	98.774841
1956.000000	98.741441
1955.000000	98.715553
1954.000000	98.702167
1953.000000	98.687293
1952.000000	98.670725
1951.000000	98.673320
1950.000000	98.701364
1949.000000	98.728892
1948.000000	98.731847
1947.000000	98.714642
1946.000000	98.690518
1945.000000	98.660893
1944.000000	98.628635
1943.000000	98.610430
1942.000000	98.616091
1941.000000	98.632827
1940.000000	98.646156
1939.000000	98.654811
1938.000000	98.658594
1937.000000	98.652680
1936.000000	98.640473
1935.000000	98.635528
1934.000000	98.642119
1933.000000	98.649459
1932.000000	98.649507
1931.000000	98.648785
1930.000000	98.653369
1929.000000	98.654873
1928.000000	98.648720
1927.000000	98.643087
1926.000000	98.645472
1925.000000	98.649613
1924.000000	98.647486
1923.000000	98.648176
1922.000000	98.662451
1921.000000	98.682396
1920.000000	98.689802
1919.000000	98.677712
1918.000000	98.657437
1917.000000	98.644745
1916.000000	98.645504
1915.000000	98.654348
1914.000000	98.661554
1913.000000	98.663950
1912.000000	98.666137
1911.000000	98.670950
1910.000000	98.670355
1909.000000	98.654043
1908.000000	98.629530
1907.000000	98.612909
1906.000000	98.609615
1905.000000	98.613219
1904.000000	98.619969
1903.000000	98.635241
1902.000000	98.655025
1901.000000	98.663750
1900.000000	98.659231
1899.000000	98.658322
1898.000000	98.673994
1897.000000	98.699361
1896.000000	98.719849
1895.000000	98.733525
1894.000000	98.744978
1893.000000	98.751945
1892.000000	98.748293
1891.000000	98.733625
1890.000000	98.713798
1889.000000	98.696024
1888.000000	98.687924
1887.000000	98.693509
1886.000000	98.705607
1885.000000	98.711981
1884.000000	98.709054
1883.000000	98.703031
1882.000000	98.696500
1881.000000	98.685950
1880.000000	98.675921
1879.000000	98.676711
1878.000000	98.689039
1877.000000	98.703498
1876.000000	98.712864
1875.000000	98.719845
1874.000000	98.729719
1873.000000	98.741260
1872.000000	98.750305
1871.000000	98.754926
1870.000000	98.754713
1869.000000	98.751091
1868.000000	98.748524
1867.000000	98.749577
1866.000000	98.746300
1865.000000	98.728783
1864.000000	98.702921
1863.000000	98.686305
1862.000000	98.684863
1861.000000	98.687251
1860.000000	98.686241
1859.000000	98.689463
1858.000000	98.702792
1857.000000	98.718673
1856.000000	98.728134
1855.000000	98.731064
1854.000000	98.730182
1853.000000	98.723812
1852.000000	98.718400
1851.000000	98.722964
1850.000000	98.734745
1849.000000	98.748766
1848.000000	98.767874
1847.000000	98.795386
1846.000000	98.816695
1845.000000	98.810668
1844.000000	98.782373
1843.000000	98.764199
1842.000000	98.767714
1841.000000	98.770143
1840.000000	98.757618
1839.000000	98.741664
1838.000000	98.737905
1837.000000	98.742493
1836.000000	98.743737
1835.000000	98.746552
1834.000000	98.760154
1833.000000	98.777877
1832.000000	98.786734
1831.000000	98.784147
1830.000000	98.781987
1829.000000	98.789017
1828.000000	98.797876
1827.000000	98.795139
1826.000000	98.773749
1825.000000	98.745572
1824.000000	98.731384
1823.000000	98.737343
1822.000000	98.749296
1821.000000	98.752842
1820.000000	98.749723
1819.000000	98.747717
1818.000000	98.748089
1817.000000	98.745717
1816.000000	98.741446
1815.000000	98.745261
1814.000000	98.755540
1813.000000	98.759570
1812.000000	98.749943
1811.000000	98.734178
1810.000000	98.724787
1809.000000	98.718498
1808.000000	98.705879
1807.000000	98.688311
1806.000000	98.672206
1805.000000	98.657774
1804.000000	98.640289
1803.000000	98.619363
1802.000000	98.593230
1801.000000	98.562253
1800.000000	98.532991
1799.000000	98.513226
1798.000000	98.505544
1797.000000	98.505051
1796.000000	98.510414
1795.000000	98.523598
1794.000000	98.538084
1793.000000	98.547729
1792.000000	98.559523
1791.000000	98.584637
1790.000000	98.620668
1789.000000	98.651329
1788.000000	98.666784
1787.000000	98.672547
1786.000000	98.678827
1785.000000	98.688456
1784.000000	98.700735
1783.000000	98.719290
1782.000000	98.734766
1781.000000	98.737751
1780.000000	98.733942
1779.000000	98.734956
1778.000000	98.746312
1777.000000	98.761969
1776.000000	98.784480
1775.000000	98.814840
1774.000000	98.833274
1773.000000	98.819822
1772.000000	98.788855
1771.000000	98.768418
1770.000000	98.753180
1769.000000	98.712723
1768.000000	98.638980
1767.000000	98.569791
1766.000000	98.537660
1765.000000	98.525126
1764.000000	98.490382
1763.000000	98.414583
1762.000000	98.309748
1761.000000	98.199753
1760.000000	98.090382
1759.000000	97.961581
1758.000000	97.777663
1757.000000	97.518683
1756.000000	97.229591
1755.000000	96.974517
1754.000000	96.748752
1753.000000	96.487523
1752.000000	96.145983
1751.000000	95.751599
1750.000000	95.370026
1749.000000	95.016033
1748.000000	94.680272
1747.000000	94.387232
1746.000000	94.147044
1745.000000	93.939864
1744.000000	93.755882
1743.000000	93.615119
1742.000000	93.529640
1741.000000	93.477552
1740.000000	93.448874
1739.000000	93.479073
1738.000000	93.584194
1737.000000	93.723273
1736.000000	93.859497
1735.000000	94.019051
1734.000000	94.263280
1733.000000	94.557911
1732.000000	94.827073
1731.000000	95.063203
1730.000000	95.293271
1729.000000	95.531879
1728.000000	95.779111
1727.000000	96.030103
1726.000000	96.272751
1725.000000	96.501995
1724.000000	96.718905
1723.000000	96.926504
1722.000000	97.122394
1721.000000	97.293964
1720.000000	97.440190
1719.000000	97.581929
1718.000000	97.743469
1717.000000	97.895098
1716.000000	97.983138
1715.000000	98.010836
1714.000000	98.006039
1713.000000	97.986562
1712.000000	97.965721
1711.000000	97.954129
1710.000000	97.949911
1709.000000	97.942346
1708.000000	97.926199
1707.000000	97.894692
1706.000000	97.844764
1705.000000	97.793809
1704.000000	97.772765
1703.000000	97.774110
1702.000000	97.727384
1701.000000	97.565760
1700.000000	97.372054
1699.000000	97.310316
1698.000000	97.328862
1697.000000	97.257973
1696.000000	97.045603
1695.000000	96.809450
1694.000000	96.664602
1693.000000	96.575099
1692.000000	96.472558
1691.000000	96.350556
1690.000000	96.231693
1689.000000	96.134602
1688.000000	96.076978
1687.000000	96.049926
1686.000000	95.997140
1685.000000	95.841878
1684.000000	95.603330
1683.000000	95.416713
1682.000000	95.302410
1681.000000	95.181189
1680.000000	95.029934
1679.000000	94.892411
1678.000000	94.785589
1677.000000	94.664557
1676.000000	94.484263
1675.000000	94.284219
1674.000000	94.142510
1673.000000	94.056960
1672.000000	93.961477
1671.000000	93.815499
1670.000000	93.623122
1669.000000	93.411563
1668.000000	93.225005
1667.000000	93.087982
1666.000000	92.978837
1665.000000	92.852989
1664.000000	92.678720
1663.000000	92.476161
1662.000000	92.293480
1661.000000	92.143322
1660.000000	92.007122
1659.000000	91.874754
1658.000000	91.760566
1657.000000	91.683784
1656.000000	91.640814
1655.000000	91.580609
1654.000000	91.430562
1653.000000	91.196815
1652.000000	91.035757
1651.000000	91.008043
1650.000000	91.012576
1649.000000	90.976417
1648.000000	90.902272
1647.000000	90.819873
1646.000000	90.765064
1645.000000	90.738313
1644.000000	90.725514
1643.000000	90.719555
1642.000000	90.717492
1641.000000	90.719771
1640.000000	90.738348
1639.000000	90.781345
1638.000000	90.837540
1637.000000	90.872574
1636.000000	90.871567
1635.000000	90.860956
1634.000000	90.876037
1633.000000	90.912674
1632.000000	90.943992
1631.000000	90.972346
1630.000000	91.012315
1629.000000	91.071704
1628.000000	91.152749
1627.000000	91.255753
1626.000000	91.369828
1625.000000	91.480898
1624.000000	91.590130
1623.000000	91.714990
1622.000000	91.858041
1621.000000	92.003614
1620.000000	92.143335
1619.000000	92.275739
1618.000000	92.407724
1617.000000	92.552338
1616.000000	92.710487
1615.000000	92.859484
1614.000000	92.982320
1613.000000	93.083468
1612.000000	93.182795
1611.000000	93.299216
1610.000000	93.429776
1609.000000	93.559010
1608.000000	93.680031
1607.000000	93.795030
1606.000000	93.898987
1605.000000	93.987772
1604.000000	94.068135
1603.000000	94.143456
1602.000000	94.210813
1601.000000	94.269244
1600.000000	94.324033
1599.000000	94.378156
1598.000000	94.427399
1597.000000	94.469844
1596.000000	94.509388
1595.000000	94.547644
1594.000000	94.578749
1593.000000	94.598253
1592.000000	94.610077
1591.000000	94.618978
1590.000000	94.623450
1589.000000	94.621053
1588.000000	94.613497
1587.000000	94.600949
1586.000000	94.580791
1585.000000	94.551462
1584.000000	94.520671
1583.000000	94.489132
1582.000000	94.449397
1581.000000	94.409681
1580.000000	94.391341
1579.000000	94.394861
1578.000000	94.388607
1577.000000	94.340126
1576.000000	94.256354
1575.000000	94.182354
1574.000000	94.135413
1573.000000	94.096928
1572.000000	94.045650
1571.000000	93.966436
1570.000000	93.861593
1569.000000	93.758311
1568.000000	93.685889
1567.000000	93.629259
1566.000000	93.550719
1565.000000	93.443851
1564.000000	93.351867
1563.000000	93.313327
1562.000000	93.311036
1561.000000	93.282408
1560.000000	93.153888
1559.000000	92.927200
1558.000000	92.715001
1557.000000	92.582618
1556.000000	92.479207
1555.000000	92.343309
1554.000000	92.183469
1553.000000	92.041638
1552.000000	91.931940
1551.000000	91.822975
1550.000000	91.700890
1549.000000	91.584295
1548.000000	91.496430
1547.000000	91.431383
1546.000000	91.367308
1545.000000	91.305261
1544.000000	91.267513
1543.000000	91.259253
1542.000000	91.257558
1541.000000	91.229149
1540.000000	91.160292
1539.000000	91.078501
1538.000000	91.027172
1537.000000	91.010606
1536.000000	90.997522
1535.000000	90.978082
1534.000000	90.958318
1533.000000	90.956039
1532.000000	90.975128
1531.000000	91.003560
1530.000000	91.031675
1529.000000	91.055058
1528.000000	91.079267
1527.000000	91.113121
1526.000000	91.154912
1525.000000	91.200246
1524.000000	91.246833
1523.000000	91.285257
1522.000000	91.305439
1521.000000	91.306094
1520.000000	91.303324
1519.000000	91.305938
1518.000000	91.296010
1517.000000	91.270202
1516.000000	91.253434
1515.000000	91.267570
1514.000000	91.299695
1513.000000	91.329932
1512.000000	91.366019
1511.000000	91.434894
1510.000000	91.540968
1509.000000	91.656538
1508.000000	91.752910
1507.000000	91.823030
1506.000000	91.842594
1505.000000	91.828510
1504.000000	91.833615
1503.000000	91.848575
1502.000000	91.863259
1501.000000	91.877289
1500.000000	91.896318
1499.000000	91.925783
1498.000000	91.954534
1497.000000	91.960519
1496.000000	91.943499
1495.000000	91.937810
1494.000000	91.954877
1493.000000	91.970681
1492.000000	91.968808
1491.000000	91.960483
1490.000000	91.958803
1489.000000	91.944126
1488.000000	91.896441
1487.000000	91.831134
1486.000000	91.766155
1485.000000	91.695919
1484.000000	91.619132
1483.000000	91.534275
1482.000000	91.434269
1481.000000	91.319203
1480.000000	91.202588
1479.000000	91.092968
1478.000000	90.976074
1477.000000	90.841234
1476.000000	90.703890
1475.000000	90.582171
1474.000000	90.439016
1473.000000	90.215122
1472.000000	89.930662
1471.000000	89.674275
1470.000000	89.473655
1469.000000	89.296705
1468.000000	89.125634
1467.000000	88.965740
1466.000000	88.811562
1465.000000	88.651306
1464.000000	88.504989
1463.000000	88.399533
1462.000000	88.328189
1461.000000	88.265325
1460.000000	88.200649
1459.000000	88.122740
1458.000000	87.987087
1457.000000	87.759775
1456.000000	87.530846
1455.000000	87.395178
1454.000000	87.309268
1453.000000	87.215884
1452.000000	87.120747
1451.000000	87.049528
1450.000000	86.998687
1449.000000	86.939780
1448.000000	86.865269
1447.000000	86.800488
1446.000000	86.751676
1445.000000	86.704239
1444.000000	86.652116
1443.000000	86.596673
1442.000000	86.541046
1441.000000	86.487842
1440.000000	86.442685
1439.000000	86.395439
1438.000000	86.315975
1437.000000	86.186656
1436.000000	86.056127
1435.000000	85.988373
1434.000000	85.967643
1433.000000	85.945319
1432.000000	85.905376
1431.000000	85.855470
1430.000000	85.793097
1429.000000	85.707653
1428.000000	85.609389
1427.000000	85.523620
1426.000000	85.447898
1425.000000	85.371656
1424.000000	85.313596
1423.000000	85.296095
1422.000000	85.302490
1421.000000	85.290055
1420.000000	85.241224
1419.000000	85.184520
1418.000000	85.150990
1417.000000	85.135804
1416.000000	85.131537
1415.000000	85.143893
1414.000000	85.173668
1413.000000	85.215920
1412.000000	85.271429
1411.000000	85.344030
1410.000000	85.430844
1409.000000	85.526334
1408.000000	85.629952
1407.000000	85.744069
1406.000000	85.859599
1405.000000	85.965978
1404.000000	86.068138
1403.000000	86.171805
1402.000000	86.268582
1401.000000	86.346730
1400.000000	86.413905
1399.000000	86.490198
1398.000000	86.577555
1397.000000	86.659872
1396.000000	86.730029
1395.000000	86.796446
1394.000000	86.864217
1393.000000	86.937490
1392.000000	87.023661
1391.000000	87.122971
1390.000000	87.228234
1389.000000	87.334860
1388.000000	87.447012
1387.000000	87.567595
1386.000000	87.685290
1385.000000	87.790273
1384.000000	87.889305
1383.000000	87.992713
1382.000000	88.103949
1381.000000	88.220487
1380.000000	88.344032
1379.000000	88.480866
1378.000000	88.631904
1377.000000	88.793013
1376.000000	88.962437
1375.000000	89.138276
1374.000000	89.307294
1373.000000	89.455894
1372.000000	89.587077
1371.000000	89.710499
1370.000000	89.827095
1369.000000	89.938142
1368.000000	90.050917
1367.000000	90.167775
1366.000000	90.283151
1365.000000	90.392943
1364.000000	90.499449
1363.000000	90.601425
1362.000000	90.687653
1361.000000	90.752676
1360.000000	90.805953
1359.000000	90.856506
1358.000000	90.904650
1357.000000	90.950809
1356.000000	91.000076
1355.000000	91.055361
1354.000000	91.112676
1353.000000	91.167096
1352.000000	91.216675
1351.000000	91.262487
1350.000000	91.303135
1349.000000	91.337436
1348.000000	91.365310
1347.000000	91.383102
1346.000000	91.385744
1345.000000	91.373929
1344.000000	91.355517
1343.000000	91.336269
1342.000000	91.314229
1341.000000	91.284266
1340.000000	91.244100
1339.000000	91.194681
1338.000000	91.140586
1337.000000	91.091770
1336.000000	91.059777
1335.000000	91.051223
1334.000000	91.066143
1333.000000	91.101968
1332.000000	91.155702
1331.000000	91.222190
1330.000000	91.293975
1329.000000	91.365890
1328.000000	91.436827
1327.000000	91.506494
1326.000000	91.573268
1325.000000	91.636996
1324.000000	91.698830
1323.000000	91.757406
1322.000000	91.810645
1321.000000	91.860500
1320.000000	91.911358
1319.000000	91.963538
1318.000000	92.014159
1317.000000	92.064893
1316.000000	92.122143
1315.000000	92.188110
1314.000000	92.257223
1313.000000	92.322889
1312.000000	92.383445
1311.000000	92.440850
1310.000000	92.497513
1309.000000	92.556159
1308.000000	92.618518
1307.000000	92.683553
1306.000000	92.748673
1305.000000	92.813506
1304.000000	92.878844
1303.000000	92.942962
1302.000000	93.003816
1301.000000	93.063656
1300.000000	93.126986
1299.000000	93.193777
1298.000000	93.259194
1297.000000	93.319093
1296.000000	93.371903
1295.000000	93.415567
1294.000000	93.448184
1293.000000	93.471733
1292.000000	93.490664
1291.000000	93.506571
1290.000000	93.516927
1289.000000	93.519616
1288.000000	93.515740
1287.000000	93.508438
1286.000000	93.501708
1285.000000	93.499473
1284.000000	93.503109
1283.000000	93.509956
1282.000000	93.516277
1281.000000	93.520550
1280.000000	93.521834
1279.000000	93.516813
1278.000000	93.502075
1277.000000	93.477653
1276.000000	93.445163
1275.000000	93.402883
1274.000000	93.346480
1273.000000	93.274044
1272.000000	93.187022
1271.000000	93.087300
1270.000000	92.975284
1269.000000	92.851441
1268.000000	92.717564
1267.000000	92.575531
1266.000000	92.427052
1265.000000	92.274397
1264.000000	92.120592
1263.000000	91.968758
1262.000000	91.821966
1261.000000	91.683164
1260.000000	91.553700
1259.000000	91.431519
1258.000000	91.313534
1257.000000	91.202224
1256.000000	91.106824
1255.000000	91.036047
1254.000000	90.990219
1253.000000	90.961532
1252.000000	90.940649
1251.000000	90.919732
1250.000000	90.892384
1249.000000	90.855295
1248.000000	90.809794
1247.000000	90.759524
1246.000000	90.707149
1245.000000	90.654965
1244.000000	90.606747
1243.000000	90.566191
1242.000000	90.534760
1241.000000	90.513426
1240.000000	90.504925
1239.000000	90.511833
1238.000000	90.533505
1237.000000	90.569074
1236.000000	90.620700
1235.000000	90.690213
1234.000000	90.774710
1233.000000	90.868386
1232.000000	90.968799
1231.000000	91.077948
1230.000000	91.199510
1229.000000	91.338509
1228.000000	91.499661
1227.000000	91.682869
1226.000000	91.880581
1225.000000	92.081949
1224.000000	92.278581
1223.000000	92.465159
1222.000000	92.638460
1221.000000	92.797633
1220.000000	92.943067
1219.000000	93.073154
1218.000000	93.185565
1217.000000	93.281260
1216.000000	93.364012
1215.000000	93.436249
1214.000000	93.497248
1213.000000	93.546589
1212.000000	93.584917
1211.000000	93.611139
1210.000000	93.623168
1209.000000	93.621442
1208.000000	93.609893
1207.000000	93.592393
1206.000000	93.570813
1205.000000	93.547136
1204.000000	93.524144
1203.000000	93.503440
1202.000000	93.484788
1201.000000	93.468241
1200.000000	93.454780
1199.000000	93.444068
1198.000000	93.434007
1197.000000	93.423617
1196.000000	93.414134
1195.000000	93.406141
1194.000000	93.397612
1193.000000	93.385900
1192.000000	93.369928
1191.000000	93.349446
1190.000000	93.324299
1189.000000	93.295105
1188.000000	93.262779
1187.000000	93.226446
1186.000000	93.183180
1185.000000	93.131105
1184.000000	93.070567
1183.000000	93.001886
1182.000000	92.924387
1181.000000	92.838344
1180.000000	92.746286
1179.000000	92.650302
1178.000000	92.550059
1177.000000	92.445532
1176.000000	92.339500
1175.000000	92.235500
1174.000000	92.134532
1173.000000	92.036242
1172.000000	91.941808
1171.000000	91.853066
1170.000000	91.769788
1169.000000	91.690886
1168.000000	91.617538
1167.000000	91.551646
1166.000000	91.493128
1165.000000	91.442037
1164.000000	91.402727
1163.000000	91.382186
1162.000000	91.383280
1161.000000	91.404270
1160.000000	91.443591
1159.000000	91.501562
1158.000000	91.579034
1157.000000	91.676797
1156.000000	91.796968
1155.000000	91.940040
1154.000000	92.101473
1153.000000	92.275394
1152.000000	92.459033
1151.000000	92.651705
1150.000000	92.851328
1149.000000	93.055864
1148.000000	93.266109
1147.000000	93.482293
1146.000000	93.699974
1145.000000	93.912553
1144.000000	94.116613
1143.000000	94.311764
1142.000000	94.497519
1141.000000	94.672749
1140.000000	94.836680
1139.000000	94.988562
1138.000000	95.126220
1137.000000	95.247520
1136.000000	95.351935
1135.000000	95.439893
1134.000000	95.512312
1133.000000	95.570336
1132.000000	95.615963
1131.000000	95.651451
1130.000000	95.677713
1129.000000	95.694220
1128.000000	95.700434
1127.000000	95.698769
1126.000000	95.694518
1125.000000	95.690730
1124.000000	95.684437
1123.000000	95.669568
1122.000000	95.643554
1121.000000	95.607761
1120.000000	95.560858
1119.000000	95.497055
1118.000000	95.412329
1117.000000	95.309452
1116.000000	95.193581
1115.000000	95.064920
1114.000000	94.920904
1113.000000	94.764901
1112.000000	94.610016
1111.000000	94.472419
1110.000000	94.362757
1109.000000	94.284487
1108.000000	94.238107
1107.000000	94.222271
1106.000000	94.230222
1105.000000	94.250731
1104.000000	94.273366
1103.000000	94.291790
1102.000000	94.301130
1101.000000	94.295421
1100.000000	94.270698
1099.000000	94.228658
1098.000000	94.175940
1097.000000	94.118665
1096.000000	94.060336
1095.000000	94.004555
1094.000000	93.957164
1093.000000	93.923970
1092.000000	93.908486
1091.000000	93.912535
1090.000000	93.938193
1089.000000	93.986109
1088.000000	94.052132
1087.000000	94.128297
1086.000000	94.208193
1085.000000	94.292043
1084.000000	94.384278
1083.000000	94.486754
1082.000000	94.595655
1081.000000	94.703923
1080.000000	94.805752
1079.000000	94.899628
1078.000000	94.988829
1077.000000	95.077924
1076.000000	95.167472
1075.000000	95.252772
1074.000000	95.328490
1073.000000	95.392550
1072.000000	95.444022
1071.000000	95.481541
1070.000000	95.505985
1069.000000	95.521792
1068.000000	95.532693
1067.000000	95.538088
1066.000000	95.536966
1065.000000	95.532425
1064.000000	95.529051
1063.000000	95.527933
1062.000000	95.527243
1061.000000	95.526191
1060.000000	95.525264
1059.000000	95.524793
1058.000000	95.526923
1057.000000	95.537376
1056.000000	95.560449
1055.000000	95.592488
1054.000000	95.624696
1053.000000	95.652797
1052.000000	95.680487
1051.000000	95.712322
1050.000000	95.746895
1049.000000	95.778698
1048.000000	95.803983
1047.000000	95.823200
1046.000000	95.839417
1045.000000	95.854991
1044.000000	95.868104
1043.000000	95.872939
1042.000000	95.864461
1041.000000	95.843025
1040.000000	95.812664
1039.000000	95.775182
1038.000000	95.728511
1037.000000	95.670459
1036.000000	95.603177
1035.000000	95.533913
1034.000000	95.471653
1033.000000	95.421621
1032.000000	95.381611
1031.000000	95.345204
1030.000000	95.310102
1029.000000	95.282783
1028.000000	95.272365
1027.000000	95.280728
1026.000000	95.301091
1025.000000	95.325369
1024.000000	95.350202
1023.000000	95.375704
1022.000000	95.402610
1021.000000	95.432021
1020.000000	95.464771
1019.000000	95.499869
1018.000000	95.535608
1017.000000	95.573266
1016.000000	95.617077
1015.000000	95.669130
1014.000000	95.726895
1013.000000	95.787007
1012.000000	95.849391
1011.000000	95.916006
1010.000000	95.986938
1009.000000	96.059346
1008.000000	96.129496
1007.000000	96.195676
1006.000000	96.259745
1005.000000	96.325065
1004.000000	96.391403
1003.000000	96.453253
1002.000000	96.505832
1001.000000	96.551009
1000.000000	96.594223
999.000000	96.636159
998.000000	96.671653
997.000000	96.697316
996.000000	96.715782
995.000000	96.731669
994.000000	96.746566
993.000000	96.760019
992.000000	96.772738
991.000000	96.786023
990.000000	96.799327
989.000000	96.810000
988.000000	96.815136
987.000000	96.813260
986.000000	96.805033
985.000000	96.792924
984.000000	96.779169
983.000000	96.763973
982.000000	96.746885
981.000000	96.729128
980.000000	96.712595
979.000000	96.696171
978.000000	96.675528
977.000000	96.647738
976.000000	96.614184
975.000000	96.578062
974.000000	96.541213
973.000000	96.505289
972.000000	96.473899
971.000000	96.450846
970.000000	96.436652
969.000000	96.429125
968.000000	96.427101
967.000000	96.431275
966.000000	96.442395
965.000000	96.460887
964.000000	96.487690
963.000000	96.522860
962.000000	96.563086
961.000000	96.603884
960.000000	96.644779
959.000000	96.689380
958.000000	96.739953
957.000000	96.794497
956.000000	96.850774
955.000000	96.910159
954.000000	96.974751
953.000000	97.042985
952.000000	97.110922
951.000000	97.176756
950.000000	97.240559
949.000000	97.300295
948.000000	97.352360
947.000000	97.397618
946.000000	97.443062
945.000000	97.493877
944.000000	97.546379
943.000000	97.591805
942.000000	97.626237
941.000000	97.653189
940.000000	97.676918
939.000000	97.697537
938.000000	97.713445
937.000000	97.726066
936.000000	97.740622
935.000000	97.763287
934.000000	97.797181
933.000000	97.839190
932.000000	97.881193
931.000000	97.916727
930.000000	97.946108
929.000000	97.972975
928.000000	97.997198
927.000000	98.015644
926.000000	98.029902
925.000000	98.047568
924.000000	98.073803
923.000000	98.105472
922.000000	98.136748
921.000000	98.167007
920.000000	98.199527
919.000000	98.234857
918.000000	98.269789
917.000000	98.302483
916.000000	98.334950
915.000000	98.369945
914.000000	98.407169
913.000000	98.443016
912.000000	98.473483
911.000000	98.497809
910.000000	98.519872
909.000000	98.544947
908.000000	98.574279
907.000000	98.604148
906.000000	98.630611
905.000000	98.653013
904.000000	98.671860
903.000000	98.685560
902.000000	98.692224
901.000000	98.694255
900.000000	98.699343
899.000000	98.715635
898.000000	98.745216
897.000000	98.781193
896.000000	98.811774
895.000000	98.828648
894.000000	98.831875
893.000000	98.826429
892.000000	98.815223
891.000000	98.796120
890.000000	98.759223
889.000000	98.679407
888.000000	98.515130
887.000000	98.226301
886.000000	97.807353
885.000000	97.302386
884.000000	96.780428
883.000000	96.289358
882.000000	95.823098
881.000000	95.331505
880.000000	94.766245
879.000000	94.125424
878.000000	93.458415
877.000000	92.837282
876.000000	92.328759
875.000000	91.988065
874.000000	91.863142
873.000000	91.985868
872.000000	92.358280
871.000000	92.939639
870.000000	93.649308
869.000000	94.390627
868.000000	95.079221
867.000000	95.664738
866.000000	96.137503
865.000000	96.518355
864.000000	96.834262
863.000000	97.100442
862.000000	97.320779
861.000000	97.499287
860.000000	97.645050
859.000000	97.767198
858.000000	97.872004
857.000000	97.962759
856.000000	98.039794
855.000000	98.102375
854.000000	98.152443
853.000000	98.192882
852.000000	98.216833
851.000000	98.206261
850.000000	98.153999
849.000000	98.087529
848.000000	98.058584
847.000000	98.099968
846.000000	98.195746
845.000000	98.299329
844.000000	98.375840
843.000000	98.422377
842.000000	98.454004
841.000000	98.481886
840.000000	98.507494
839.000000	98.528709
838.000000	98.544148
837.000000	98.552682
836.000000	98.553279
835.000000	98.546837
834.000000	98.536965
833.000000	98.528560
832.000000	98.525839
831.000000	98.531199
830.000000	98.544941
829.000000	98.566218
828.000000	98.594273
827.000000	98.627584
826.000000	98.661370
825.000000	98.687797
824.000000	98.701126
823.000000	98.703373
822.000000	98.703785
821.000000	98.711940
820.000000	98.730825
819.000000	98.755126
818.000000	98.775407
817.000000	98.784972
816.000000	98.784400
815.000000	98.780221
814.000000	98.779158
813.000000	98.783826
812.000000	98.793607
811.000000	98.806357
810.000000	98.816923
809.000000	98.816434
808.000000	98.798669
807.000000	98.768514
806.000000	98.740054
805.000000	98.723476
804.000000	98.716063
803.000000	98.708767
802.000000	98.698734
801.000000	98.690641
800.000000	98.686543
799.000000	98.679812
798.000000	98.662136
797.000000	98.634105
796.000000	98.605684
795.000000	98.586421
794.000000	98.576928
793.000000	98.570135
792.000000	98.559004
791.000000	98.541751
790.000000	98.520606
789.000000	98.497554
788.000000	98.472503
787.000000	98.445164
786.000000	98.417935
785.000000	98.396131
784.000000	98.384336
783.000000	98.381676
782.000000	98.381404
781.000000	98.376935
780.000000	98.368117
779.000000	98.359558
778.000000	98.352781
777.000000	98.342813
776.000000	98.324170
775.000000	98.297623
774.000000	98.268528
773.000000	98.240993
772.000000	98.217238
771.000000	98.200613
770.000000	98.193943
769.000000	98.194420
768.000000	98.194405
767.000000	98.188569
766.000000	98.176979
765.000000	98.160280
764.000000	98.136268
763.000000	98.104147
762.000000	98.068877
761.000000	98.037309
760.000000	98.011281
759.000000	97.987348
758.000000	97.961711
757.000000	97.932170
756.000000	97.897005
755.000000	97.857285
754.000000	97.821195
753.000000	97.800434
752.000000	97.797725
751.000000	97.800517
750.000000	97.791955
749.000000	97.768518
748.000000	97.742841
747.000000	97.728340
746.000000	97.725408
745.000000	97.724825
744.000000	97.720439
743.000000	97.713541
742.000000	97.706995
741.000000	97.700816
740.000000	97.693602
739.000000	97.682776
738.000000	97.662189
737.000000	97.625192
736.000000	97.573237
735.000000	97.517096
734.000000	97.465171
733.000000	97.414400
732.000000	97.357978
731.000000	97.298941
730.000000	97.248966
729.000000	97.213191
728.000000	97.184755
727.000000	97.156320
726.000000	97.129032
725.000000	97.106725
724.000000	97.085794
723.000000	97.055376
722.000000	97.005622
721.000000	96.932961
720.000000	96.837641
719.000000	96.715619
718.000000	96.549575
717.000000	96.307116
716.000000	95.957704
715.000000	95.509136
714.000000	95.038021
713.000000	94.674008
712.000000	94.530122
711.000000	94.627100
710.000000	94.880460
709.000000	95.163170
708.000000	95.385253
707.000000	95.526150
706.000000	95.607031
705.000000	95.650251
704.000000	95.665676
703.000000	95.657098
702.000000	95.629398
701.000000	95.590650
700.000000	95.551135
699.000000	95.521157
698.000000	95.504782
697.000000	95.497069
696.000000	95.490340
695.000000	95.480021
694.000000	95.466820
693.000000	95.455784
692.000000	95.453070
691.000000	95.462338
690.000000	95.479367
689.000000	95.492981
688.000000	95.494527
687.000000	95.484847
686.000000	95.471864
685.000000	95.461265
684.000000	95.450673
683.000000	95.434488
682.000000	95.411730
681.000000	95.387079
680.000000	95.365249
679.000000	95.348472
678.000000	95.340379
677.000000	95.345440
676.000000	95.366410
675.000000	95.397885
674.000000	95.429630
673.000000	95.456546
672.000000	95.482726
671.000000	95.515874
670.000000	95.564501
669.000000	95.632406
668.000000	95.685733
667.000000	95.700642
666.000000	95.724785
665.000000	95.750377
664.000000	95.761652
663.000000	95.769359
662.000000	95.784336
661.000000	95.801841
660.000000	95.815189
659.000000	95.829670
658.000000	95.848240
657.000000	95.853111
656.000000	95.824726
655.000000	95.765172
654.000000	95.693476
653.000000	95.625310
652.000000	95.568339
651.000000	95.524729
650.000000	95.486442
649.000000	95.436505
648.000000	95.368372
647.000000	95.294013
646.000000	95.223251
645.000000	95.149647
644.000000	95.065980
643.000000	94.979187
642.000000	94.899288
641.000000	94.823133
640.000000	94.744227
639.000000	94.670838
638.000000	94.617267
637.000000	94.584835
636.000000	94.566245
635.000000	94.561558
634.000000	94.577266
633.000000	94.612243
632.000000	94.652888
631.000000	94.680987
630.000000	94.684892
629.000000	94.669102
628.000000	94.653776
627.000000	94.656382
626.000000	94.670006
625.000000	94.671370
624.000000	94.650339
623.000000	94.617403
622.000000	94.582260
621.000000	94.542172
620.000000	94.496771
619.000000	94.455829
618.000000	94.422136
617.000000	94.381670
616.000000	94.325532
615.000000	94.269598
614.000000	94.236348
613.000000	94.227207
612.000000	94.226086
611.000000	94.223122
610.000000	94.223222
609.000000	94.236399
608.000000	94.269574
607.000000	94.324175
606.000000	94.393623
605.000000	94.469967
604.000000	94.556009
603.000000	94.663522
602.000000	94.796558
601.000000	94.942620
600.000000	95.083736
599.000000	95.210091
598.000000	95.321721
597.000000	95.423590
596.000000	95.521416
595.000000	95.616742
594.000000	95.703908
593.000000	95.776127
592.000000	95.833390
591.000000	95.878791
590.000000	95.910539
589.000000	95.926300
588.000000	95.933921
587.000000	95.947667
586.000000	95.974022
585.000000	96.010010
584.000000	96.053013
583.000000	96.098025
582.000000	96.126142
581.000000	96.117446
580.000000	96.081910
579.000000	96.058961
578.000000	96.074357
577.000000	96.113423
576.000000	96.145522
575.000000	96.160368
574.000000	96.169944
573.000000	96.184159
572.000000	96.201601
571.000000	96.216171
570.000000	96.220394
569.000000	96.209790
568.000000	96.193024
567.000000	96.189039
566.000000	96.204803
565.000000	96.223383
564.000000	96.223012
563.000000	96.200371
562.000000	96.169866
561.000000	96.148893
560.000000	96.149352
559.000000	96.173810
558.000000	96.209844
557.000000	96.237035
556.000000	96.246070
555.000000	96.243123
554.000000	96.235940
553.000000	96.229890
552.000000	96.238159
551.000000	96.275011
550.000000	96.329505
549.000000	96.367831
548.000000	96.375065
547.000000	96.372125
546.000000	96.379771
545.000000	96.386684
544.000000	96.373377
543.000000	96.347169
542.000000	96.330438
541.000000	96.328805
540.000000	96.332135
539.000000	96.336557
538.000000	96.343504
537.000000	96.345210
536.000000	96.333080
535.000000	96.315935
534.000000	96.311360
533.000000	96.321392
532.000000	96.330717
531.000000	96.323820
530.000000	96.295164
529.000000	96.252132
528.000000	96.219102
527.000000	96.228881
526.000000	96.287040
525.000000	96.350739
524.000000	96.375870
523.000000	96.368192
522.000000	96.363894
521.000000	96.382029
520.000000	96.411150
519.000000	96.430287
518.000000	96.427595
517.000000	96.405527
516.000000	96.383441
515.000000	96.388502
514.000000	96.430645
513.000000	96.490618
512.000000	96.541352
511.000000	96.574484
510.000000	96.600113
509.000000	96.628955
508.000000	96.666275
507.000000	96.714491
506.000000	96.765100
505.000000	96.796923
504.000000	96.797269
503.000000	96.778856
502.000000	96.767772
501.000000	96.774662
500.000000	96.790961
499.000000	96.812855
498.000000	96.849074
497.000000	96.903216
496.000000	96.958939
495.000000	96.988227
494.000000	96.974816
493.000000	96.932563
492.000000	96.901782
491.000000	96.919262
490.000000	96.987373
489.000000	97.076938
488.000000	97.153895
487.000000	97.194070
486.000000	97.186994
485.000000	97.149954
484.000000	97.131228
483.000000	97.170170
482.000000	97.253393
481.000000	97.336539
480.000000	97.399351
479.000000	97.450463
478.000000	97.489606
477.000000	97.504502
476.000000	97.506682
475.000000	97.529788
474.000000	97.582288
473.000000	97.635965
472.000000	97.676903
471.000000	97.729213
470.000000	97.795342
469.000000	97.832092
468.000000	97.813954
467.000000	97.773289
466.000000	97.755190
465.000000	97.765311
464.000000	97.798444
463.000000	97.871738
462.000000	97.987743
461.000000	98.102163
460.000000	98.150464
459.000000	98.198521
458.000000	98.270628
457.000000	98.351932
456.000000	98.414418
455.000000	98.487404
454.000000	98.605744
453.000000	98.737172
452.000000	98.810182
451.000000	98.807585
450.000000	98.783414
