PE IR       SUBTECH     SPECTRUM    ASCII       PEDS        4.00        
   -1
3C-XXX-C018_1.ASC
23/09/07
10:33:37.00
23/09/07
11:30:09.00
uco
Sample 018 By uco Date Thursday, September 07 2023
450.000000
#HDR
-1
-1
#GR
cm-1
%T
1.0
0.0
4000.000000
-1.000000
3551
8
99.326306
92.551659
#DATA
4000.000000	99.232704
3999.000000	99.227972
3998.000000	99.223243
3997.000000	99.218502
3996.000000	99.215973
3995.000000	99.215720
3994.000000	99.216615
3993.000000	99.217138
3992.000000	99.216105
3991.000000	99.213228
3990.000000	99.209520
3989.000000	99.206879
3988.000000	99.206725
3987.000000	99.208590
3986.000000	99.210356
3985.000000	99.210354
3984.000000	99.209172
3983.000000	99.209000
3982.000000	99.211015
3981.000000	99.213693
3980.000000	99.214036
3979.000000	99.210250
3978.000000	99.203043
3977.000000	99.194860
3976.000000	99.188491
3975.000000	99.186147
3974.000000	99.188777
3973.000000	99.195389
3972.000000	99.203144
3971.000000	99.208701
3970.000000	99.210132
3969.000000	99.207940
3968.000000	99.204432
3967.000000	99.202152
3966.000000	99.202403
3965.000000	99.204848
3964.000000	99.208123
3963.000000	99.210720
3962.000000	99.211654
3961.000000	99.210646
3960.000000	99.208048
3959.000000	99.204593
3958.000000	99.200909
3957.000000	99.197257
3956.000000	99.193559
3955.000000	99.189699
3954.000000	99.185771
3953.000000	99.182158
3952.000000	99.179557
3951.000000	99.178825
3950.000000	99.180446
3949.000000	99.183635
3948.000000	99.186170
3947.000000	99.185845
3946.000000	99.182486
3945.000000	99.178196
3944.000000	99.175734
3943.000000	99.176820
3942.000000	99.181392
3941.000000	99.188272
3940.000000	99.195776
3939.000000	99.201199
3938.000000	99.201376
3937.000000	99.195380
3936.000000	99.186201
3935.000000	99.179234
3934.000000	99.178758
3933.000000	99.185301
3932.000000	99.195376
3931.000000	99.203470
3930.000000	99.205607
3929.000000	99.201505
3928.000000	99.193955
3927.000000	99.186971
3926.000000	99.183449
3925.000000	99.183639
3924.000000	99.185903
3923.000000	99.189269
3922.000000	99.193985
3921.000000	99.199041
3920.000000	99.201427
3919.000000	99.198933
3918.000000	99.192623
3917.000000	99.186143
3916.000000	99.182835
3915.000000	99.183639
3914.000000	99.186920
3913.000000	99.189453
3912.000000	99.188178
3911.000000	99.182471
3910.000000	99.174223
3909.000000	99.165693
3908.000000	99.157614
3907.000000	99.149625
3906.000000	99.142204
3905.000000	99.137960
3904.000000	99.140462
3903.000000	99.150941
3902.000000	99.166717
3901.000000	99.182323
3900.000000	99.192271
3899.000000	99.194533
3898.000000	99.192007
3897.000000	99.189375
3896.000000	99.188482
3895.000000	99.187809
3894.000000	99.185843
3893.000000	99.183582
3892.000000	99.182860
3891.000000	99.183683
3890.000000	99.184924
3889.000000	99.187743
3888.000000	99.193950
3887.000000	99.201925
3886.000000	99.207123
3885.000000	99.205364
3884.000000	99.197184
3883.000000	99.188495
3882.000000	99.183945
3881.000000	99.183396
3880.000000	99.184371
3879.000000	99.184486
3878.000000	99.183773
3877.000000	99.183505
3876.000000	99.183176
3875.000000	99.181796
3874.000000	99.179009
3873.000000	99.175276
3872.000000	99.173212
3871.000000	99.175547
3870.000000	99.181100
3869.000000	99.185880
3868.000000	99.189252
3867.000000	99.194229
3866.000000	99.199329
3865.000000	99.199019
3864.000000	99.192658
3863.000000	99.185905
3862.000000	99.183364
3861.000000	99.183559
3860.000000	99.181844
3859.000000	99.176438
3858.000000	99.169086
3857.000000	99.162089
3856.000000	99.156711
3855.000000	99.154128
3854.000000	99.156504
3853.000000	99.163454
3852.000000	99.170460
3851.000000	99.178456
3850.000000	99.189839
3849.000000	99.199307
3848.000000	99.202676
3847.000000	99.201281
3846.000000	99.196874
3845.000000	99.189481
3844.000000	99.179166
3843.000000	99.168353
3842.000000	99.161046
3841.000000	99.160437
3840.000000	99.166222
3839.000000	99.174163
3838.000000	99.179442
3837.000000	99.181237
3836.000000	99.183027
3835.000000	99.188100
3834.000000	99.196172
3833.000000	99.204107
3832.000000	99.208439
3831.000000	99.207465
3830.000000	99.202386
3829.000000	99.195794
3828.000000	99.188817
3827.000000	99.180705
3826.000000	99.170521
3825.000000	99.159548
3824.000000	99.151801
3823.000000	99.151469
3822.000000	99.159569
3821.000000	99.171191
3820.000000	99.177886
3819.000000	99.179277
3818.000000	99.182721
3817.000000	99.189716
3816.000000	99.195154
3815.000000	99.194355
3814.000000	99.188759
3813.000000	99.184212
3812.000000	99.181951
3811.000000	99.179542
3810.000000	99.177612
3809.000000	99.178855
3808.000000	99.182904
3807.000000	99.185152
3806.000000	99.181930
3805.000000	99.176438
3804.000000	99.175536
3803.000000	99.181315
3802.000000	99.189523
3801.000000	99.193456
3800.000000	99.190604
3799.000000	99.187223
3798.000000	99.188067
3797.000000	99.189436
3796.000000	99.187274
3795.000000	99.182352
3794.000000	99.178593
3793.000000	99.178669
3792.000000	99.181687
3791.000000	99.185272
3790.000000	99.187915
3789.000000	99.189127
3788.000000	99.189219
3787.000000	99.189217
3786.000000	99.189967
3785.000000	99.190985
3784.000000	99.190772
3783.000000	99.188817
3782.000000	99.186311
3781.000000	99.184583
3780.000000	99.183732
3779.000000	99.182946
3778.000000	99.181611
3777.000000	99.180806
3776.000000	99.182001
3775.000000	99.184726
3774.000000	99.187133
3773.000000	99.187949
3772.000000	99.186844
3771.000000	99.184006
3770.000000	99.180493
3769.000000	99.178733
3768.000000	99.181582
3767.000000	99.189619
3766.000000	99.199080
3765.000000	99.204326
3764.000000	99.203192
3763.000000	99.198542
3762.000000	99.194089
3761.000000	99.190444
3760.000000	99.186359
3759.000000	99.181874
3758.000000	99.178412
3757.000000	99.177269
3756.000000	99.179029
3755.000000	99.184490
3754.000000	99.194508
3753.000000	99.208185
3752.000000	99.221311
3751.000000	99.227108
3750.000000	99.222171
3749.000000	99.211740
3748.000000	99.205039
3747.000000	99.208137
3746.000000	99.221632
3745.000000	99.239023
3744.000000	99.247605
3743.000000	99.241458
3742.000000	99.230691
3741.000000	99.223820
3740.000000	99.217168
3739.000000	99.208059
3738.000000	99.200201
3737.000000	99.197432
3736.000000	99.199398
3735.000000	99.203014
3734.000000	99.207662
3733.000000	99.215379
3732.000000	99.225220
3731.000000	99.232781
3730.000000	99.236463
3729.000000	99.238446
3728.000000	99.239762
3727.000000	99.237812
3726.000000	99.229312
3725.000000	99.215753
3724.000000	99.204179
3723.000000	99.200558
3722.000000	99.204338
3721.000000	99.210472
3720.000000	99.214650
3719.000000	99.216177
3718.000000	99.216573
3717.000000	99.216878
3716.000000	99.216667
3715.000000	99.214870
3714.000000	99.210810
3713.000000	99.205961
3712.000000	99.204723
3711.000000	99.209712
3710.000000	99.217646
3709.000000	99.223757
3708.000000	99.226121
3707.000000	99.224857
3706.000000	99.221015
3705.000000	99.216321
3704.000000	99.212285
3703.000000	99.209893
3702.000000	99.209821
3701.000000	99.212365
3700.000000	99.217131
3699.000000	99.223035
3698.000000	99.227477
3697.000000	99.226514
3696.000000	99.217875
3695.000000	99.203669
3694.000000	99.189665
3693.000000	99.181928
3692.000000	99.184717
3691.000000	99.198935
3690.000000	99.219499
3689.000000	99.235743
3688.000000	99.239998
3687.000000	99.235011
3686.000000	99.228182
3685.000000	99.222740
3684.000000	99.217683
3683.000000	99.211967
3682.000000	99.205580
3681.000000	99.198000
3680.000000	99.187425
3679.000000	99.173609
3678.000000	99.162099
3677.000000	99.163204
3676.000000	99.181913
3675.000000	99.205620
3674.000000	99.216633
3673.000000	99.215659
3672.000000	99.210767
3671.000000	99.203752
3670.000000	99.195940
3669.000000	99.188847
3668.000000	99.183775
3667.000000	99.182074
3666.000000	99.180602
3665.000000	99.175105
3664.000000	99.166085
3663.000000	99.156886
3662.000000	99.149700
3661.000000	99.144658
3660.000000	99.141829
3659.000000	99.142581
3658.000000	99.147846
3657.000000	99.154979
3656.000000	99.158351
3655.000000	99.155177
3654.000000	99.149253
3653.000000	99.145121
3652.000000	99.142193
3651.000000	99.136947
3650.000000	99.127497
3649.000000	99.115784
3648.000000	99.106141
3647.000000	99.100935
3646.000000	99.098434
3645.000000	99.095915
3644.000000	99.093111
3643.000000	99.091809
3642.000000	99.093204
3641.000000	99.096716
3640.000000	99.100920
3639.000000	99.104397
3638.000000	99.105528
3637.000000	99.103245
3636.000000	99.098482
3635.000000	99.093399
3634.000000	99.089250
3633.000000	99.085960
3632.000000	99.083668
3631.000000	99.082430
3630.000000	99.080211
3629.000000	99.073405
3628.000000	99.060903
3627.000000	99.048624
3626.000000	99.044121
3625.000000	99.045556
3624.000000	99.046185
3623.000000	99.043619
3622.000000	99.038286
3621.000000	99.029615
3620.000000	99.016377
3619.000000	99.000139
3618.000000	98.985990
3617.000000	98.978752
3616.000000	98.979058
3615.000000	98.982743
3614.000000	98.984169
3613.000000	98.980224
3612.000000	98.972515
3611.000000	98.965514
3610.000000	98.961518
3609.000000	98.958503
3608.000000	98.953345
3607.000000	98.945812
3606.000000	98.938525
3605.000000	98.933390
3604.000000	98.929501
3603.000000	98.925149
3602.000000	98.919945
3601.000000	98.914439
3600.000000	98.909107
3599.000000	98.904188
3598.000000	98.899390
3597.000000	98.893047
3596.000000	98.883110
3595.000000	98.869182
3594.000000	98.853302
3593.000000	98.838508
3592.000000	98.827117
3591.000000	98.819828
3590.000000	98.816214
3589.000000	98.815165
3588.000000	98.814202
3587.000000	98.810038
3586.000000	98.802716
3585.000000	98.796815
3584.000000	98.795173
3583.000000	98.795224
3582.000000	98.792562
3581.000000	98.784778
3580.000000	98.772683
3579.000000	98.759643
3578.000000	98.749174
3577.000000	98.742164
3576.000000	98.736407
3575.000000	98.728733
3574.000000	98.717541
3573.000000	98.703595
3572.000000	98.689039
3571.000000	98.676052
3570.000000	98.666130
3569.000000	98.659608
3568.000000	98.654925
3567.000000	98.648959
3566.000000	98.640128
3565.000000	98.630676
3564.000000	98.622988
3563.000000	98.615662
3562.000000	98.606518
3561.000000	98.596516
3560.000000	98.588289
3559.000000	98.582274
3558.000000	98.576019
3557.000000	98.567014
3556.000000	98.554976
3555.000000	98.541307
3554.000000	98.527351
3553.000000	98.513853
3552.000000	98.501764
3551.000000	98.492407
3550.000000	98.486267
3549.000000	98.481929
3548.000000	98.476800
3547.000000	98.469211
3546.000000	98.459904
3545.000000	98.451493
3544.000000	98.445993
3543.000000	98.442311
3542.000000	98.436477
3541.000000	98.425320
3540.000000	98.409879
3539.000000	98.394643
3538.000000	98.383039
3537.000000	98.374251
3536.000000	98.364986
3535.000000	98.353779
3534.000000	98.342278
3533.000000	98.332716
3532.000000	98.325884
3531.000000	98.321512
3530.000000	98.319012
3529.000000	98.317049
3528.000000	98.313521
3527.000000	98.307120
3526.000000	98.298636
3525.000000	98.289792
3524.000000	98.281047
3523.000000	98.271348
3522.000000	98.260015
3521.000000	98.248192
3520.000000	98.237994
3519.000000	98.230461
3518.000000	98.224529
3517.000000	98.217804
3516.000000	98.208447
3515.000000	98.196409
3514.000000	98.183061
3513.000000	98.169879
3512.000000	98.157564
3511.000000	98.146227
3510.000000	98.136177
3509.000000	98.128292
3508.000000	98.123478
3507.000000	98.121758
3506.000000	98.121796
3505.000000	98.121289
3504.000000	98.118244
3503.000000	98.112300
3502.000000	98.104847
3501.000000	98.097521
3500.000000	98.090517
3499.000000	98.082769
3498.000000	98.073701
3497.000000	98.064231
3496.000000	98.055659
3495.000000	98.048021
3494.000000	98.040257
3493.000000	98.032010
3492.000000	98.024480
3491.000000	98.019012
3490.000000	98.015130
3489.000000	98.010470
3488.000000	98.002867
3487.000000	97.992305
3486.000000	97.980684
3485.000000	97.969936
3484.000000	97.960858
3483.000000	97.953592
3482.000000	97.948382
3481.000000	97.945244
3480.000000	97.943294
3479.000000	97.941232
3478.000000	97.938567
3477.000000	97.935676
3476.000000	97.932299
3475.000000	97.926750
3474.000000	97.917719
3473.000000	97.906617
3472.000000	97.896770
3471.000000	97.889858
3470.000000	97.884083
3469.000000	97.876419
3468.000000	97.865865
3467.000000	97.853888
3466.000000	97.842508
3465.000000	97.833154
3464.000000	97.826949
3463.000000	97.824397
3462.000000	97.824087
3461.000000	97.822636
3460.000000	97.817075
3459.000000	97.807311
3458.000000	97.795926
3457.000000	97.785822
3456.000000	97.778363
3455.000000	97.773335
3454.000000	97.769907
3453.000000	97.767203
3452.000000	97.764470
3451.000000	97.761509
3450.000000	97.759027
3449.000000	97.757787
3448.000000	97.756975
3447.000000	97.753963
3446.000000	97.746621
3445.000000	97.735537
3444.000000	97.723051
3443.000000	97.710747
3442.000000	97.699058
3441.000000	97.688964
3440.000000	97.682468
3439.000000	97.680485
3438.000000	97.680864
3437.000000	97.679625
3436.000000	97.674413
3435.000000	97.666289
3434.000000	97.658235
3433.000000	97.652352
3432.000000	97.648557
3431.000000	97.645304
3430.000000	97.641052
3429.000000	97.635134
3428.000000	97.627843
3427.000000	97.620158
3426.000000	97.613426
3425.000000	97.608862
3424.000000	97.606616
3423.000000	97.605006
3422.000000	97.601107
3421.000000	97.593046
3420.000000	97.582196
3419.000000	97.572659
3418.000000	97.567833
3417.000000	97.567119
3416.000000	97.565882
3415.000000	97.558930
3414.000000	97.544911
3413.000000	97.527847
3412.000000	97.513984
3411.000000	97.506754
3410.000000	97.504727
3409.000000	97.504163
3408.000000	97.502739
3407.000000	97.500346
3406.000000	97.497142
3405.000000	97.492274
3404.000000	97.484846
3403.000000	97.475324
3402.000000	97.465503
3401.000000	97.457352
3400.000000	97.451899
3399.000000	97.448451
3398.000000	97.444490
3397.000000	97.437040
3396.000000	97.425088
3395.000000	97.410711
3394.000000	97.397402
3393.000000	97.387248
3392.000000	97.379863
3391.000000	97.373930
3390.000000	97.369192
3389.000000	97.366496
3388.000000	97.366126
3387.000000	97.366652
3386.000000	97.365609
3385.000000	97.361059
3384.000000	97.352314
3383.000000	97.339601
3382.000000	97.323931
3381.000000	97.307566
3380.000000	97.293836
3379.000000	97.285313
3378.000000	97.281699
3377.000000	97.279756
3376.000000	97.275583
3375.000000	97.267317
3374.000000	97.256149
3373.000000	97.245112
3372.000000	97.236660
3371.000000	97.230848
3370.000000	97.225454
3369.000000	97.217885
3368.000000	97.207093
3367.000000	97.193877
3366.000000	97.179749
3365.000000	97.165969
3364.000000	97.153543
3363.000000	97.143463
3362.000000	97.136177
3361.000000	97.130554
3360.000000	97.123793
3359.000000	97.113080
3358.000000	97.097709
3357.000000	97.079378
3356.000000	97.060267
3355.000000	97.041313
3354.000000	97.022733
3353.000000	97.005564
3352.000000	96.991459
3351.000000	96.980714
3350.000000	96.971419
3349.000000	96.961050
3348.000000	96.948481
3347.000000	96.934317
3346.000000	96.919942
3345.000000	96.906568
3344.000000	96.894480
3343.000000	96.882607
3342.000000	96.869215
3341.000000	96.853651
3340.000000	96.837296
3339.000000	96.822535
3338.000000	96.810952
3337.000000	96.802295
3336.000000	96.794421
3335.000000	96.784082
3334.000000	96.768855
3333.000000	96.749238
3332.000000	96.728548
3331.000000	96.710247
3330.000000	96.695566
3329.000000	96.683771
3328.000000	96.673714
3327.000000	96.664461
3326.000000	96.655195
3325.000000	96.645607
3324.000000	96.636142
3323.000000	96.627071
3322.000000	96.617647
3321.000000	96.606969
3320.000000	96.595230
3319.000000	96.583285
3318.000000	96.571483
3317.000000	96.559881
3316.000000	96.549292
3315.000000	96.540851
3314.000000	96.534418
3313.000000	96.528369
3312.000000	96.521065
3311.000000	96.511887
3310.000000	96.501089
3309.000000	96.489626
3308.000000	96.479056
3307.000000	96.470426
3306.000000	96.462923
3305.000000	96.454494
3304.000000	96.444045
3303.000000	96.432529
3302.000000	96.421929
3301.000000	96.413940
3300.000000	96.409546
3299.000000	96.408644
3298.000000	96.409687
3297.000000	96.410494
3296.000000	96.409775
3295.000000	96.407339
3294.000000	96.402923
3293.000000	96.396182
3292.000000	96.388159
3291.000000	96.381335
3290.000000	96.377235
3289.000000	96.374783
3288.000000	96.371877
3287.000000	96.367997
3286.000000	96.364482
3285.000000	96.362844
3284.000000	96.363464
3283.000000	96.365320
3282.000000	96.366228
3281.000000	96.364118
3280.000000	96.359320
3279.000000	96.355299
3278.000000	96.356076
3277.000000	96.362668
3276.000000	96.372576
3275.000000	96.382701
3274.000000	96.391706
3273.000000	96.399501
3272.000000	96.405666
3271.000000	96.409296
3270.000000	96.410133
3269.000000	96.409216
3268.000000	96.408313
3267.000000	96.408841
3266.000000	96.411199
3265.000000	96.415032
3264.000000	96.420160
3263.000000	96.427066
3262.000000	96.436173
3261.000000	96.446781
3260.000000	96.457167
3259.000000	96.465940
3258.000000	96.473187
3257.000000	96.480245
3256.000000	96.488527
3255.000000	96.498511
3254.000000	96.509486
3253.000000	96.520004
3252.000000	96.528781
3251.000000	96.535567
3250.000000	96.541351
3249.000000	96.547694
3248.000000	96.555722
3247.000000	96.565418
3246.000000	96.575469
3245.000000	96.583748
3244.000000	96.588500
3243.000000	96.589649
3242.000000	96.588986
3241.000000	96.588903
3240.000000	96.590842
3239.000000	96.594995
3238.000000	96.601094
3237.000000	96.608816
3236.000000	96.617391
3235.000000	96.625761
3234.000000	96.633821
3233.000000	96.642889
3232.000000	96.653959
3231.000000	96.665506
3230.000000	96.674001
3229.000000	96.677049
3228.000000	96.675731
3227.000000	96.673884
3226.000000	96.675381
3225.000000	96.681860
3224.000000	96.691918
3223.000000	96.702069
3222.000000	96.709454
3221.000000	96.714409
3220.000000	96.720006
3219.000000	96.728334
3218.000000	96.737719
3217.000000	96.744547
3216.000000	96.747289
3215.000000	96.747747
3214.000000	96.748364
3213.000000	96.749482
3212.000000	96.749835
3211.000000	96.749098
3210.000000	96.749108
3209.000000	96.752321
3208.000000	96.759379
3207.000000	96.768474
3206.000000	96.777166
3205.000000	96.784441
3204.000000	96.790646
3203.000000	96.795858
3202.000000	96.799429
3201.000000	96.801529
3200.000000	96.804081
3199.000000	96.809196
3198.000000	96.817065
3197.000000	96.826114
3196.000000	96.834647
3195.000000	96.841554
3194.000000	96.846186
3193.000000	96.849093
3192.000000	96.852799
3191.000000	96.860239
3190.000000	96.871903
3189.000000	96.885433
3188.000000	96.898209
3187.000000	96.909283
3186.000000	96.918630
3185.000000	96.926062
3184.000000	96.931821
3183.000000	96.937224
3182.000000	96.943696
3181.000000	96.951631
3180.000000	96.960775
3179.000000	96.970940
3178.000000	96.981661
3177.000000	96.992099
3176.000000	97.002404
3175.000000	97.014414
3174.000000	97.029566
3173.000000	97.046262
3172.000000	97.060449
3171.000000	97.069053
3170.000000	97.072270
3169.000000	97.072931
3168.000000	97.074762
3167.000000	97.080893
3166.000000	97.092267
3165.000000	97.106516
3164.000000	97.119341
3163.000000	97.127957
3162.000000	97.133176
3161.000000	97.137996
3160.000000	97.144846
3159.000000	97.154333
3158.000000	97.165384
3157.000000	97.175625
3156.000000	97.182552
3155.000000	97.185981
3154.000000	97.189335
3153.000000	97.196957
3152.000000	97.209456
3151.000000	97.222724
3150.000000	97.232421
3149.000000	97.238753
3148.000000	97.245680
3147.000000	97.255790
3146.000000	97.267431
3145.000000	97.277304
3144.000000	97.284620
3143.000000	97.291543
3142.000000	97.300134
3141.000000	97.310214
3140.000000	97.320293
3139.000000	97.329214
3138.000000	97.336280
3137.000000	97.340766
3136.000000	97.342265
3135.000000	97.341356
3134.000000	97.339541
3133.000000	97.338906
3132.000000	97.341836
3131.000000	97.349804
3130.000000	97.361406
3129.000000	97.372445
3128.000000	97.379427
3127.000000	97.382899
3126.000000	97.386143
3125.000000	97.390613
3124.000000	97.394209
3123.000000	97.394399
3122.000000	97.391585
3121.000000	97.388572
3120.000000	97.387881
3119.000000	97.390454
3118.000000	97.395778
3117.000000	97.402005
3116.000000	97.406753
3115.000000	97.409183
3114.000000	97.410765
3113.000000	97.412747
3112.000000	97.413574
3111.000000	97.410560
3110.000000	97.404098
3109.000000	97.398272
3108.000000	97.396422
3107.000000	97.397348
3106.000000	97.396935
3105.000000	97.392724
3104.000000	97.386006
3103.000000	97.379844
3102.000000	97.375839
3101.000000	97.372736
3100.000000	97.367904
3099.000000	97.360395
3098.000000	97.352569
3097.000000	97.348248
3096.000000	97.349113
3095.000000	97.353349
3094.000000	97.357865
3093.000000	97.360882
3092.000000	97.361827
3091.000000	97.360003
3090.000000	97.354926
3089.000000	97.347670
3088.000000	97.340379
3087.000000	97.333933
3086.000000	97.327001
3085.000000	97.318123
3084.000000	97.308338
3083.000000	97.300955
3082.000000	97.298453
3081.000000	97.299876
3080.000000	97.301640
3079.000000	97.300904
3078.000000	97.297802
3077.000000	97.294229
3076.000000	97.291228
3075.000000	97.288528
3074.000000	97.286218
3073.000000	97.285440
3072.000000	97.286885
3071.000000	97.289717
3070.000000	97.292779
3069.000000	97.295973
3068.000000	97.299450
3067.000000	97.302137
3066.000000	97.302502
3065.000000	97.300843
3064.000000	97.299625
3063.000000	97.301291
3062.000000	97.306449
3061.000000	97.314116
3060.000000	97.322678
3059.000000	97.330371
3058.000000	97.335944
3057.000000	97.339718
3056.000000	97.343607
3055.000000	97.349510
3054.000000	97.357684
3053.000000	97.366705
3052.000000	97.374678
3051.000000	97.380573
3050.000000	97.385061
3049.000000	97.390280
3048.000000	97.398178
3047.000000	97.408747
3046.000000	97.420226
3045.000000	97.431105
3044.000000	97.441398
3043.000000	97.451750
3042.000000	97.461964
3041.000000	97.470984
3040.000000	97.478120
3039.000000	97.483871
3038.000000	97.489593
3037.000000	97.496501
3036.000000	97.504865
3035.000000	97.513981
3034.000000	97.522821
3033.000000	97.530560
3032.000000	97.536469
3031.000000	97.539994
3030.000000	97.541767
3029.000000	97.544303
3028.000000	97.550629
3027.000000	97.561591
3026.000000	97.574782
3025.000000	97.586291
3024.000000	97.593373
3023.000000	97.595832
3022.000000	97.595785
3021.000000	97.596462
3020.000000	97.600345
3019.000000	97.607502
3018.000000	97.615732
3017.000000	97.622475
3016.000000	97.626548
3015.000000	97.628328
3014.000000	97.629052
3013.000000	97.629972
3012.000000	97.631146
3011.000000	97.630595
3010.000000	97.625652
3009.000000	97.616033
3008.000000	97.605136
3007.000000	97.597524
3006.000000	97.595192
3005.000000	97.596275
3004.000000	97.596693
3003.000000	97.592832
3002.000000	97.583734
3001.000000	97.571844
3000.000000	97.561215
2999.000000	97.554025
2998.000000	97.548765
2997.000000	97.542266
2996.000000	97.532937
2995.000000	97.521269
2994.000000	97.507872
2993.000000	97.492565
2992.000000	97.475520
2991.000000	97.457854
2990.000000	97.440388
2989.000000	97.422485
2988.000000	97.402807
2987.000000	97.380787
2986.000000	97.356868
2985.000000	97.331715
2984.000000	97.305784
2983.000000	97.279558
2982.000000	97.253428
2981.000000	97.226832
2980.000000	97.197824
2979.000000	97.164277
2978.000000	97.126104
2977.000000	97.085873
2976.000000	97.046420
2975.000000	97.007837
2974.000000	96.967442
2973.000000	96.922745
2972.000000	96.873521
2971.000000	96.820802
2970.000000	96.765353
2969.000000	96.708349
2968.000000	96.652587
2967.000000	96.601080
2966.000000	96.554071
2965.000000	96.508748
2964.000000	96.462595
2963.000000	96.416682
2962.000000	96.375278
2961.000000	96.342682
2960.000000	96.320521
2959.000000	96.307533
2958.000000	96.301566
2957.000000	96.301662
2956.000000	96.308472
2955.000000	96.322571
2954.000000	96.342816
2953.000000	96.366727
2952.000000	96.392110
2951.000000	96.417623
2950.000000	96.441260
2949.000000	96.459129
2948.000000	96.466528
2947.000000	96.460779
2946.000000	96.443078
2945.000000	96.417306
2944.000000	96.386902
2943.000000	96.352498
2942.000000	96.312580
2941.000000	96.265996
2940.000000	96.213559
2939.000000	96.157325
2938.000000	96.098949
2937.000000	96.039213
2936.000000	95.978749
2935.000000	95.919110
2934.000000	95.863245
2933.000000	95.814866
2932.000000	95.776405
2931.000000	95.746828
2930.000000	95.721861
2929.000000	95.697191
2928.000000	95.671974
2927.000000	95.649358
2926.000000	95.633906
2925.000000	95.628669
2924.000000	95.634019
2923.000000	95.648508
2922.000000	95.670479
2921.000000	95.699163
2920.000000	95.734599
2919.000000	95.776784
2918.000000	95.825442
2917.000000	95.880454
2916.000000	95.941818
2915.000000	96.008585
2914.000000	96.078158
2913.000000	96.147305
2912.000000	96.213801
2911.000000	96.276920
2910.000000	96.336576
2909.000000	96.392611
2908.000000	96.444964
2907.000000	96.493841
2906.000000	96.539487
2905.000000	96.582168
2904.000000	96.622740
2903.000000	96.662883
2902.000000	96.704280
2901.000000	96.747371
2900.000000	96.790945
2899.000000	96.833188
2898.000000	96.873225
2897.000000	96.911681
2896.000000	96.949699
2895.000000	96.987256
2894.000000	97.022620
2893.000000	97.053734
2892.000000	97.080148
2891.000000	97.103501
2890.000000	97.125912
2889.000000	97.147730
2888.000000	97.166694
2887.000000	97.179367
2886.000000	97.183810
2885.000000	97.181008
2884.000000	97.173731
2883.000000	97.164119
2882.000000	97.152549
2881.000000	97.138417
2880.000000	97.121209
2879.000000	97.100840
2878.000000	97.077890
2877.000000	97.054158
2876.000000	97.032278
2875.000000	97.014086
2874.000000	96.999654
2873.000000	96.988307
2872.000000	96.980193
2871.000000	96.976157
2870.000000	96.976223
2869.000000	96.978728
2868.000000	96.981001
2867.000000	96.980651
2866.000000	96.976413
2865.000000	96.968069
2864.000000	96.955415
2863.000000	96.937461
2862.000000	96.913378
2861.000000	96.884613
2860.000000	96.855084
2859.000000	96.828423
2858.000000	96.805554
2857.000000	96.785889
2856.000000	96.770352
2855.000000	96.761868
2854.000000	96.763206
2853.000000	96.775507
2852.000000	96.799063
2851.000000	96.834400
2850.000000	96.881912
2849.000000	96.940978
2848.000000	97.009703
2847.000000	97.084942
2846.000000	97.162468
2845.000000	97.238041
2844.000000	97.308804
2843.000000	97.373624
2842.000000	97.432012
2841.000000	97.483261
2840.000000	97.527067
2839.000000	97.564358
2838.000000	97.596979
2837.000000	97.626611
2836.000000	97.653903
2835.000000	97.678316
2834.000000	97.698799
2833.000000	97.715082
2832.000000	97.728513
2831.000000	97.741243
2830.000000	97.754499
2829.000000	97.768077
2828.000000	97.781305
2827.000000	97.793662
2826.000000	97.804369
2825.000000	97.812409
2824.000000	97.817714
2823.000000	97.821881
2822.000000	97.827187
2821.000000	97.835088
2820.000000	97.845665
2819.000000	97.857740
2818.000000	97.869118
2817.000000	97.877505
2816.000000	97.882178
2815.000000	97.884694
2814.000000	97.887577
2813.000000	97.892413
2812.000000	97.899251
2811.000000	97.907149
2810.000000	97.914853
2809.000000	97.921622
2808.000000	97.928157
2807.000000	97.936210
2806.000000	97.946420
2805.000000	97.956832
2804.000000	97.964443
2803.000000	97.968199
2802.000000	97.969671
2801.000000	97.970969
2800.000000	97.972989
2799.000000	97.975815
2798.000000	97.979667
2797.000000	97.984627
2796.000000	97.989911
2795.000000	97.994206
2794.000000	97.996774
2793.000000	97.998048
2792.000000	97.999327
2791.000000	98.002108
2790.000000	98.007402
2789.000000	98.015298
2788.000000	98.025091
2787.000000	98.035812
2786.000000	98.046380
2785.000000	98.055322
2784.000000	98.061037
2783.000000	98.062992
2782.000000	98.062566
2781.000000	98.062189
2780.000000	98.063441
2779.000000	98.066189
2778.000000	98.069409
2777.000000	98.072416
2776.000000	98.075203
2775.000000	98.077949
2774.000000	98.080546
2773.000000	98.082642
2772.000000	98.084077
2771.000000	98.085309
2770.000000	98.087304
2769.000000	98.090787
2768.000000	98.095645
2767.000000	98.101327
2766.000000	98.107679
2765.000000	98.114729
2764.000000	98.121509
2763.000000	98.125973
2762.000000	98.127084
2761.000000	98.126737
2760.000000	98.128538
2759.000000	98.134251
2758.000000	98.141878
2757.000000	98.147520
2756.000000	98.148909
2755.000000	98.147068
2754.000000	98.145030
2753.000000	98.145346
2752.000000	98.148506
2751.000000	98.153224
2750.000000	98.157980
2749.000000	98.162138
2748.000000	98.165667
2747.000000	98.168281
2746.000000	98.169635
2745.000000	98.170377
2744.000000	98.172222
2743.000000	98.176434
2742.000000	98.182517
2741.000000	98.188690
2740.000000	98.193347
2739.000000	98.195890
2738.000000	98.196735
2737.000000	98.197134
2736.000000	98.198679
2735.000000	98.202209
2734.000000	98.206976
2733.000000	98.211157
2732.000000	98.213322
2731.000000	98.213386
2730.000000	98.212467
2729.000000	98.212194
2728.000000	98.213926
2727.000000	98.218075
2726.000000	98.223887
2725.000000	98.229992
2724.000000	98.235300
2723.000000	98.239382
2722.000000	98.242171
2721.000000	98.243645
2720.000000	98.244103
2719.000000	98.244687
2718.000000	98.247174
2717.000000	98.252537
2716.000000	98.259413
2715.000000	98.264493
2714.000000	98.265162
2713.000000	98.261837
2712.000000	98.257404
2711.000000	98.254570
2710.000000	98.254203
2709.000000	98.255755
2708.000000	98.258137
2707.000000	98.260140
2706.000000	98.261232
2705.000000	98.262580
2704.000000	98.266373
2703.000000	98.273355
2702.000000	98.281589
2701.000000	98.288286
2700.000000	98.292226
2699.000000	98.293745
2698.000000	98.293181
2697.000000	98.290608
2696.000000	98.286922
2695.000000	98.284049
2694.000000	98.283560
2693.000000	98.285341
2692.000000	98.287642
2691.000000	98.288362
2690.000000	98.286741
2689.000000	98.284211
2688.000000	98.283273
2687.000000	98.285209
2686.000000	98.289200
2685.000000	98.293753
2684.000000	98.298082
2683.000000	98.301617
2682.000000	98.303383
2681.000000	98.303249
2680.000000	98.303211
2679.000000	98.305887
2678.000000	98.311562
2677.000000	98.317746
2676.000000	98.321675
2675.000000	98.322373
2674.000000	98.320397
2673.000000	98.316941
2672.000000	98.313650
2671.000000	98.312153
2670.000000	98.312788
2669.000000	98.314040
2668.000000	98.313799
2667.000000	98.311215
2666.000000	98.307335
2665.000000	98.304217
2664.000000	98.303375
2663.000000	98.304581
2662.000000	98.306016
2661.000000	98.305765
2660.000000	98.303182
2659.000000	98.298832
2658.000000	98.293785
2657.000000	98.289612
2656.000000	98.288485
2655.000000	98.291941
2654.000000	98.299271
2653.000000	98.307898
2652.000000	98.315436
2651.000000	98.320879
2650.000000	98.324198
2649.000000	98.326208
2648.000000	98.329054
2647.000000	98.335129
2646.000000	98.344296
2645.000000	98.352996
2644.000000	98.357374
2643.000000	98.357044
2642.000000	98.354991
2641.000000	98.354175
2640.000000	98.355272
2639.000000	98.357718
2638.000000	98.361632
2637.000000	98.367648
2636.000000	98.375084
2635.000000	98.381361
2634.000000	98.384070
2633.000000	98.383581
2632.000000	98.383010
2631.000000	98.385399
2630.000000	98.391279
2629.000000	98.399072
2628.000000	98.407069
2627.000000	98.414499
2626.000000	98.421313
2625.000000	98.427760
2624.000000	98.433841
2623.000000	98.438522
2622.000000	98.440069
2621.000000	98.438136
2620.000000	98.435140
2619.000000	98.434447
2618.000000	98.437266
2617.000000	98.442143
2616.000000	98.447040
2615.000000	98.450668
2614.000000	98.452420
2613.000000	98.452907
2612.000000	98.454614
2611.000000	98.459872
2610.000000	98.467375
2609.000000	98.472494
2608.000000	98.472247
2607.000000	98.468774
2606.000000	98.466681
2605.000000	98.468190
2604.000000	98.472284
2603.000000	98.477499
2602.000000	98.483496
2601.000000	98.489794
2600.000000	98.494847
2599.000000	98.497420
2598.000000	98.498369
2597.000000	98.500383
2596.000000	98.505667
2595.000000	98.513554
2594.000000	98.520070
2593.000000	98.520462
2592.000000	98.513622
2591.000000	98.504682
2590.000000	98.502209
2589.000000	98.511024
2588.000000	98.526898
2587.000000	98.539390
2586.000000	98.541272
2585.000000	98.535123
2584.000000	98.529846
2583.000000	98.530755
2582.000000	98.534636
2581.000000	98.534960
2580.000000	98.530242
2579.000000	98.525737
2578.000000	98.527397
2577.000000	98.535694
2576.000000	98.545360
2575.000000	98.550193
2574.000000	98.548077
2573.000000	98.542131
2572.000000	98.537630
2571.000000	98.537887
2570.000000	98.543063
2569.000000	98.552032
2568.000000	98.563743
2567.000000	98.576314
2566.000000	98.586389
2565.000000	98.590813
2564.000000	98.588815
2563.000000	98.582310
2562.000000	98.574651
2561.000000	98.568971
2560.000000	98.566072
2559.000000	98.563662
2558.000000	98.559589
2557.000000	98.556166
2556.000000	98.558570
2555.000000	98.567658
2554.000000	98.577490
2553.000000	98.582411
2552.000000	98.583774
2551.000000	98.586357
2550.000000	98.590386
2549.000000	98.591564
2548.000000	98.587898
2547.000000	98.581995
2546.000000	98.576688
2545.000000	98.572695
2544.000000	98.571193
2543.000000	98.574355
2542.000000	98.581475
2541.000000	98.587750
2540.000000	98.589050
2539.000000	98.585911
2538.000000	98.581659
2537.000000	98.579039
2536.000000	98.580038
2535.000000	98.586160
2534.000000	98.596115
2533.000000	98.604496
2532.000000	98.605103
2531.000000	98.595912
2530.000000	98.580505
2529.000000	98.565731
2528.000000	98.557998
2527.000000	98.559535
2526.000000	98.566577
2525.000000	98.572163
2524.000000	98.571808
2523.000000	98.566256
2522.000000	98.559151
2521.000000	98.554014
2520.000000	98.553618
2519.000000	98.559492
2518.000000	98.570028
2517.000000	98.580530
2516.000000	98.587009
2515.000000	98.589276
2514.000000	98.589520
2513.000000	98.589201
2512.000000	98.588471
2511.000000	98.587301
2510.000000	98.585654
2509.000000	98.583479
2508.000000	98.581865
2507.000000	98.583274
2506.000000	98.589157
2505.000000	98.597887
2504.000000	98.606378
2503.000000	98.613486
2502.000000	98.620766
2501.000000	98.630077
2500.000000	98.641146
2499.000000	98.651154
2498.000000	98.656349
2497.000000	98.654792
2496.000000	98.648153
2495.000000	98.640312
2494.000000	98.633851
2493.000000	98.628889
2492.000000	98.625491
2491.000000	98.625249
2490.000000	98.629003
2489.000000	98.634468
2488.000000	98.638517
2487.000000	98.641469
2486.000000	98.646947
2485.000000	98.656951
2484.000000	98.668708
2483.000000	98.677540
2482.000000	98.681946
2481.000000	98.684543
2480.000000	98.688195
2479.000000	98.692158
2478.000000	98.692578
2477.000000	98.686743
2476.000000	98.676479
2475.000000	98.667373
2474.000000	98.664564
2473.000000	98.668906
2472.000000	98.676714
2471.000000	98.683060
2470.000000	98.685663
2469.000000	98.685836
2468.000000	98.685814
2467.000000	98.685760
2466.000000	98.684069
2465.000000	98.680304
2464.000000	98.676616
2463.000000	98.675780
2462.000000	98.678666
2461.000000	98.684036
2460.000000	98.689853
2459.000000	98.694064
2458.000000	98.694994
2457.000000	98.692138
2456.000000	98.686532
2455.000000	98.680156
2454.000000	98.675559
2453.000000	98.675950
2452.000000	98.683659
2451.000000	98.697109
2450.000000	98.710564
2449.000000	98.718606
2448.000000	98.720486
2447.000000	98.719223
2446.000000	98.717610
2445.000000	98.716658
2444.000000	98.716547
2443.000000	98.716352
2442.000000	98.713305
2441.000000	98.705132
2440.000000	98.694000
2439.000000	98.686118
2438.000000	98.686369
2437.000000	98.694074
2436.000000	98.704215
2435.000000	98.711554
2434.000000	98.713361
2433.000000	98.710140
2432.000000	98.705217
2431.000000	98.702731
2430.000000	98.704592
2429.000000	98.709129
2428.000000	98.713127
2427.000000	98.715155
2426.000000	98.716467
2425.000000	98.718542
2424.000000	98.720389
2423.000000	98.719220
2422.000000	98.714280
2421.000000	98.709052
2420.000000	98.708361
2419.000000	98.713377
2418.000000	98.720720
2417.000000	98.726503
2416.000000	98.729741
2415.000000	98.731565
2414.000000	98.733007
2413.000000	98.734496
2412.000000	98.736041
2411.000000	98.736816
2410.000000	98.735671
2409.000000	98.732993
2408.000000	98.730837
2407.000000	98.730430
2406.000000	98.730905
2405.000000	98.731194
2404.000000	98.731316
2403.000000	98.730828
2402.000000	98.728271
2401.000000	98.723929
2400.000000	98.721319
2399.000000	98.723800
2398.000000	98.730935
2397.000000	98.739718
2396.000000	98.747668
2395.000000	98.752819
2394.000000	98.752897
2393.000000	98.747598
2392.000000	98.740627
2391.000000	98.736526
2390.000000	98.736019
2389.000000	98.736942
2388.000000	98.738990
2387.000000	98.744110
2386.000000	98.752283
2385.000000	98.759928
2384.000000	98.763760
2383.000000	98.764600
2382.000000	98.766145
2381.000000	98.771319
2380.000000	98.779734
2379.000000	98.787581
2378.000000	98.790340
2377.000000	98.787021
2376.000000	98.781748
2375.000000	98.779588
2374.000000	98.781622
2373.000000	98.786011
2372.000000	98.792750
2371.000000	98.803657
2370.000000	98.817648
2369.000000	98.829672
2368.000000	98.834854
2367.000000	98.831927
2366.000000	98.823040
2365.000000	98.812962
2364.000000	98.807056
2363.000000	98.805876
2362.000000	98.804805
2361.000000	98.801811
2360.000000	98.799760
2359.000000	98.802024
2358.000000	98.806625
2357.000000	98.808179
2356.000000	98.805805
2355.000000	98.800293
2354.000000	98.793319
2353.000000	98.786540
2352.000000	98.782949
2351.000000	98.784023
2350.000000	98.786176
2349.000000	98.784353
2348.000000	98.776327
2347.000000	98.765876
2346.000000	98.758019
2345.000000	98.753527
2344.000000	98.752670
2343.000000	98.756219
2342.000000	98.765125
2341.000000	98.776253
2340.000000	98.784371
2339.000000	98.786370
2338.000000	98.781904
2337.000000	98.772410
2336.000000	98.760207
2335.000000	98.749063
2334.000000	98.741854
2333.000000	98.739607
2332.000000	98.739925
2331.000000	98.741603
2330.000000	98.742945
2329.000000	98.743855
2328.000000	98.738573
2327.000000	98.720762
2326.000000	98.688935
2325.000000	98.652996
2324.000000	98.629262
2323.000000	98.626614
2322.000000	98.639022
2321.000000	98.653076
2320.000000	98.661869
2319.000000	98.668772
2318.000000	98.676581
2317.000000	98.684470
2316.000000	98.689762
2315.000000	98.693573
2314.000000	98.696113
2313.000000	98.697805
2312.000000	98.700287
2311.000000	98.708193
2310.000000	98.721673
2309.000000	98.735370
2308.000000	98.742656
2307.000000	98.742477
2306.000000	98.737352
2305.000000	98.730101
2304.000000	98.722661
2303.000000	98.716794
2302.000000	98.711872
2301.000000	98.705809
2300.000000	98.698108
2299.000000	98.692697
2298.000000	98.692232
2297.000000	98.694801
2296.000000	98.695337
2295.000000	98.692527
2294.000000	98.688963
2293.000000	98.687975
2292.000000	98.690608
2291.000000	98.696278
2290.000000	98.702891
2289.000000	98.706449
2288.000000	98.702855
2287.000000	98.691341
2286.000000	98.676398
2285.000000	98.665037
2284.000000	98.662262
2283.000000	98.667954
2282.000000	98.678795
2281.000000	98.691751
2280.000000	98.704746
2279.000000	98.713783
2278.000000	98.713611
2277.000000	98.704175
2276.000000	98.693856
2275.000000	98.692500
2274.000000	98.702102
2273.000000	98.718130
2272.000000	98.737370
2271.000000	98.759513
2270.000000	98.781729
2269.000000	98.798213
2268.000000	98.806554
2267.000000	98.809667
2266.000000	98.809574
2265.000000	98.803970
2264.000000	98.791172
2263.000000	98.775169
2262.000000	98.763162
2261.000000	98.759102
2260.000000	98.760124
2259.000000	98.758322
2258.000000	98.748690
2257.000000	98.736966
2256.000000	98.736123
2255.000000	98.750621
2254.000000	98.768136
2253.000000	98.773614
2252.000000	98.767892
2251.000000	98.764810
2250.000000	98.772632
2249.000000	98.787534
2248.000000	98.802846
2247.000000	98.814209
2246.000000	98.816144
2245.000000	98.805139
2244.000000	98.788607
2243.000000	98.780227
2242.000000	98.782982
2241.000000	98.786209
2240.000000	98.782299
2239.000000	98.776614
2238.000000	98.776863
2237.000000	98.783157
2236.000000	98.793795
2235.000000	98.810910
2234.000000	98.832980
2233.000000	98.849756
2232.000000	98.852052
2231.000000	98.840427
2230.000000	98.819072
2229.000000	98.789834
2228.000000	98.759026
2227.000000	98.740826
2226.000000	98.744266
2225.000000	98.762151
2224.000000	98.781292
2223.000000	98.798722
2222.000000	98.819379
2221.000000	98.842370
2220.000000	98.859315
2219.000000	98.864719
2218.000000	98.860440
2217.000000	98.851713
2216.000000	98.844632
2215.000000	98.844702
2214.000000	98.851431
2213.000000	98.856065
2212.000000	98.850199
2211.000000	98.835828
2210.000000	98.822793
2209.000000	98.818568
2208.000000	98.824516
2207.000000	98.839247
2206.000000	98.859980
2205.000000	98.880619
2204.000000	98.892781
2203.000000	98.890215
2202.000000	98.872599
2201.000000	98.847525
2200.000000	98.828717
2199.000000	98.827635
2198.000000	98.844669
2197.000000	98.869797
2196.000000	98.891536
2195.000000	98.902985
2194.000000	98.902279
2193.000000	98.894143
2192.000000	98.890101
2191.000000	98.897982
2190.000000	98.910506
2189.000000	98.913022
2188.000000	98.904041
2187.000000	98.898564
2186.000000	98.907449
2185.000000	98.923106
2184.000000	98.931325
2183.000000	98.929868
2182.000000	98.927226
2181.000000	98.927322
2180.000000	98.922959
2179.000000	98.904130
2178.000000	98.870688
2177.000000	98.838014
2176.000000	98.827378
2175.000000	98.844758
2174.000000	98.870998
2173.000000	98.879991
2172.000000	98.865399
2171.000000	98.842249
2170.000000	98.826328
2169.000000	98.821862
2168.000000	98.826585
2167.000000	98.838045
2166.000000	98.853669
2165.000000	98.872981
2164.000000	98.898967
2163.000000	98.927825
2162.000000	98.942331
2161.000000	98.934055
2160.000000	98.931615
2159.000000	98.979381
2158.000000	99.073981
2157.000000	99.154881
2156.000000	99.175985
2155.000000	99.151428
2154.000000	99.122111
2153.000000	99.108785
2152.000000	99.104718
2151.000000	99.095926
2150.000000	99.080430
2149.000000	99.072680
2148.000000	99.089690
2147.000000	99.127967
2146.000000	99.157535
2145.000000	99.148263
2144.000000	99.101352
2143.000000	99.044792
2142.000000	99.001370
2141.000000	98.973990
2140.000000	98.958730
2139.000000	98.956784
2138.000000	98.969041
2137.000000	98.989283
2136.000000	99.008726
2135.000000	99.022223
2134.000000	99.027631
2133.000000	99.025258
2132.000000	99.019653
2131.000000	99.015622
2130.000000	99.011199
2129.000000	98.999564
2128.000000	98.978321
2127.000000	98.952388
2126.000000	98.927995
2125.000000	98.908209
2124.000000	98.893779
2123.000000	98.883796
2122.000000	98.876069
2121.000000	98.870851
2120.000000	98.872345
2119.000000	98.880997
2118.000000	98.885942
2117.000000	98.872491
2116.000000	98.839065
2115.000000	98.801276
2114.000000	98.777660
2113.000000	98.775121
2112.000000	98.787352
2111.000000	98.801846
2110.000000	98.807294
2109.000000	98.799286
2108.000000	98.782775
2107.000000	98.767704
2106.000000	98.762166
2105.000000	98.770017
2104.000000	98.790473
2103.000000	98.815585
2102.000000	98.832412
2101.000000	98.834482
2100.000000	98.829427
2099.000000	98.829405
2098.000000	98.837806
2097.000000	98.851375
2096.000000	98.869385
2095.000000	98.890165
2094.000000	98.903233
2093.000000	98.898748
2092.000000	98.883561
2091.000000	98.873951
2090.000000	98.872213
2089.000000	98.863630
2088.000000	98.839912
2087.000000	98.814008
2086.000000	98.804850
2085.000000	98.816186
2084.000000	98.836002
2083.000000	98.851083
2082.000000	98.857314
2081.000000	98.859586
2080.000000	98.865434
2079.000000	98.875869
2078.000000	98.882738
2077.000000	98.879884
2076.000000	98.873732
2075.000000	98.874406
2074.000000	98.878454
2073.000000	98.873108
2072.000000	98.858420
2071.000000	98.850707
2070.000000	98.860713
2069.000000	98.879846
2068.000000	98.893519
2067.000000	98.897692
2066.000000	98.896597
2065.000000	98.893700
2064.000000	98.890060
2063.000000	98.884505
2062.000000	98.873264
2061.000000	98.857525
2060.000000	98.850761
2059.000000	98.866657
2058.000000	98.899504
2057.000000	98.929782
2056.000000	98.948954
2055.000000	98.962236
2054.000000	98.964518
2053.000000	98.937058
2052.000000	98.880012
2051.000000	98.827967
2050.000000	98.817589
2049.000000	98.847183
2048.000000	98.881353
2047.000000	98.894185
2046.000000	98.891173
2045.000000	98.889251
2044.000000	98.893776
2043.000000	98.898088
2042.000000	98.896052
2041.000000	98.893137
2040.000000	98.904565
2039.000000	98.936126
2038.000000	98.970871
2037.000000	98.988118
2036.000000	98.994732
2035.000000	99.017387
2034.000000	99.058958
2033.000000	99.089364
2032.000000	99.091502
2031.000000	99.086922
2030.000000	99.096236
2029.000000	99.102700
2028.000000	99.079147
2027.000000	99.034049
2026.000000	99.006128
2025.000000	99.021420
2024.000000	99.070733
2023.000000	99.121111
2022.000000	99.139956
2021.000000	99.116486
2020.000000	99.072598
2019.000000	99.045127
2018.000000	99.050232
2017.000000	99.069829
2016.000000	99.075589
2015.000000	99.057943
2014.000000	99.027155
2013.000000	99.002267
2012.000000	99.004470
2011.000000	99.045807
2010.000000	99.117817
2009.000000	99.198250
2008.000000	99.268833
2007.000000	99.317168
2006.000000	99.326306
2005.000000	99.286659
2004.000000	99.220535
2003.000000	99.167635
2002.000000	99.144016
2001.000000	99.130894
2000.000000	99.104790
1999.000000	99.063921
1998.000000	99.021918
1997.000000	98.996118
1996.000000	99.002752
1995.000000	99.044774
1994.000000	99.096525
1993.000000	99.115582
1992.000000	99.084792
1991.000000	99.033461
1990.000000	99.001049
1989.000000	98.995476
1988.000000	98.997270
1987.000000	98.988313
1986.000000	98.967582
1985.000000	98.947244
1984.000000	98.938254
1983.000000	98.933533
1982.000000	98.908391
1981.000000	98.850109
1980.000000	98.787720
1979.000000	98.774820
1978.000000	98.835389
1977.000000	98.940497
1976.000000	99.042011
1975.000000	99.113253
1974.000000	99.149353
1973.000000	99.158077
1972.000000	99.160463
1971.000000	99.174517
1970.000000	99.191561
1969.000000	99.189200
1968.000000	99.169487
1967.000000	99.161181
1966.000000	99.178846
1965.000000	99.204876
1964.000000	99.218577
1963.000000	99.217557
1962.000000	99.205980
1961.000000	99.185385
1960.000000	99.163348
1959.000000	99.151381
1958.000000	99.148734
1957.000000	99.143702
1956.000000	99.132386
1955.000000	99.121019
1954.000000	99.110289
1953.000000	99.095790
1952.000000	99.084409
1951.000000	99.091408
1950.000000	99.117698
1949.000000	99.142751
1948.000000	99.148933
1947.000000	99.139881
1946.000000	99.128219
1945.000000	99.118334
1944.000000	99.108008
1943.000000	99.096897
1942.000000	99.086870
1941.000000	99.081075
1940.000000	99.084506
1939.000000	99.096956
1938.000000	99.107365
1937.000000	99.104528
1936.000000	99.094172
1935.000000	99.093388
1934.000000	99.106787
1933.000000	99.121295
1932.000000	99.124560
1931.000000	99.116807
1930.000000	99.103104
1929.000000	99.084085
1928.000000	99.064570
1927.000000	99.055216
1926.000000	99.059368
1925.000000	99.068086
1924.000000	99.070474
1923.000000	99.069354
1922.000000	99.073902
1921.000000	99.084360
1920.000000	99.091539
1919.000000	99.087698
1918.000000	99.073629
1917.000000	99.058660
1916.000000	99.052856
1915.000000	99.056929
1914.000000	99.061375
1913.000000	99.059602
1912.000000	99.057738
1911.000000	99.067008
1910.000000	99.086183
1909.000000	99.099228
1908.000000	99.097153
1907.000000	99.088092
1906.000000	99.083822
1905.000000	99.088973
1904.000000	99.101109
1903.000000	99.117851
1902.000000	99.132624
1901.000000	99.134913
1900.000000	99.123807
1899.000000	99.111240
1898.000000	99.107183
1897.000000	99.110046
1896.000000	99.111897
1895.000000	99.111097
1894.000000	99.111566
1893.000000	99.115345
1892.000000	99.121254
1891.000000	99.126969
1890.000000	99.128760
1889.000000	99.124350
1888.000000	99.119378
1887.000000	99.122776
1886.000000	99.134604
1885.000000	99.146009
1884.000000	99.149734
1883.000000	99.146460
1882.000000	99.139523
1881.000000	99.129912
1880.000000	99.121527
1879.000000	99.120419
1878.000000	99.126739
1877.000000	99.135378
1876.000000	99.142150
1875.000000	99.146532
1874.000000	99.150085
1873.000000	99.155149
1872.000000	99.165304
1871.000000	99.181549
1870.000000	99.196729
1869.000000	99.199994
1868.000000	99.191608
1867.000000	99.183704
1866.000000	99.180180
1865.000000	99.174326
1864.000000	99.164203
1863.000000	99.155230
1862.000000	99.149303
1861.000000	99.142086
1860.000000	99.133743
1859.000000	99.132057
1858.000000	99.140490
1857.000000	99.152371
1856.000000	99.160585
1855.000000	99.164634
1854.000000	99.165655
1853.000000	99.161790
1852.000000	99.155537
1851.000000	99.153681
1850.000000	99.155300
1849.000000	99.158772
1848.000000	99.169752
1847.000000	99.194774
1846.000000	99.224429
1845.000000	99.237231
1844.000000	99.225205
1843.000000	99.206935
1842.000000	99.199066
1841.000000	99.194606
1840.000000	99.184916
1839.000000	99.173597
1838.000000	99.166490
1837.000000	99.162076
1836.000000	99.156799
1835.000000	99.156585
1834.000000	99.167723
1833.000000	99.185209
1832.000000	99.198439
1831.000000	99.201206
1830.000000	99.195569
1829.000000	99.191667
1828.000000	99.195373
1827.000000	99.199631
1826.000000	99.192779
1825.000000	99.175619
1824.000000	99.163519
1823.000000	99.167855
1822.000000	99.182036
1821.000000	99.193526
1820.000000	99.200066
1819.000000	99.206063
1818.000000	99.212164
1817.000000	99.214560
1816.000000	99.212872
1815.000000	99.214039
1814.000000	99.219035
1813.000000	99.220172
1812.000000	99.212973
1811.000000	99.201539
1810.000000	99.193269
1809.000000	99.186254
1808.000000	99.175315
1807.000000	99.163915
1806.000000	99.158753
1805.000000	99.160030
1804.000000	99.162880
1803.000000	99.164702
1802.000000	99.162845
1801.000000	99.154441
1800.000000	99.143424
1799.000000	99.135427
1798.000000	99.131899
1797.000000	99.128312
1796.000000	99.125015
1795.000000	99.127984
1794.000000	99.137013
1793.000000	99.144186
1792.000000	99.146953
1791.000000	99.152521
1790.000000	99.165277
1789.000000	99.176893
1788.000000	99.182069
1787.000000	99.185531
1786.000000	99.192207
1785.000000	99.198846
1784.000000	99.201632
1783.000000	99.204606
1782.000000	99.206661
1781.000000	99.201262
1780.000000	99.193013
1779.000000	99.190761
1778.000000	99.198122
1777.000000	99.209077
1776.000000	99.223685
1775.000000	99.244766
1774.000000	99.261290
1773.000000	99.256590
1772.000000	99.236629
1771.000000	99.227708
1770.000000	99.232149
1769.000000	99.223137
1768.000000	99.186606
1767.000000	99.143065
1766.000000	99.117843
1765.000000	99.107442
1764.000000	99.090141
1763.000000	99.051547
1762.000000	98.992714
1761.000000	98.924978
1760.000000	98.858659
1759.000000	98.787807
1758.000000	98.692645
1757.000000	98.554737
1756.000000	98.393869
1755.000000	98.249392
1754.000000	98.123266
1753.000000	97.979838
1752.000000	97.792960
1751.000000	97.578090
1750.000000	97.372050
1749.000000	97.185206
1748.000000	97.012364
1747.000000	96.868656
1746.000000	96.761104
1745.000000	96.678297
1744.000000	96.615705
1743.000000	96.583769
1742.000000	96.588184
1741.000000	96.614244
1740.000000	96.649886
1739.000000	96.706016
1738.000000	96.793731
1737.000000	96.899544
1736.000000	97.008382
1735.000000	97.133965
1734.000000	97.295608
1733.000000	97.464713
1732.000000	97.614679
1731.000000	97.748234
1730.000000	97.874317
1729.000000	97.996480
1728.000000	98.117692
1727.000000	98.239035
1726.000000	98.352382
1725.000000	98.451263
1724.000000	98.538133
1723.000000	98.620041
1722.000000	98.702910
1721.000000	98.781301
1720.000000	98.846808
1719.000000	98.897417
1718.000000	98.938140
1717.000000	98.968635
1716.000000	98.985486
1715.000000	98.990831
1714.000000	98.982522
1713.000000	98.958223
1712.000000	98.924277
1711.000000	98.892704
1710.000000	98.867006
1709.000000	98.841249
1708.000000	98.811866
1707.000000	98.773630
1706.000000	98.718133
1705.000000	98.655223
1704.000000	98.615198
1703.000000	98.605362
1702.000000	98.582692
1701.000000	98.487403
1700.000000	98.332747
1699.000000	98.224560
1698.000000	98.175878
1697.000000	98.089834
1696.000000	97.922816
1695.000000	97.746741
1694.000000	97.640608
1693.000000	97.579823
1692.000000	97.510279
1691.000000	97.418576
1690.000000	97.320572
1689.000000	97.233408
1688.000000	97.170204
1687.000000	97.126717
1686.000000	97.070154
1685.000000	96.950887
1684.000000	96.770250
1683.000000	96.629312
1682.000000	96.552203
1681.000000	96.464971
1680.000000	96.345784
1679.000000	96.229698
1678.000000	96.139374
1677.000000	96.047756
1676.000000	95.915542
1675.000000	95.754059
1674.000000	95.616945
1673.000000	95.518491
1672.000000	95.424556
1671.000000	95.303115
1670.000000	95.148165
1669.000000	94.974059
1668.000000	94.813001
1667.000000	94.684032
1666.000000	94.576621
1665.000000	94.465077
1664.000000	94.327456
1663.000000	94.170466
1662.000000	94.023749
1661.000000	93.900663
1660.000000	93.787769
1659.000000	93.680834
1658.000000	93.576189
1657.000000	93.444843
1656.000000	93.345140
1655.000000	93.227177
1654.000000	93.143968
1653.000000	93.124655
1652.000000	92.989338
1651.000000	92.957787
1650.000000	92.944340
1649.000000	92.916576
1648.000000	92.850291
1647.000000	92.772802
1646.000000	92.718672
1645.000000	92.691123
1644.000000	92.668113
1643.000000	92.645070
1642.000000	92.624650
1641.000000	92.605180
1640.000000	92.591757
1639.000000	92.590607
1638.000000	92.597914
1637.000000	92.597185
1636.000000	92.579652
1635.000000	92.561158
1634.000000	92.556808
1633.000000	92.559321
1632.000000	92.555218
1631.000000	92.551659
1630.000000	92.561594
1629.000000	92.589329
1628.000000	92.631871
1627.000000	92.688655
1626.000000	92.757828
1625.000000	92.834718
1624.000000	92.921272
1623.000000	93.023444
1622.000000	93.135516
1621.000000	93.241929
1620.000000	93.337373
1619.000000	93.426333
1618.000000	93.523728
1617.000000	93.648144
1616.000000	93.795732
1615.000000	93.940005
1614.000000	94.062766
1613.000000	94.165288
1612.000000	94.261427
1611.000000	94.365918
1610.000000	94.479723
1609.000000	94.593489
1608.000000	94.702365
1607.000000	94.807515
1606.000000	94.907823
1605.000000	95.000984
1604.000000	95.088853
1603.000000	95.167980
1602.000000	95.233545
1601.000000	95.289661
1600.000000	95.346122
1599.000000	95.405596
1598.000000	95.461856
1597.000000	95.511401
1596.000000	95.556707
1595.000000	95.598271
1594.000000	95.632178
1593.000000	95.656918
1592.000000	95.676107
1591.000000	95.691995
1590.000000	95.703141
1589.000000	95.709223
1588.000000	95.711844
1587.000000	95.709651
1586.000000	95.700800
1585.000000	95.687438
1584.000000	95.675301
1583.000000	95.662362
1582.000000	95.638332
1581.000000	95.607164
1580.000000	95.584298
1579.000000	95.570033
1578.000000	95.541431
1577.000000	95.480814
1576.000000	95.402127
1575.000000	95.340011
1574.000000	95.303020
1573.000000	95.271757
1572.000000	95.229332
1571.000000	95.164821
1570.000000	95.076524
1569.000000	94.982539
1568.000000	94.906825
1567.000000	94.840544
1566.000000	94.756519
1565.000000	94.652913
1564.000000	94.558823
1563.000000	94.501873
1562.000000	94.471389
1561.000000	94.433096
1560.000000	94.340217
1559.000000	94.170867
1558.000000	94.012809
1557.000000	93.929384
1556.000000	93.860170
1555.000000	93.768264
1554.000000	93.657763
1553.000000	93.553932
1552.000000	93.470734
1551.000000	93.392892
1550.000000	93.309922
1549.000000	93.231815
1548.000000	93.171395
1547.000000	93.126284
1546.000000	93.083842
1545.000000	93.043009
1544.000000	93.014876
1543.000000	93.003100
1542.000000	92.993968
1541.000000	92.972655
1540.000000	92.941967
1539.000000	92.920236
1538.000000	92.914050
1537.000000	92.916748
1536.000000	92.918547
1535.000000	92.918516
1534.000000	92.926293
1533.000000	92.951486
1532.000000	92.986824
1531.000000	93.015427
1530.000000	93.035576
1529.000000	93.057312
1528.000000	93.089934
1527.000000	93.136577
1526.000000	93.190326
1525.000000	93.241616
1524.000000	93.287628
1523.000000	93.329641
1522.000000	93.373050
1521.000000	93.418795
1520.000000	93.462151
1519.000000	93.500483
1518.000000	93.529958
1517.000000	93.555167
1516.000000	93.586897
1515.000000	93.630003
1514.000000	93.678229
1513.000000	93.726812
1512.000000	93.782536
1511.000000	93.855350
1510.000000	93.946847
1509.000000	94.045215
1508.000000	94.143233
1507.000000	94.246530
1506.000000	94.341731
1505.000000	94.405062
1504.000000	94.447634
1503.000000	94.487867
1502.000000	94.532962
1501.000000	94.585901
1500.000000	94.649069
1499.000000	94.723748
1498.000000	94.805355
1497.000000	94.883150
1496.000000	94.945473
1495.000000	94.997419
1494.000000	95.050761
1493.000000	95.104041
1492.000000	95.153701
1491.000000	95.204861
1490.000000	95.261817
1489.000000	95.311050
1488.000000	95.336661
1487.000000	95.342997
1486.000000	95.342603
1485.000000	95.334091
1484.000000	95.316421
1483.000000	95.293434
1482.000000	95.264787
1481.000000	95.229835
1480.000000	95.190517
1479.000000	95.150832
1478.000000	95.106708
1477.000000	95.053245
1476.000000	94.994441
1475.000000	94.937581
1474.000000	94.866143
1473.000000	94.747432
1472.000000	94.590278
1471.000000	94.442175
1470.000000	94.320906
1469.000000	94.211892
1468.000000	94.109328
1467.000000	94.018328
1466.000000	93.936543
1465.000000	93.851926
1464.000000	93.768011
1463.000000	93.697959
1462.000000	93.642932
1461.000000	93.595818
1460.000000	93.552620
1459.000000	93.508453
1458.000000	93.442307
1457.000000	93.335484
1456.000000	93.218717
1455.000000	93.134371
1454.000000	93.072397
1453.000000	93.013049
1452.000000	92.959829
1451.000000	92.925248
1450.000000	92.909113
1449.000000	92.897654
1448.000000	92.884279
1447.000000	92.876417
1446.000000	92.875648
1445.000000	92.875340
1444.000000	92.876315
1443.000000	92.879922
1442.000000	92.886598
1441.000000	92.896171
1440.000000	92.911645
1439.000000	92.932703
1438.000000	92.953920
1437.000000	92.969657
1436.000000	92.979768
1435.000000	92.989757
1434.000000	93.000227
1433.000000	93.009920
1432.000000	93.021009
1431.000000	93.035598
1430.000000	93.048379
1429.000000	93.051561
1428.000000	93.043917
1427.000000	93.033150
1426.000000	93.021821
1425.000000	93.008171
1424.000000	92.998609
1423.000000	92.998620
1422.000000	93.004595
1421.000000	93.006800
1420.000000	93.002304
1419.000000	92.995174
1418.000000	92.987041
1417.000000	92.976011
1416.000000	92.962337
1415.000000	92.952444
1414.000000	92.950935
1413.000000	92.956421
1412.000000	92.964871
1411.000000	92.973002
1410.000000	92.980028
1409.000000	92.987635
1408.000000	92.997558
1407.000000	93.012270
1406.000000	93.030971
1405.000000	93.049091
1404.000000	93.065273
1403.000000	93.079050
1402.000000	93.090133
1401.000000	93.099376
1400.000000	93.112427
1399.000000	93.135382
1398.000000	93.164294
1397.000000	93.188056
1396.000000	93.201240
1395.000000	93.209447
1394.000000	93.219393
1393.000000	93.234434
1392.000000	93.257011
1391.000000	93.287609
1390.000000	93.325241
1389.000000	93.368726
1388.000000	93.417533
1387.000000	93.467951
1386.000000	93.511892
1385.000000	93.545713
1384.000000	93.576170
1383.000000	93.611861
1382.000000	93.655908
1381.000000	93.705700
1380.000000	93.758711
1379.000000	93.816253
1378.000000	93.879711
1377.000000	93.949919
1376.000000	94.029123
1375.000000	94.118234
1374.000000	94.208804
1373.000000	94.288220
1372.000000	94.353591
1371.000000	94.411811
1370.000000	94.468925
1369.000000	94.526892
1368.000000	94.587410
1367.000000	94.650550
1366.000000	94.715439
1365.000000	94.782278
1364.000000	94.852083
1363.000000	94.921416
1362.000000	94.980582
1361.000000	95.022331
1360.000000	95.049021
1359.000000	95.067332
1358.000000	95.081229
1357.000000	95.092532
1356.000000	95.103713
1355.000000	95.116597
1354.000000	95.130123
1353.000000	95.141161
1352.000000	95.146360
1351.000000	95.144660
1350.000000	95.136607
1349.000000	95.123312
1348.000000	95.106238
1347.000000	95.083990
1346.000000	95.054624
1345.000000	95.019513
1344.000000	94.984305
1343.000000	94.953102
1342.000000	94.924525
1341.000000	94.894646
1340.000000	94.863303
1339.000000	94.834851
1338.000000	94.812571
1337.000000	94.795921
1336.000000	94.784132
1335.000000	94.778826
1334.000000	94.782976
1333.000000	94.799260
1332.000000	94.828439
1331.000000	94.867996
1330.000000	94.912698
1329.000000	94.957827
1328.000000	95.001292
1327.000000	95.042139
1326.000000	95.078787
1325.000000	95.110313
1324.000000	95.137783
1323.000000	95.161853
1322.000000	95.181862
1321.000000	95.197672
1320.000000	95.211202
1319.000000	95.224935
1318.000000	95.240299
1317.000000	95.258294
1316.000000	95.280415
1315.000000	95.307544
1314.000000	95.338482
1313.000000	95.370571
1312.000000	95.401340
1311.000000	95.429824
1310.000000	95.457266
1309.000000	95.486723
1308.000000	95.520560
1307.000000	95.558219
1306.000000	95.596751
1305.000000	95.633611
1304.000000	95.667936
1303.000000	95.699275
1302.000000	95.728011
1301.000000	95.756263
1300.000000	95.786383
1299.000000	95.818055
1298.000000	95.848695
1297.000000	95.876132
1296.000000	95.899016
1295.000000	95.914803
1294.000000	95.920501
1293.000000	95.916259
1292.000000	95.906004
1291.000000	95.893744
1290.000000	95.880083
1289.000000	95.863334
1288.000000	95.842940
1287.000000	95.820902
1286.000000	95.800348
1285.000000	95.783298
1284.000000	95.769937
1283.000000	95.759870
1282.000000	95.753760
1281.000000	95.752624
1280.000000	95.754873
1279.000000	95.755113
1278.000000	95.747833
1277.000000	95.732389
1276.000000	95.712757
1275.000000	95.692428
1274.000000	95.671162
1273.000000	95.646725
1272.000000	95.617484
1271.000000	95.582682
1270.000000	95.541478
1269.000000	95.493437
1268.000000	95.439536
1267.000000	95.381471
1266.000000	95.320513
1265.000000	95.257337
1264.000000	95.192445
1263.000000	95.126413
1262.000000	95.060315
1261.000000	94.996400
1260.000000	94.937272
1259.000000	94.883019
1258.000000	94.830100
1257.000000	94.775006
1256.000000	94.718222
1255.000000	94.663541
1254.000000	94.614146
1253.000000	94.570446
1252.000000	94.530670
1251.000000	94.491626
1250.000000	94.449542
1249.000000	94.402499
1248.000000	94.351995
1247.000000	94.300610
1246.000000	94.248738
1245.000000	94.195310
1244.000000	94.140907
1243.000000	94.088342
1242.000000	94.040710
1241.000000	94.000461
1240.000000	93.969643
1239.000000	93.949059
1238.000000	93.937603
1237.000000	93.934974
1236.000000	93.943349
1235.000000	93.964173
1234.000000	93.995329
1233.000000	94.033656
1232.000000	94.079225
1231.000000	94.133763
1230.000000	94.197294
1229.000000	94.270299
1228.000000	94.356111
1227.000000	94.457257
1226.000000	94.570058
1225.000000	94.686493
1224.000000	94.800932
1223.000000	94.911874
1222.000000	95.019010
1221.000000	95.121805
1220.000000	95.219949
1219.000000	95.312314
1218.000000	95.396537
1217.000000	95.471080
1216.000000	95.536210
1215.000000	95.591717
1214.000000	95.635135
1213.000000	95.665044
1212.000000	95.683677
1211.000000	95.693826
1210.000000	95.694987
1209.000000	95.684488
1208.000000	95.662620
1207.000000	95.634269
1206.000000	95.605758
1205.000000	95.581714
1204.000000	95.564092
1203.000000	95.552367
1202.000000	95.544668
1201.000000	95.540572
1200.000000	95.542393
1199.000000	95.552291
1198.000000	95.568630
1197.000000	95.587149
1196.000000	95.605317
1195.000000	95.623516
1194.000000	95.642614
1193.000000	95.662047
1192.000000	95.680142
1191.000000	95.695056
1190.000000	95.705891
1189.000000	95.713465
1188.000000	95.718938
1187.000000	95.721147
1186.000000	95.717086
1185.000000	95.706347
1184.000000	95.692160
1183.000000	95.676077
1182.000000	95.654165
1181.000000	95.621518
1180.000000	95.579601
1179.000000	95.535102
1178.000000	95.492301
1177.000000	95.450566
1176.000000	95.408474
1175.000000	95.366057
1174.000000	95.322519
1173.000000	95.276168
1172.000000	95.228105
1171.000000	95.182678
1170.000000	95.142766
1169.000000	95.107294
1168.000000	95.074487
1167.000000	95.044463
1166.000000	95.017773
1165.000000	94.994224
1164.000000	94.974928
1163.000000	94.963288
1162.000000	94.962162
1161.000000	94.972600
1160.000000	94.995346
1159.000000	95.031055
1158.000000	95.079039
1157.000000	95.137931
1156.000000	95.208353
1155.000000	95.291127
1154.000000	95.383112
1153.000000	95.479321
1152.000000	95.578989
1151.000000	95.685916
1150.000000	95.801086
1149.000000	95.918550
1148.000000	96.030879
1147.000000	96.136172
1146.000000	96.238249
1145.000000	96.341619
1144.000000	96.447634
1143.000000	96.553696
1142.000000	96.654793
1141.000000	96.746475
1140.000000	96.827635
1139.000000	96.900697
1138.000000	96.968341
1137.000000	97.030819
1136.000000	97.086272
1135.000000	97.132846
1134.000000	97.170219
1133.000000	97.199222
1132.000000	97.221549
1131.000000	97.239285
1130.000000	97.253469
1129.000000	97.263535
1128.000000	97.268785
1127.000000	97.270529
1126.000000	97.270917
1125.000000	97.269640
1124.000000	97.264374
1123.000000	97.254736
1122.000000	97.243492
1121.000000	97.232046
1120.000000	97.216639
1119.000000	97.191772
1118.000000	97.155981
1117.000000	97.112224
1116.000000	97.063218
1115.000000	97.008705
1114.000000	96.947926
1113.000000	96.883299
1112.000000	96.821359
1111.000000	96.769996
1110.000000	96.733738
1109.000000	96.710976
1108.000000	96.696645
1107.000000	96.687664
1106.000000	96.684902
1105.000000	96.690283
1104.000000	96.703230
1103.000000	96.720221
1102.000000	96.735781
1101.000000	96.742984
1100.000000	96.735531
1099.000000	96.712101
1098.000000	96.677995
1097.000000	96.640297
1096.000000	96.601948
1095.000000	96.562171
1094.000000	96.521515
1093.000000	96.483824
1092.000000	96.453671
1091.000000	96.434030
1090.000000	96.426017
1089.000000	96.427830
1088.000000	96.433750
1087.000000	96.437503
1086.000000	96.438162
1085.000000	96.441655
1084.000000	96.454666
1083.000000	96.478563
1082.000000	96.510628
1081.000000	96.548548
1080.000000	96.591641
1079.000000	96.639028
1078.000000	96.689897
1077.000000	96.745199
1076.000000	96.805755
1075.000000	96.868416
1074.000000	96.926294
1073.000000	96.973414
1072.000000	97.007851
1071.000000	97.031351
1070.000000	97.047333
1069.000000	97.058313
1068.000000	97.064007
1067.000000	97.062857
1066.000000	97.057175
1065.000000	97.054299
1064.000000	97.059851
1063.000000	97.071228
1062.000000	97.080554
1061.000000	97.083616
1060.000000	97.083242
1059.000000	97.084756
1058.000000	97.091545
1057.000000	97.105085
1056.000000	97.125540
1055.000000	97.150711
1054.000000	97.176441
1053.000000	97.199251
1052.000000	97.217556
1051.000000	97.230882
1050.000000	97.240483
1049.000000	97.250284
1048.000000	97.263976
1047.000000	97.280443
1046.000000	97.294664
1045.000000	97.303292
1044.000000	97.306277
1043.000000	97.303370
1042.000000	97.292430
1041.000000	97.272704
1040.000000	97.246660
1039.000000	97.216117
1038.000000	97.179083
1037.000000	97.132936
1036.000000	97.080179
1035.000000	97.028673
1034.000000	96.985922
1033.000000	96.954123
1032.000000	96.930735
1031.000000	96.913030
1030.000000	96.901971
1029.000000	96.902511
1028.000000	96.918824
1027.000000	96.948705
1026.000000	96.983888
1025.000000	97.016704
1024.000000	97.045581
1023.000000	97.073307
1022.000000	97.102263
1021.000000	97.132767
1020.000000	97.164022
1019.000000	97.194688
1018.000000	97.223618
1017.000000	97.251573
1016.000000	97.281044
1015.000000	97.313166
1014.000000	97.346475
1013.000000	97.380321
1012.000000	97.417645
1011.000000	97.461725
1010.000000	97.511069
1009.000000	97.560361
1008.000000	97.606530
1007.000000	97.651434
1006.000000	97.697730
1005.000000	97.744099
1004.000000	97.786262
1003.000000	97.822481
1002.000000	97.856255
1001.000000	97.892293
1000.000000	97.930769
999.000000	97.967255
998.000000	97.998359
997.000000	98.025002
996.000000	98.048894
995.000000	98.068741
994.000000	98.082846
993.000000	98.094061
992.000000	98.108509
991.000000	98.129073
990.000000	98.152555
989.000000	98.173397
988.000000	98.187780
987.000000	98.193941
986.000000	98.191690
985.000000	98.183430
984.000000	98.173732
983.000000	98.166203
982.000000	98.161650
981.000000	98.159622
980.000000	98.159941
979.000000	98.161445
978.000000	98.160918
977.000000	98.155305
976.000000	98.144478
975.000000	98.130957
974.000000	98.117829
973.000000	98.107897
972.000000	98.103475
971.000000	98.105227
970.000000	98.111433
969.000000	98.119858
968.000000	98.130275
967.000000	98.144232
966.000000	98.163040
965.000000	98.186453
964.000000	98.212312
963.000000	98.236951
962.000000	98.257630
961.000000	98.276134
960.000000	98.298080
959.000000	98.326543
958.000000	98.357799
957.000000	98.385695
956.000000	98.409219
955.000000	98.432674
954.000000	98.459138
953.000000	98.487368
952.000000	98.515342
951.000000	98.542918
950.000000	98.569225
949.000000	98.591042
948.000000	98.606822
947.000000	98.620295
946.000000	98.636351
945.000000	98.654085
944.000000	98.667615
943.000000	98.673785
942.000000	98.675929
941.000000	98.678613
940.000000	98.681795
939.000000	98.682617
938.000000	98.680998
937.000000	98.680889
936.000000	98.686467
935.000000	98.699126
934.000000	98.717543
933.000000	98.738739
932.000000	98.759173
931.000000	98.776627
930.000000	98.791538
929.000000	98.805293
928.000000	98.817270
927.000000	98.825292
926.000000	98.829300
925.000000	98.832530
924.000000	98.838242
923.000000	98.846896
922.000000	98.857772
921.000000	98.871777
920.000000	98.890527
919.000000	98.913146
918.000000	98.936407
917.000000	98.958787
916.000000	98.982378
915.000000	99.009428
914.000000	99.037798
913.000000	99.061718
912.000000	99.077565
911.000000	99.087655
910.000000	99.097576
909.000000	99.110549
908.000000	99.125775
907.000000	99.141653
906.000000	99.157940
905.000000	99.173590
904.000000	99.184672
903.000000	99.187283
902.000000	99.182543
901.000000	99.176940
900.000000	99.177246
899.000000	99.185507
898.000000	99.198534
897.000000	99.211256
896.000000	99.221031
895.000000	99.229807
894.000000	99.241418
893.000000	99.255999
892.000000	99.268057
891.000000	99.271145
890.000000	99.261918
889.000000	99.236310
888.000000	99.183721
887.000000	99.090472
886.000000	98.952758
885.000000	98.783796
884.000000	98.605771
883.000000	98.434990
882.000000	98.272718
881.000000	98.107779
880.000000	97.927685
879.000000	97.730044
878.000000	97.525536
877.000000	97.332222
876.000000	97.168312
875.000000	97.050304
874.000000	96.994371
873.000000	97.013491
872.000000	97.111350
871.000000	97.277062
870.000000	97.487011
869.000000	97.713342
868.000000	97.930994
867.000000	98.121401
866.000000	98.275281
865.000000	98.394374
864.000000	98.487798
863.000000	98.564934
862.000000	98.631162
861.000000	98.688609
860.000000	98.738351
859.000000	98.780925
858.000000	98.816900
857.000000	98.847459
856.000000	98.874061
855.000000	98.897848
854.000000	98.919496
853.000000	98.938394
852.000000	98.950846
851.000000	98.952005
850.000000	98.943066
849.000000	98.935301
848.000000	98.942725
847.000000	98.969116
846.000000	99.004561
845.000000	99.035874
844.000000	99.058257
843.000000	99.076413
842.000000	99.097340
841.000000	99.123835
840.000000	99.152988
839.000000	99.178579
838.000000	99.195624
837.000000	99.203812
836.000000	99.206276
835.000000	99.205720
834.000000	99.203260
833.000000	99.200207
832.000000	99.197729
831.000000	99.194511
830.000000	99.188736
829.000000	99.184007
828.000000	99.188941
827.000000	99.206864
826.000000	99.228848
825.000000	99.241532
824.000000	99.240413
823.000000	99.231792
822.000000	99.223925
821.000000	99.221206
820.000000	99.224666
819.000000	99.232001
818.000000	99.237639
817.000000	99.237758
816.000000	99.235043
815.000000	99.234267
814.000000	99.234273
813.000000	99.230675
812.000000	99.226314
811.000000	99.230608
810.000000	99.245152
809.000000	99.257098
808.000000	99.253188
807.000000	99.235990
806.000000	99.219958
805.000000	99.214356
804.000000	99.216583
803.000000	99.221032
802.000000	99.226712
801.000000	99.233855
800.000000	99.238471
799.000000	99.234412
798.000000	99.219925
797.000000	99.200326
796.000000	99.184017
795.000000	99.175401
794.000000	99.170799
793.000000	99.162320
792.000000	99.147061
791.000000	99.131102
790.000000	99.122244
789.000000	99.120098
788.000000	99.116470
787.000000	99.105398
786.000000	99.090269
785.000000	99.080337
784.000000	99.081581
783.000000	99.091378
782.000000	99.100869
781.000000	99.102376
780.000000	99.095612
779.000000	99.087048
778.000000	99.083286
777.000000	99.085655
776.000000	99.091000
775.000000	99.095545
774.000000	99.096794
773.000000	99.093622
772.000000	99.086834
771.000000	99.078899
770.000000	99.071554
769.000000	99.064772
768.000000	99.059244
767.000000	99.057546
766.000000	99.060271
765.000000	99.063040
764.000000	99.060866
763.000000	99.054742
762.000000	99.049892
761.000000	99.046804
760.000000	99.037857
759.000000	99.015403
758.000000	98.981549
757.000000	98.947186
756.000000	98.921419
755.000000	98.904187
754.000000	98.890319
753.000000	98.878723
752.000000	98.873651
751.000000	98.876094
750.000000	98.878446
749.000000	98.872273
748.000000	98.859168
747.000000	98.848170
746.000000	98.843166
745.000000	98.839344
744.000000	98.833191
743.000000	98.828431
742.000000	98.828199
741.000000	98.828101
740.000000	98.822691
739.000000	98.813628
738.000000	98.804823
737.000000	98.793678
736.000000	98.774689
735.000000	98.749443
734.000000	98.724897
733.000000	98.702551
732.000000	98.677349
731.000000	98.647923
730.000000	98.620197
729.000000	98.598264
728.000000	98.579106
727.000000	98.559254
726.000000	98.540374
725.000000	98.525518
724.000000	98.514238
723.000000	98.503449
722.000000	98.488710
721.000000	98.463061
720.000000	98.420098
719.000000	98.360522
718.000000	98.289550
717.000000	98.204368
716.000000	98.091118
715.000000	97.943367
714.000000	97.783057
713.000000	97.655744
712.000000	97.600263
711.000000	97.621612
710.000000	97.691501
709.000000	97.771108
708.000000	97.833741
707.000000	97.872473
706.000000	97.892065
705.000000	97.897874
704.000000	97.893175
703.000000	97.882402
702.000000	97.872019
701.000000	97.865254
700.000000	97.857251
699.000000	97.840263
698.000000	97.814076
697.000000	97.789315
696.000000	97.778618
695.000000	97.784544
694.000000	97.799161
693.000000	97.813482
692.000000	97.823767
691.000000	97.830021
690.000000	97.831536
689.000000	97.827252
688.000000	97.818988
687.000000	97.810793
686.000000	97.805950
685.000000	97.804485
684.000000	97.801880
683.000000	97.791704
682.000000	97.771813
681.000000	97.748976
680.000000	97.733666
679.000000	97.729480
678.000000	97.728721
677.000000	97.720498
676.000000	97.704451
675.000000	97.688977
674.000000	97.681699
673.000000	97.684493
672.000000	97.692308
671.000000	97.699470
670.000000	97.706023
669.000000	97.722865
668.000000	97.736493
667.000000	97.734019
666.000000	97.740535
665.000000	97.746115
664.000000	97.732689
663.000000	97.711384
662.000000	97.696420
661.000000	97.693247
660.000000	97.699230
659.000000	97.711693
658.000000	97.722063
657.000000	97.718722
656.000000	97.703348
655.000000	97.689103
654.000000	97.681476
653.000000	97.674327
652.000000	97.665667
651.000000	97.661790
650.000000	97.661491
649.000000	97.652134
648.000000	97.628483
647.000000	97.600121
646.000000	97.572893
645.000000	97.539498
644.000000	97.496312
643.000000	97.454514
642.000000	97.425397
641.000000	97.405520
640.000000	97.387030
639.000000	97.372890
638.000000	97.369362
637.000000	97.372816
636.000000	97.374845
635.000000	97.372934
634.000000	97.368794
633.000000	97.362466
632.000000	97.353408
631.000000	97.340959
630.000000	97.320476
629.000000	97.289081
628.000000	97.259115
627.000000	97.252301
626.000000	97.271200
625.000000	97.289654
624.000000	97.282851
623.000000	97.254635
622.000000	97.225096
621.000000	97.203275
620.000000	97.185242
619.000000	97.169110
618.000000	97.157162
617.000000	97.148986
616.000000	97.144669
615.000000	97.149331
614.000000	97.163034
613.000000	97.173012
612.000000	97.168486
611.000000	97.158213
610.000000	97.160253
609.000000	97.177469
608.000000	97.195794
607.000000	97.205238
606.000000	97.210235
605.000000	97.220008
604.000000	97.239524
603.000000	97.270088
602.000000	97.309853
601.000000	97.350356
600.000000	97.379104
599.000000	97.390296
598.000000	97.391345
597.000000	97.397333
596.000000	97.419368
595.000000	97.456492
594.000000	97.496672
593.000000	97.527886
592.000000	97.548926
591.000000	97.566430
590.000000	97.583233
589.000000	97.596424
588.000000	97.605839
587.000000	97.614804
586.000000	97.621739
585.000000	97.620175
584.000000	97.610392
583.000000	97.601613
582.000000	97.597583
581.000000	97.590611
580.000000	97.576412
579.000000	97.564968
578.000000	97.568105
577.000000	97.583983
576.000000	97.601027
575.000000	97.610491
574.000000	97.610125
573.000000	97.602797
572.000000	97.597405
571.000000	97.603824
570.000000	97.619931
569.000000	97.631666
568.000000	97.632629
567.000000	97.631843
566.000000	97.634995
565.000000	97.630685
564.000000	97.606058
563.000000	97.566523
562.000000	97.529768
561.000000	97.506916
560.000000	97.498100
559.000000	97.498595
558.000000	97.499202
557.000000	97.490962
556.000000	97.479152
555.000000	97.481669
554.000000	97.504142
553.000000	97.529282
552.000000	97.541569
551.000000	97.548440
550.000000	97.563715
549.000000	97.582284
548.000000	97.588810
547.000000	97.582751
546.000000	97.577677
545.000000	97.580500
544.000000	97.586812
543.000000	97.593400
542.000000	97.601852
541.000000	97.612282
540.000000	97.622826
539.000000	97.631315
538.000000	97.631313
537.000000	97.614048
536.000000	97.581371
535.000000	97.549360
534.000000	97.531025
533.000000	97.522353
532.000000	97.511177
531.000000	97.490367
530.000000	97.458774
529.000000	97.421766
528.000000	97.397013
527.000000	97.406885
526.000000	97.450856
525.000000	97.497428
524.000000	97.520163
523.000000	97.520655
522.000000	97.507257
521.000000	97.481703
520.000000	97.458427
519.000000	97.470784
518.000000	97.534115
517.000000	97.618366
516.000000	97.681478
515.000000	97.709459
514.000000	97.706059
513.000000	97.674514
512.000000	97.633057
511.000000	97.621491
510.000000	97.661846
509.000000	97.729313
508.000000	97.785694
507.000000	97.825819
506.000000	97.868259
505.000000	97.918293
504.000000	97.968148
503.000000	98.016287
502.000000	98.058345
501.000000	98.075063
500.000000	98.059286
499.000000	98.038532
498.000000	98.044458
497.000000	98.072538
496.000000	98.093240
495.000000	98.093423
494.000000	98.082235
493.000000	98.064776
492.000000	98.039797
491.000000	98.022411
490.000000	98.038551
489.000000	98.090086
488.000000	98.145901
487.000000	98.169301
486.000000	98.147954
485.000000	98.107742
484.000000	98.101671
483.000000	98.163977
482.000000	98.263655
481.000000	98.330101
480.000000	98.332915
479.000000	98.309977
478.000000	98.306577
477.000000	98.314385
476.000000	98.302717
475.000000	98.284587
474.000000	98.307972
473.000000	98.392006
472.000000	98.501753
471.000000	98.591332
470.000000	98.642125
469.000000	98.650223
468.000000	98.624501
467.000000	98.603204
466.000000	98.622652
465.000000	98.671723
464.000000	98.720725
463.000000	98.779612
462.000000	98.882878
461.000000	99.023067
460.000000	99.144351
459.000000	99.204557
458.000000	99.190609
457.000000	99.130675
456.000000	99.030627
455.000000	98.997264
454.000000	99.048736
453.000000	99.144592
452.000000	99.225246
451.000000	99.245406
450.000000	99.234557
