PE IR       SUBTECH     SPECTRUM    ASCII       PEDS        4.00        
   -1
3C-YYX-F002_1.ASC
23/09/07
10:54:32.00
23/09/07
11:30:09.00
uco
Sample 002 By uco Date Thursday, September 07 2023
450.000000
#HDR
-1
-1
#GR
cm-1
%T
1.0
0.0
4000.000000
-1.000000
3551
8
98.692900
85.096313
#DATA
4000.000000	98.598564
3999.000000	98.592951
3998.000000	98.587340
3997.000000	98.585409
3996.000000	98.588848
3995.000000	98.595473
3994.000000	98.602723
3993.000000	98.607513
3992.000000	98.608137
3991.000000	98.604588
3990.000000	98.598052
3989.000000	98.590380
3988.000000	98.583831
3987.000000	98.580314
3986.000000	98.580255
3985.000000	98.582322
3984.000000	98.584720
3983.000000	98.586954
3982.000000	98.589910
3981.000000	98.594171
3980.000000	98.598657
3979.000000	98.601111
3978.000000	98.599792
3977.000000	98.594670
3976.000000	98.587341
3975.000000	98.580234
3974.000000	98.575597
3973.000000	98.574585
3972.000000	98.576671
3971.000000	98.579818
3970.000000	98.581734
3969.000000	98.581278
3968.000000	98.578983
3967.000000	98.576242
3966.000000	98.573994
3965.000000	98.572293
3964.000000	98.570828
3963.000000	98.569525
3962.000000	98.568450
3961.000000	98.567433
3960.000000	98.566151
3959.000000	98.564501
3958.000000	98.562602
3957.000000	98.560228
3956.000000	98.556645
3955.000000	98.551592
3954.000000	98.546520
3953.000000	98.544389
3952.000000	98.547539
3951.000000	98.555475
3950.000000	98.564468
3949.000000	98.569673
3948.000000	98.568522
3947.000000	98.562227
3946.000000	98.554086
3945.000000	98.547096
3944.000000	98.543480
3943.000000	98.545374
3942.000000	98.553860
3941.000000	98.566909
3940.000000	98.579538
3939.000000	98.586640
3938.000000	98.586157
3937.000000	98.579716
3936.000000	98.570686
3935.000000	98.561944
3934.000000	98.555357
3933.000000	98.552407
3932.000000	98.553727
3931.000000	98.558025
3930.000000	98.562596
3929.000000	98.565340
3928.000000	98.566035
3927.000000	98.565668
3926.000000	98.565259
3925.000000	98.565681
3924.000000	98.567818
3923.000000	98.571954
3922.000000	98.577026
3921.000000	98.580763
3920.000000	98.580631
3919.000000	98.575165
3918.000000	98.565553
3917.000000	98.556069
3916.000000	98.551424
3915.000000	98.552694
3914.000000	98.556491
3913.000000	98.558221
3912.000000	98.555775
3911.000000	98.550291
3910.000000	98.544479
3909.000000	98.540157
3908.000000	98.537455
3907.000000	98.535411
3906.000000	98.533412
3905.000000	98.532704
3904.000000	98.536206
3903.000000	98.545152
3902.000000	98.556365
3901.000000	98.564570
3900.000000	98.567459
3899.000000	98.567478
3898.000000	98.568300
3897.000000	98.570878
3896.000000	98.573790
3895.000000	98.575580
3894.000000	98.576001
3893.000000	98.575468
3892.000000	98.574594
3891.000000	98.573634
3890.000000	98.572402
3889.000000	98.570402
3888.000000	98.566729
3887.000000	98.560685
3886.000000	98.553840
3885.000000	98.549572
3884.000000	98.549396
3883.000000	98.551512
3882.000000	98.553772
3881.000000	98.555801
3880.000000	98.557518
3879.000000	98.557230
3878.000000	98.553287
3877.000000	98.546468
3876.000000	98.540145
3875.000000	98.538947
3874.000000	98.545698
3873.000000	98.558218
3872.000000	98.569908
3871.000000	98.575015
3870.000000	98.573765
3869.000000	98.571404
3868.000000	98.571496
3867.000000	98.572412
3866.000000	98.570845
3865.000000	98.566735
3864.000000	98.563607
3863.000000	98.563729
3862.000000	98.565233
3861.000000	98.564799
3860.000000	98.561544
3859.000000	98.557177
3858.000000	98.554350
3857.000000	98.554055
3856.000000	98.554141
3855.000000	98.551025
3854.000000	98.546317
3853.000000	98.548058
3852.000000	98.555631
3851.000000	98.560015
3850.000000	98.559081
3849.000000	98.556434
3848.000000	98.555202
3847.000000	98.555419
3846.000000	98.554881
3845.000000	98.552081
3844.000000	98.548228
3843.000000	98.546192
3842.000000	98.548084
3841.000000	98.553233
3840.000000	98.559445
3839.000000	98.565412
3838.000000	98.571139
3837.000000	98.576210
3836.000000	98.579738
3835.000000	98.581797
3834.000000	98.583140
3833.000000	98.583443
3832.000000	98.581059
3831.000000	98.574593
3830.000000	98.564383
3829.000000	98.552709
3828.000000	98.542892
3827.000000	98.537814
3826.000000	98.538666
3825.000000	98.544253
3824.000000	98.551421
3823.000000	98.556554
3822.000000	98.558184
3821.000000	98.558436
3820.000000	98.559186
3819.000000	98.559092
3818.000000	98.557230
3817.000000	98.555400
3816.000000	98.556706
3815.000000	98.561649
3814.000000	98.566450
3813.000000	98.567203
3812.000000	98.564141
3811.000000	98.561338
3810.000000	98.562823
3809.000000	98.568815
3808.000000	98.575058
3807.000000	98.576677
3806.000000	98.572951
3805.000000	98.567227
3804.000000	98.562926
3803.000000	98.561341
3802.000000	98.562659
3801.000000	98.565815
3800.000000	98.567692
3799.000000	98.566473
3798.000000	98.564017
3797.000000	98.562972
3796.000000	98.563242
3795.000000	98.561999
3794.000000	98.557006
3793.000000	98.549331
3792.000000	98.542498
3791.000000	98.539234
3790.000000	98.539123
3789.000000	98.539610
3788.000000	98.538987
3787.000000	98.538122
3786.000000	98.539271
3785.000000	98.543543
3784.000000	98.549587
3783.000000	98.554695
3782.000000	98.556905
3781.000000	98.556171
3780.000000	98.554369
3779.000000	98.553527
3778.000000	98.553518
3777.000000	98.552677
3776.000000	98.550614
3775.000000	98.548920
3774.000000	98.549263
3773.000000	98.551080
3772.000000	98.551459
3771.000000	98.548603
3770.000000	98.545526
3769.000000	98.547419
3768.000000	98.555330
3767.000000	98.565477
3766.000000	98.573416
3765.000000	98.576939
3764.000000	98.576498
3763.000000	98.573214
3762.000000	98.567308
3761.000000	98.558658
3760.000000	98.548551
3759.000000	98.539400
3758.000000	98.533421
3757.000000	98.532488
3756.000000	98.537954
3755.000000	98.548863
3754.000000	98.561269
3753.000000	98.570737
3752.000000	98.575687
3751.000000	98.578001
3750.000000	98.579383
3749.000000	98.579705
3748.000000	98.581183
3747.000000	98.586699
3746.000000	98.594453
3745.000000	98.599625
3744.000000	98.599567
3743.000000	98.595400
3742.000000	98.589299
3741.000000	98.582692
3740.000000	98.577249
3739.000000	98.574371
3738.000000	98.572771
3737.000000	98.569421
3736.000000	98.564955
3735.000000	98.565643
3734.000000	98.575478
3733.000000	98.590278
3732.000000	98.602751
3731.000000	98.609226
3730.000000	98.610448
3729.000000	98.608438
3728.000000	98.604023
3727.000000	98.597108
3726.000000	98.587998
3725.000000	98.577798
3724.000000	98.568009
3723.000000	98.560685
3722.000000	98.557660
3721.000000	98.558846
3720.000000	98.562611
3719.000000	98.567230
3718.000000	98.571468
3717.000000	98.574838
3716.000000	98.577644
3715.000000	98.579986
3714.000000	98.580877
3713.000000	98.579844
3712.000000	98.579725
3711.000000	98.584818
3710.000000	98.593935
3709.000000	98.600568
3708.000000	98.600800
3707.000000	98.596722
3706.000000	98.593476
3705.000000	98.594424
3704.000000	98.598513
3703.000000	98.601261
3702.000000	98.599144
3701.000000	98.593136
3700.000000	98.587164
3699.000000	98.583758
3698.000000	98.582358
3697.000000	98.581010
3696.000000	98.578690
3695.000000	98.575564
3694.000000	98.572288
3693.000000	98.570521
3692.000000	98.573299
3691.000000	98.583450
3690.000000	98.600007
3689.000000	98.615883
3688.000000	98.621461
3687.000000	98.613505
3686.000000	98.597584
3685.000000	98.581321
3684.000000	98.569916
3683.000000	98.565117
3682.000000	98.564788
3681.000000	98.564231
3680.000000	98.560099
3679.000000	98.552922
3678.000000	98.544413
3677.000000	98.534844
3676.000000	98.526532
3675.000000	98.524358
3674.000000	98.527328
3673.000000	98.530466
3672.000000	98.532334
3671.000000	98.534872
3670.000000	98.540106
3669.000000	98.545413
3668.000000	98.544024
3667.000000	98.533155
3666.000000	98.516460
3665.000000	98.499393
3664.000000	98.485525
3663.000000	98.475421
3662.000000	98.467834
3661.000000	98.462207
3660.000000	98.459288
3659.000000	98.459121
3658.000000	98.459325
3657.000000	98.457203
3656.000000	98.453625
3655.000000	98.452464
3654.000000	98.455574
3653.000000	98.460595
3652.000000	98.462534
3651.000000	98.457357
3650.000000	98.446347
3649.000000	98.435918
3648.000000	98.429072
3647.000000	98.421801
3646.000000	98.410330
3645.000000	98.395000
3644.000000	98.378761
3643.000000	98.365269
3642.000000	98.357051
3641.000000	98.353826
3640.000000	98.352830
3639.000000	98.351297
3638.000000	98.348174
3637.000000	98.343387
3636.000000	98.336718
3635.000000	98.328789
3634.000000	98.322559
3633.000000	98.321585
3632.000000	98.325882
3631.000000	98.330289
3630.000000	98.327989
3629.000000	98.317485
3628.000000	98.304075
3627.000000	98.291151
3626.000000	98.278137
3625.000000	98.265076
3624.000000	98.253702
3623.000000	98.245994
3622.000000	98.242194
3621.000000	98.240152
3620.000000	98.236911
3619.000000	98.230711
3618.000000	98.221442
3617.000000	98.210289
3616.000000	98.198760
3615.000000	98.186893
3614.000000	98.173214
3613.000000	98.157179
3612.000000	98.140725
3611.000000	98.125976
3610.000000	98.112324
3609.000000	98.097871
3608.000000	98.083355
3607.000000	98.072016
3606.000000	98.065164
3605.000000	98.060545
3604.000000	98.055269
3603.000000	98.048282
3602.000000	98.040184
3601.000000	98.031821
3600.000000	98.023714
3599.000000	98.015997
3598.000000	98.007768
3597.000000	97.997241
3596.000000	97.983105
3595.000000	97.966647
3594.000000	97.951589
3593.000000	97.940806
3592.000000	97.933614
3591.000000	97.927105
3590.000000	97.918493
3589.000000	97.906733
3588.000000	97.893272
3587.000000	97.881069
3586.000000	97.871785
3585.000000	97.864724
3584.000000	97.858220
3583.000000	97.850448
3582.000000	97.839767
3581.000000	97.825698
3580.000000	97.809746
3579.000000	97.794617
3578.000000	97.782008
3577.000000	97.771605
3576.000000	97.761820
3575.000000	97.751060
3574.000000	97.738245
3573.000000	97.723154
3572.000000	97.706823
3571.000000	97.691306
3570.000000	97.678059
3569.000000	97.666521
3568.000000	97.654732
3567.000000	97.641785
3566.000000	97.628778
3565.000000	97.616739
3564.000000	97.605107
3563.000000	97.592762
3562.000000	97.579492
3561.000000	97.566077
3560.000000	97.553086
3559.000000	97.540033
3558.000000	97.526094
3557.000000	97.511380
3556.000000	97.496877
3555.000000	97.482970
3554.000000	97.468637
3553.000000	97.452833
3552.000000	97.436595
3551.000000	97.422744
3550.000000	97.413092
3549.000000	97.406598
3548.000000	97.400042
3547.000000	97.390175
3546.000000	97.376027
3545.000000	97.359772
3544.000000	97.344454
3543.000000	97.330466
3542.000000	97.315130
3541.000000	97.296137
3540.000000	97.274841
3539.000000	97.255531
3538.000000	97.241275
3537.000000	97.231184
3536.000000	97.221992
3535.000000	97.211524
3534.000000	97.199461
3533.000000	97.185797
3532.000000	97.170466
3531.000000	97.154705
3530.000000	97.141422
3529.000000	97.133271
3528.000000	97.130440
3527.000000	97.130327
3526.000000	97.128945
3525.000000	97.122609
3524.000000	97.109439
3523.000000	97.090536
3522.000000	97.069415
3521.000000	97.049481
3520.000000	97.032006
3519.000000	97.016344
3518.000000	97.001249
3517.000000	96.985814
3516.000000	96.970057
3515.000000	96.955308
3514.000000	96.943566
3513.000000	96.935413
3512.000000	96.928597
3511.000000	96.919692
3510.000000	96.907626
3509.000000	96.894824
3508.000000	96.884254
3507.000000	96.876107
3506.000000	96.868117
3505.000000	96.858301
3504.000000	96.846665
3503.000000	96.834707
3502.000000	96.824000
3501.000000	96.815262
3500.000000	96.807945
3499.000000	96.800279
3498.000000	96.790298
3497.000000	96.777464
3496.000000	96.763082
3495.000000	96.748747
3494.000000	96.734925
3493.000000	96.721535
3492.000000	96.709217
3491.000000	96.698933
3490.000000	96.690370
3489.000000	96.681616
3488.000000	96.671053
3487.000000	96.659129
3486.000000	96.647455
3485.000000	96.636236
3484.000000	96.623539
3483.000000	96.607690
3482.000000	96.590164
3481.000000	96.575247
3480.000000	96.566322
3479.000000	96.562903
3478.000000	96.561317
3477.000000	96.557531
3476.000000	96.549417
3475.000000	96.537661
3474.000000	96.525180
3473.000000	96.514838
3472.000000	96.506882
3471.000000	96.498777
3470.000000	96.488188
3469.000000	96.475599
3468.000000	96.463310
3467.000000	96.452415
3466.000000	96.442131
3465.000000	96.432107
3464.000000	96.423833
3463.000000	96.418931
3462.000000	96.416629
3461.000000	96.413523
3460.000000	96.405729
3459.000000	96.391422
3458.000000	96.372255
3457.000000	96.352707
3456.000000	96.337366
3455.000000	96.328063
3454.000000	96.323572
3453.000000	96.321742
3452.000000	96.321031
3451.000000	96.320144
3450.000000	96.317600
3449.000000	96.312544
3448.000000	96.305420
3447.000000	96.297238
3446.000000	96.288373
3445.000000	96.278482
3444.000000	96.267152
3443.000000	96.254484
3442.000000	96.241796
3441.000000	96.231767
3440.000000	96.226512
3439.000000	96.224928
3438.000000	96.222899
3437.000000	96.216982
3436.000000	96.207209
3435.000000	96.195816
3434.000000	96.184385
3433.000000	96.173313
3432.000000	96.163085
3431.000000	96.154305
3430.000000	96.146675
3429.000000	96.139193
3428.000000	96.131385
3427.000000	96.123359
3426.000000	96.114867
3425.000000	96.105321
3424.000000	96.094654
3423.000000	96.083193
3422.000000	96.070793
3421.000000	96.057164
3420.000000	96.043241
3419.000000	96.031213
3418.000000	96.022603
3417.000000	96.016764
3416.000000	96.011377
3415.000000	96.004253
3414.000000	95.994908
3413.000000	95.984719
3412.000000	95.975258
3411.000000	95.966317
3410.000000	95.956223
3409.000000	95.944538
3408.000000	95.933454
3407.000000	95.925398
3406.000000	95.919890
3405.000000	95.914107
3404.000000	95.906296
3403.000000	95.897333
3402.000000	95.888822
3401.000000	95.881064
3400.000000	95.873313
3399.000000	95.864936
3398.000000	95.855610
3397.000000	95.845005
3396.000000	95.833003
3395.000000	95.820007
3394.000000	95.806717
3393.000000	95.793792
3392.000000	95.781853
3391.000000	95.771508
3390.000000	95.763166
3389.000000	95.756881
3388.000000	95.752235
3387.000000	95.748265
3386.000000	95.743733
3385.000000	95.737806
3384.000000	95.730366
3383.000000	95.721519
3382.000000	95.711254
3381.000000	95.699915
3380.000000	95.688434
3379.000000	95.677381
3378.000000	95.666138
3377.000000	95.653687
3376.000000	95.640001
3375.000000	95.626050
3374.000000	95.612634
3373.000000	95.599989
3372.000000	95.588412
3371.000000	95.578383
3370.000000	95.569734
3369.000000	95.561210
3368.000000	95.551159
3367.000000	95.538419
3366.000000	95.522620
3365.000000	95.504213
3364.000000	95.484479
3363.000000	95.465114
3362.000000	95.447366
3361.000000	95.431415
3360.000000	95.416555
3359.000000	95.401911
3358.000000	95.386980
3357.000000	95.371478
3356.000000	95.354857
3355.000000	95.336533
3354.000000	95.317078
3353.000000	95.298710
3352.000000	95.283504
3351.000000	95.271000
3350.000000	95.258500
3349.000000	95.243937
3348.000000	95.227498
3347.000000	95.210213
3346.000000	95.192281
3345.000000	95.173680
3344.000000	95.155320
3343.000000	95.138267
3342.000000	95.122289
3341.000000	95.106326
3340.000000	95.090059
3339.000000	95.073987
3338.000000	95.058268
3337.000000	95.042403
3336.000000	95.025911
3335.000000	95.008598
3334.000000	94.990502
3333.000000	94.972411
3332.000000	94.956012
3331.000000	94.942378
3330.000000	94.930350
3329.000000	94.917298
3328.000000	94.901528
3327.000000	94.883318
3326.000000	94.863818
3325.000000	94.843916
3324.000000	94.824402
3323.000000	94.806484
3322.000000	94.791568
3321.000000	94.780401
3320.000000	94.771989
3319.000000	94.763307
3318.000000	94.751036
3317.000000	94.734520
3316.000000	94.716704
3315.000000	94.701432
3314.000000	94.690131
3313.000000	94.681497
3312.000000	94.673330
3311.000000	94.663737
3310.000000	94.651587
3309.000000	94.637468
3308.000000	94.623960
3307.000000	94.613363
3306.000000	94.605136
3305.000000	94.596731
3304.000000	94.586715
3303.000000	94.575899
3302.000000	94.565614
3301.000000	94.556369
3300.000000	94.548424
3299.000000	94.542098
3298.000000	94.536797
3297.000000	94.530748
3296.000000	94.522410
3295.000000	94.511747
3294.000000	94.499969
3293.000000	94.488786
3292.000000	94.479925
3291.000000	94.474329
3290.000000	94.471400
3289.000000	94.469598
3288.000000	94.467963
3287.000000	94.466462
3286.000000	94.465059
3285.000000	94.463504
3284.000000	94.462062
3283.000000	94.461341
3282.000000	94.461136
3281.000000	94.460523
3280.000000	94.459632
3279.000000	94.460194
3278.000000	94.463711
3277.000000	94.469833
3276.000000	94.477357
3275.000000	94.486307
3274.000000	94.497808
3273.000000	94.511925
3272.000000	94.526281
3271.000000	94.537295
3270.000000	94.543085
3269.000000	94.545219
3268.000000	94.547377
3267.000000	94.551974
3266.000000	94.558327
3265.000000	94.564487
3264.000000	94.570262
3263.000000	94.577342
3262.000000	94.586866
3261.000000	94.598212
3260.000000	94.610458
3259.000000	94.623870
3258.000000	94.639461
3257.000000	94.657928
3256.000000	94.679257
3255.000000	94.702342
3254.000000	94.724449
3253.000000	94.742188
3252.000000	94.754086
3251.000000	94.761860
3250.000000	94.768723
3249.000000	94.776916
3248.000000	94.787174
3247.000000	94.799307
3246.000000	94.812020
3245.000000	94.822559
3244.000000	94.828264
3243.000000	94.829255
3242.000000	94.829120
3241.000000	94.832517
3240.000000	94.842024
3239.000000	94.856986
3238.000000	94.874701
3237.000000	94.892311
3236.000000	94.907941
3235.000000	94.920963
3234.000000	94.931896
3233.000000	94.941975
3232.000000	94.952099
3231.000000	94.961789
3230.000000	94.969511
3229.000000	94.974381
3228.000000	94.977368
3227.000000	94.980599
3226.000000	94.985772
3225.000000	94.993494
3224.000000	95.003412
3223.000000	95.014203
3222.000000	95.024008
3221.000000	95.032034
3220.000000	95.039738
3219.000000	95.049299
3218.000000	95.060504
3217.000000	95.070315
3216.000000	95.076076
3215.000000	95.078641
3214.000000	95.081664
3213.000000	95.088036
3212.000000	95.097596
3211.000000	95.107967
3210.000000	95.116992
3209.000000	95.124160
3208.000000	95.130291
3207.000000	95.136472
3206.000000	95.143459
3205.000000	95.151631
3204.000000	95.160774
3203.000000	95.169839
3202.000000	95.177670
3201.000000	95.184382
3200.000000	95.191536
3199.000000	95.200540
3198.000000	95.211343
3197.000000	95.223110
3196.000000	95.235375
3195.000000	95.247767
3194.000000	95.259474
3193.000000	95.270259
3192.000000	95.281635
3191.000000	95.295509
3190.000000	95.311571
3189.000000	95.327369
3188.000000	95.341302
3187.000000	95.354326
3186.000000	95.368195
3185.000000	95.383039
3184.000000	95.397511
3183.000000	95.410716
3182.000000	95.423231
3181.000000	95.436399
3180.000000	95.450909
3179.000000	95.465838
3178.000000	95.479213
3177.000000	95.490192
3176.000000	95.500535
3175.000000	95.512916
3174.000000	95.527602
3173.000000	95.541873
3172.000000	95.553046
3171.000000	95.561161
3170.000000	95.568171
3169.000000	95.575739
3168.000000	95.584846
3167.000000	95.596609
3166.000000	95.611792
3165.000000	95.629346
3164.000000	95.646567
3163.000000	95.661306
3162.000000	95.673794
3161.000000	95.686177
3160.000000	95.700431
3159.000000	95.716640
3158.000000	95.732902
3157.000000	95.746854
3156.000000	95.757454
3155.000000	95.765684
3154.000000	95.773906
3153.000000	95.784560
3152.000000	95.798620
3151.000000	95.814517
3150.000000	95.828945
3149.000000	95.839922
3148.000000	95.849104
3147.000000	95.860041
3146.000000	95.874031
3145.000000	95.888963
3144.000000	95.902589
3143.000000	95.915450
3142.000000	95.929339
3141.000000	95.943917
3140.000000	95.956447
3139.000000	95.964699
3138.000000	95.968979
3137.000000	95.971452
3136.000000	95.974437
3135.000000	95.979351
3134.000000	95.986363
3133.000000	95.994734
3132.000000	96.003873
3131.000000	96.013889
3130.000000	96.024729
3129.000000	96.035322
3128.000000	96.044527
3127.000000	96.052725
3126.000000	96.061393
3125.000000	96.070971
3124.000000	96.080134
3123.000000	96.087396
3122.000000	96.092505
3121.000000	96.095797
3120.000000	96.097101
3119.000000	96.096256
3118.000000	96.094246
3117.000000	96.092925
3116.000000	96.093366
3115.000000	96.094829
3114.000000	96.095495
3113.000000	96.094058
3112.000000	96.090788
3111.000000	96.087396
3110.000000	96.085858
3109.000000	96.086963
3108.000000	96.089573
3107.000000	96.091189
3106.000000	96.089400
3105.000000	96.083472
3104.000000	96.075166
3103.000000	96.067922
3102.000000	96.064231
3101.000000	96.063237
3100.000000	96.061456
3099.000000	96.056692
3098.000000	96.050857
3097.000000	96.048039
3096.000000	96.049860
3095.000000	96.053556
3094.000000	96.054819
3093.000000	96.051597
3092.000000	96.044734
3091.000000	96.036207
3090.000000	96.027989
3089.000000	96.021869
3088.000000	96.018611
3087.000000	96.016848
3086.000000	96.013905
3085.000000	96.008406
3084.000000	96.001661
3083.000000	95.996201
3082.000000	95.993468
3081.000000	95.993204
3080.000000	95.994307
3079.000000	95.995543
3078.000000	95.995744
3077.000000	95.994085
3076.000000	95.990384
3075.000000	95.985064
3074.000000	95.979081
3073.000000	95.973988
3072.000000	95.971513
3071.000000	95.972375
3070.000000	95.975618
3069.000000	95.979603
3068.000000	95.983657
3067.000000	95.988387
3066.000000	95.994279
3065.000000	96.000407
3064.000000	96.004888
3063.000000	96.006867
3062.000000	96.008129
3061.000000	96.012267
3060.000000	96.021404
3059.000000	96.033492
3058.000000	96.043645
3057.000000	96.048875
3056.000000	96.051217
3055.000000	96.055637
3054.000000	96.065161
3053.000000	96.078413
3052.000000	96.091419
3051.000000	96.101096
3050.000000	96.107521
3049.000000	96.113808
3048.000000	96.123617
3047.000000	96.138065
3046.000000	96.154886
3045.000000	96.170850
3044.000000	96.184693
3043.000000	96.197206
3042.000000	96.209010
3041.000000	96.219425
3040.000000	96.227786
3039.000000	96.234930
3038.000000	96.242673
3037.000000	96.252088
3036.000000	96.262815
3035.000000	96.273887
3034.000000	96.284784
3033.000000	96.295589
3032.000000	96.306364
3031.000000	96.316726
3030.000000	96.326264
3029.000000	96.335194
3028.000000	96.344123
3027.000000	96.353016
3026.000000	96.360886
3025.000000	96.366871
3024.000000	96.371268
3023.000000	96.375170
3022.000000	96.379510
3021.000000	96.384914
3020.000000	96.391969
3019.000000	96.400838
3018.000000	96.410707
3017.000000	96.420161
3016.000000	96.428028
3015.000000	96.433547
3014.000000	96.436078
3013.000000	96.435397
3012.000000	96.432006
3011.000000	96.426425
3010.000000	96.418378
3009.000000	96.407417
3008.000000	96.394396
3007.000000	96.381556
3006.000000	96.370970
3005.000000	96.363127
3004.000000	96.356678
3003.000000	96.349059
3002.000000	96.337809
3001.000000	96.322401
3000.000000	96.304943
2999.000000	96.288309
2998.000000	96.273312
2997.000000	96.258247
2996.000000	96.241038
2995.000000	96.220981
2994.000000	96.198257
2993.000000	96.172960
2992.000000	96.145278
2991.000000	96.115738
2990.000000	96.084399
2989.000000	96.050079
2988.000000	96.011235
2987.000000	95.967659
2986.000000	95.920924
2985.000000	95.873215
2984.000000	95.825723
2983.000000	95.777791
2982.000000	95.727153
2981.000000	95.671077
2980.000000	95.608128
2979.000000	95.539440
2978.000000	95.468496
2977.000000	95.399122
2976.000000	95.332652
2975.000000	95.266604
2974.000000	95.196358
2973.000000	95.118743
2972.000000	95.033995
2971.000000	94.944303
2970.000000	94.851400
2969.000000	94.756269
2968.000000	94.660606
2967.000000	94.567003
2966.000000	94.477235
2965.000000	94.391269
2964.000000	94.308572
2963.000000	94.230398
2962.000000	94.160349
2961.000000	94.102926
2960.000000	94.061348
2959.000000	94.036233
2958.000000	94.026244
2957.000000	94.029730
2956.000000	94.045914
2955.000000	94.074010
2954.000000	94.111619
2953.000000	94.154590
2952.000000	94.198465
2951.000000	94.239781
2950.000000	94.275294
2949.000000	94.300758
2948.000000	94.311249
2947.000000	94.303541
2946.000000	94.278134
2945.000000	94.238421
2944.000000	94.187645
2943.000000	94.126367
2942.000000	94.053203
2941.000000	93.967471
2940.000000	93.870927
2939.000000	93.767126
2938.000000	93.659845
2937.000000	93.552343
2936.000000	93.446959
2935.000000	93.345146
2934.000000	93.248286
2933.000000	93.158913
2932.000000	93.080152
2931.000000	93.013080
2930.000000	92.955298
2929.000000	92.903060
2928.000000	92.854994
2927.000000	92.813246
2926.000000	92.781362
2925.000000	92.762137
2924.000000	92.757320
2923.000000	92.768258
2922.000000	92.795439
2921.000000	92.837463
2920.000000	92.891305
2919.000000	92.954155
2918.000000	93.025651
2917.000000	93.108122
2916.000000	93.204405
2915.000000	93.314824
2914.000000	93.435629
2913.000000	93.560010
2912.000000	93.680636
2911.000000	93.792388
2910.000000	93.893960
2909.000000	93.987630
2908.000000	94.077293
2907.000000	94.165933
2906.000000	94.254510
2905.000000	94.342622
2904.000000	94.429709
2903.000000	94.515609
2902.000000	94.600606
2901.000000	94.685342
2900.000000	94.770194
2899.000000	94.854297
2898.000000	94.935511
2897.000000	95.011934
2896.000000	95.083275
2895.000000	95.150257
2894.000000	95.213030
2893.000000	95.270991
2892.000000	95.324185
2891.000000	95.374056
2890.000000	95.422003
2889.000000	95.467144
2888.000000	95.505743
2887.000000	95.533276
2886.000000	95.547699
2885.000000	95.550938
2884.000000	95.547060
2883.000000	95.538863
2882.000000	95.526332
2881.000000	95.507965
2880.000000	95.482525
2879.000000	95.449372
2878.000000	95.408475
2877.000000	95.361508
2876.000000	95.312434
2875.000000	95.266005
2874.000000	95.225942
2873.000000	95.194882
2872.000000	95.175243
2871.000000	95.168416
2870.000000	95.172644
2869.000000	95.182374
2868.000000	95.190217
2867.000000	95.189885
2866.000000	95.178236
2865.000000	95.155598
2864.000000	95.123941
2863.000000	95.084370
2862.000000	95.036735
2861.000000	94.982256
2860.000000	94.925408
2859.000000	94.871723
2858.000000	94.824099
2857.000000	94.782883
2856.000000	94.749430
2855.000000	94.727524
2854.000000	94.721130
2853.000000	94.732288
2852.000000	94.762284
2851.000000	94.813856
2850.000000	94.890817
2849.000000	94.995375
2848.000000	95.125481
2847.000000	95.273615
2846.000000	95.427814
2845.000000	95.575792
2844.000000	95.709804
2843.000000	95.828478
2842.000000	95.934042
2841.000000	96.028373
2840.000000	96.112085
2839.000000	96.185707
2838.000000	96.250140
2837.000000	96.306118
2836.000000	96.354179
2835.000000	96.395197
2834.000000	96.430366
2833.000000	96.460772
2832.000000	96.487565
2831.000000	96.512320
2830.000000	96.536449
2829.000000	96.560254
2828.000000	96.582851
2827.000000	96.603036
2826.000000	96.620054
2825.000000	96.633831
2824.000000	96.645021
2823.000000	96.654886
2822.000000	96.664923
2821.000000	96.676476
2820.000000	96.690364
2819.000000	96.706242
2818.000000	96.722246
2817.000000	96.736002
2816.000000	96.746593
2815.000000	96.755294
2814.000000	96.764171
2813.000000	96.774312
2812.000000	96.785586
2811.000000	96.797378
2810.000000	96.809088
2809.000000	96.820504
2808.000000	96.832346
2807.000000	96.845872
2806.000000	96.861114
2805.000000	96.875849
2804.000000	96.887304
2803.000000	96.894901
2802.000000	96.900604
2801.000000	96.906636
2800.000000	96.913626
2799.000000	96.920956
2798.000000	96.927993
2797.000000	96.934628
2796.000000	96.941314
2795.000000	96.948955
2794.000000	96.958081
2793.000000	96.967666
2792.000000	96.975408
2791.000000	96.979979
2790.000000	96.982804
2789.000000	96.986918
2788.000000	96.994177
2787.000000	97.004118
2786.000000	97.015333
2785.000000	97.026988
2784.000000	97.038695
2783.000000	97.049670
2782.000000	97.058883
2781.000000	97.066003
2780.000000	97.071765
2779.000000	97.077341
2778.000000	97.083392
2777.000000	97.089446
2776.000000	97.093956
2775.000000	97.095452
2774.000000	97.094292
2773.000000	97.093266
2772.000000	97.095695
2771.000000	97.102497
2770.000000	97.111395
2769.000000	97.119222
2768.000000	97.124781
2767.000000	97.129435
2766.000000	97.135255
2765.000000	97.142789
2764.000000	97.150421
2763.000000	97.155777
2762.000000	97.158042
2761.000000	97.159019
2760.000000	97.161677
2759.000000	97.167541
2758.000000	97.175588
2757.000000	97.183521
2756.000000	97.189765
2755.000000	97.194427
2754.000000	97.198859
2753.000000	97.204290
2752.000000	97.210273
2751.000000	97.214579
2750.000000	97.215341
2749.000000	97.213336
2748.000000	97.211370
2747.000000	97.211238
2746.000000	97.212335
2745.000000	97.213568
2744.000000	97.215433
2743.000000	97.219255
2742.000000	97.225149
2741.000000	97.231754
2740.000000	97.237677
2739.000000	97.242389
2738.000000	97.246042
2737.000000	97.249240
2736.000000	97.252889
2735.000000	97.257575
2734.000000	97.262934
2733.000000	97.267916
2732.000000	97.271580
2731.000000	97.273566
2730.000000	97.274344
2729.000000	97.275352
2728.000000	97.278311
2727.000000	97.283835
2726.000000	97.291005
2725.000000	97.298610
2724.000000	97.306277
2723.000000	97.313829
2722.000000	97.320182
2721.000000	97.323872
2720.000000	97.324665
2719.000000	97.324086
2718.000000	97.324328
2717.000000	97.326771
2716.000000	97.331166
2715.000000	97.335887
2714.000000	97.339284
2713.000000	97.341091
2712.000000	97.342346
2711.000000	97.344097
2710.000000	97.346946
2709.000000	97.351628
2708.000000	97.358566
2707.000000	97.366317
2706.000000	97.371906
2705.000000	97.373801
2704.000000	97.373575
2703.000000	97.373716
2702.000000	97.374912
2701.000000	97.376640
2700.000000	97.379186
2699.000000	97.383236
2698.000000	97.388046
2697.000000	97.391823
2696.000000	97.393899
2695.000000	97.395198
2694.000000	97.396593
2693.000000	97.397956
2692.000000	97.398711
2691.000000	97.398233
2690.000000	97.395926
2689.000000	97.391974
2688.000000	97.387903
2687.000000	97.385420
2686.000000	97.384933
2685.000000	97.386096
2684.000000	97.389147
2683.000000	97.394255
2682.000000	97.399973
2681.000000	97.404165
2680.000000	97.406571
2679.000000	97.408984
2678.000000	97.412629
2677.000000	97.416721
2676.000000	97.419870
2675.000000	97.421517
2674.000000	97.421620
2673.000000	97.420329
2672.000000	97.418626
2671.000000	97.417998
2670.000000	97.418693
2669.000000	97.419209
2668.000000	97.418288
2667.000000	97.416644
2666.000000	97.415870
2665.000000	97.416251
2664.000000	97.416582
2663.000000	97.416025
2662.000000	97.415336
2661.000000	97.415901
2660.000000	97.417743
2659.000000	97.418950
2658.000000	97.417651
2657.000000	97.414659
2656.000000	97.413477
2655.000000	97.417139
2654.000000	97.425435
2653.000000	97.435607
2652.000000	97.444875
2651.000000	97.451636
2650.000000	97.455383
2649.000000	97.457226
2648.000000	97.460212
2647.000000	97.467355
2646.000000	97.478737
2645.000000	97.491216
2644.000000	97.500904
2643.000000	97.505307
2642.000000	97.504053
2641.000000	97.499385
2640.000000	97.495812
2639.000000	97.497329
2638.000000	97.504135
2637.000000	97.512901
2636.000000	97.520340
2635.000000	97.525557
2634.000000	97.529364
2633.000000	97.533028
2632.000000	97.537835
2631.000000	97.544213
2630.000000	97.550766
2629.000000	97.555629
2628.000000	97.559245
2627.000000	97.564438
2626.000000	97.572996
2625.000000	97.583042
2624.000000	97.590172
2623.000000	97.590556
2622.000000	97.583554
2621.000000	97.573105
2620.000000	97.566574
2619.000000	97.570069
2618.000000	97.583520
2617.000000	97.600823
2616.000000	97.614822
2615.000000	97.621566
2614.000000	97.621109
2613.000000	97.616929
2612.000000	97.614673
2611.000000	97.618294
2610.000000	97.625829
2609.000000	97.630837
2608.000000	97.629335
2607.000000	97.623991
2606.000000	97.620458
2605.000000	97.621385
2604.000000	97.625447
2603.000000	97.630519
2602.000000	97.635632
2601.000000	97.640349
2600.000000	97.644441
2599.000000	97.648657
2598.000000	97.654757
2597.000000	97.663970
2596.000000	97.675405
2595.000000	97.686274
2594.000000	97.693885
2593.000000	97.697553
2592.000000	97.698457
2591.000000	97.698067
2590.000000	97.697497
2589.000000	97.698009
2588.000000	97.700232
2587.000000	97.702458
2586.000000	97.702022
2585.000000	97.699432
2584.000000	97.698674
2583.000000	97.701424
2582.000000	97.703755
2581.000000	97.701805
2580.000000	97.698469
2579.000000	97.700189
2578.000000	97.707872
2577.000000	97.715558
2576.000000	97.718263
2575.000000	97.717155
2574.000000	97.716051
2573.000000	97.716455
2572.000000	97.717822
2571.000000	97.720098
2570.000000	97.724339
2569.000000	97.732135
2568.000000	97.744592
2567.000000	97.759858
2566.000000	97.771867
2565.000000	97.774558
2564.000000	97.768343
2563.000000	97.760083
2562.000000	97.756093
2561.000000	97.757321
2560.000000	97.761304
2559.000000	97.765856
2558.000000	97.769945
2557.000000	97.773519
2556.000000	97.777490
2555.000000	97.781891
2554.000000	97.784060
2553.000000	97.781326
2552.000000	97.775479
2551.000000	97.771194
2550.000000	97.769447
2549.000000	97.766185
2548.000000	97.758801
2547.000000	97.750418
2546.000000	97.745986
2545.000000	97.746975
2544.000000	97.751549
2543.000000	97.756967
2542.000000	97.759886
2541.000000	97.757372
2540.000000	97.750432
2539.000000	97.744641
2538.000000	97.744867
2537.000000	97.750537
2536.000000	97.757462
2535.000000	97.762249
2534.000000	97.763170
2533.000000	97.758940
2532.000000	97.749371
2531.000000	97.736477
2530.000000	97.723261
2529.000000	97.712053
2528.000000	97.704622
2527.000000	97.701977
2526.000000	97.702607
2525.000000	97.702537
2524.000000	97.698965
2523.000000	97.693012
2522.000000	97.687984
2521.000000	97.686301
2520.000000	97.689067
2519.000000	97.696648
2518.000000	97.707433
2517.000000	97.716907
2516.000000	97.720271
2515.000000	97.716638
2514.000000	97.710283
2513.000000	97.707641
2512.000000	97.712345
2511.000000	97.721869
2510.000000	97.729210
2509.000000	97.729410
2508.000000	97.724688
2507.000000	97.721961
2506.000000	97.725836
2505.000000	97.736023
2504.000000	97.750723
2503.000000	97.768876
2502.000000	97.787994
2501.000000	97.803143
2500.000000	97.810582
2499.000000	97.811099
2498.000000	97.808530
2497.000000	97.806762
2496.000000	97.808794
2495.000000	97.815739
2494.000000	97.824616
2493.000000	97.829659
2492.000000	97.828778
2491.000000	97.827222
2490.000000	97.832005
2489.000000	97.843565
2488.000000	97.856031
2487.000000	97.865316
2486.000000	97.873510
2485.000000	97.884356
2484.000000	97.897037
2483.000000	97.906768
2482.000000	97.910347
2481.000000	97.908848
2480.000000	97.905270
2479.000000	97.901713
2478.000000	97.899677
2477.000000	97.901050
2476.000000	97.906370
2475.000000	97.912710
2474.000000	97.915781
2473.000000	97.914849
2472.000000	97.913851
2471.000000	97.916991
2470.000000	97.924691
2469.000000	97.934163
2468.000000	97.941691
2467.000000	97.943394
2466.000000	97.936609
2465.000000	97.923340
2464.000000	97.910950
2463.000000	97.906859
2462.000000	97.912772
2461.000000	97.924813
2460.000000	97.937373
2459.000000	97.945086
2458.000000	97.943789
2457.000000	97.933461
2456.000000	97.919799
2455.000000	97.910128
2454.000000	97.907785
2453.000000	97.912064
2452.000000	97.921617
2451.000000	97.934683
2450.000000	97.947409
2449.000000	97.956057
2448.000000	97.960985
2447.000000	97.965192
2446.000000	97.969026
2445.000000	97.969918
2444.000000	97.967753
2443.000000	97.966812
2442.000000	97.971015
2441.000000	97.979559
2440.000000	97.988244
2439.000000	97.993071
2438.000000	97.991777
2437.000000	97.984282
2436.000000	97.973037
2435.000000	97.961875
2434.000000	97.953811
2433.000000	97.950142
2432.000000	97.950758
2431.000000	97.954065
2430.000000	97.957559
2429.000000	97.959967
2428.000000	97.961980
2427.000000	97.963775
2426.000000	97.963843
2425.000000	97.962302
2424.000000	97.962829
2423.000000	97.968111
2422.000000	97.975190
2421.000000	97.979070
2420.000000	97.979403
2419.000000	97.979580
2418.000000	97.980400
2417.000000	97.979320
2416.000000	97.975801
2415.000000	97.972774
2414.000000	97.972245
2413.000000	97.973493
2412.000000	97.976310
2411.000000	97.982117
2410.000000	97.990741
2409.000000	97.999410
2408.000000	98.006009
2407.000000	98.010332
2406.000000	98.011499
2405.000000	98.007693
2404.000000	97.999918
2403.000000	97.992878
2402.000000	97.990366
2401.000000	97.991923
2400.000000	97.994925
2399.000000	97.997636
2398.000000	97.999291
2397.000000	97.999593
2396.000000	97.999426
2395.000000	98.000334
2394.000000	98.002383
2393.000000	98.003992
2392.000000	98.003982
2391.000000	98.002330
2390.000000	97.999479
2389.000000	97.997554
2388.000000	98.001781
2387.000000	98.016445
2386.000000	98.038503
2385.000000	98.058127
2384.000000	98.067906
2383.000000	98.070066
2382.000000	98.072796
2381.000000	98.081438
2380.000000	98.093789
2379.000000	98.102451
2378.000000	98.101002
2377.000000	98.089147
2376.000000	98.073303
2375.000000	98.061267
2374.000000	98.056480
2373.000000	98.058163
2372.000000	98.065384
2371.000000	98.077257
2370.000000	98.089874
2369.000000	98.097363
2368.000000	98.096219
2367.000000	98.087294
2366.000000	98.074170
2365.000000	98.062204
2364.000000	98.057218
2363.000000	98.059947
2362.000000	98.063326
2361.000000	98.060199
2360.000000	98.052746
2359.000000	98.050570
2358.000000	98.059620
2357.000000	98.075416
2356.000000	98.085668
2355.000000	98.081529
2354.000000	98.067464
2353.000000	98.055071
2352.000000	98.050150
2351.000000	98.049964
2350.000000	98.049748
2349.000000	98.046844
2348.000000	98.041886
2347.000000	98.037609
2346.000000	98.034047
2345.000000	98.027429
2344.000000	98.018507
2343.000000	98.015388
2342.000000	98.022934
2341.000000	98.037203
2340.000000	98.049589
2339.000000	98.052534
2338.000000	98.044563
2337.000000	98.031615
2336.000000	98.022496
2335.000000	98.021664
2334.000000	98.026997
2333.000000	98.033255
2332.000000	98.036216
2331.000000	98.035094
2330.000000	98.031422
2329.000000	98.025948
2328.000000	98.016739
2327.000000	98.000749
2326.000000	97.978163
2325.000000	97.955746
2324.000000	97.944892
2323.000000	97.952597
2322.000000	97.972820
2321.000000	97.990986
2320.000000	97.998238
2319.000000	97.997975
2318.000000	97.997977
2317.000000	98.001750
2316.000000	98.008239
2315.000000	98.014875
2314.000000	98.018792
2313.000000	98.019433
2312.000000	98.021392
2311.000000	98.031265
2310.000000	98.049550
2309.000000	98.068903
2308.000000	98.082096
2307.000000	98.088042
2306.000000	98.088365
2305.000000	98.082538
2304.000000	98.069910
2303.000000	98.053437
2302.000000	98.038030
2301.000000	98.026580
2300.000000	98.019964
2299.000000	98.018842
2298.000000	98.022754
2297.000000	98.028568
2296.000000	98.031442
2295.000000	98.027726
2294.000000	98.016969
2293.000000	98.003038
2292.000000	97.993219
2291.000000	97.993525
2290.000000	98.002825
2289.000000	98.012690
2288.000000	98.014255
2287.000000	98.005127
2286.000000	97.990146
2285.000000	97.977134
2284.000000	97.971859
2283.000000	97.975021
2282.000000	97.983928
2281.000000	97.996959
2280.000000	98.013900
2279.000000	98.030464
2278.000000	98.037304
2277.000000	98.029990
2276.000000	98.016995
2275.000000	98.011530
2274.000000	98.017344
2273.000000	98.028689
2272.000000	98.041953
2271.000000	98.059180
2270.000000	98.080506
2269.000000	98.101712
2268.000000	98.120834
2267.000000	98.139670
2266.000000	98.156383
2265.000000	98.163491
2264.000000	98.156408
2263.000000	98.138910
2262.000000	98.118317
2261.000000	98.099641
2260.000000	98.084608
2259.000000	98.071533
2258.000000	98.056657
2257.000000	98.041143
2256.000000	98.035399
2255.000000	98.049187
2254.000000	98.077571
2253.000000	98.104254
2252.000000	98.119213
2251.000000	98.125560
2250.000000	98.129329
2249.000000	98.131514
2248.000000	98.131464
2247.000000	98.130006
2246.000000	98.127451
2245.000000	98.125039
2244.000000	98.128455
2243.000000	98.141920
2242.000000	98.158642
2241.000000	98.165847
2240.000000	98.160746
2239.000000	98.153391
2238.000000	98.152565
2237.000000	98.157058
2236.000000	98.161604
2235.000000	98.163040
2234.000000	98.159997
2233.000000	98.155019
2232.000000	98.156644
2231.000000	98.169283
2230.000000	98.181306
2229.000000	98.175225
2228.000000	98.151263
2227.000000	98.128752
2226.000000	98.121784
2225.000000	98.125747
2224.000000	98.131465
2223.000000	98.139571
2222.000000	98.154062
2221.000000	98.171624
2220.000000	98.185445
2219.000000	98.193800
2218.000000	98.199429
2217.000000	98.205091
2216.000000	98.212026
2215.000000	98.217801
2214.000000	98.216094
2213.000000	98.205633
2212.000000	98.198161
2211.000000	98.207740
2210.000000	98.231558
2209.000000	98.250588
2208.000000	98.250758
2207.000000	98.236524
2206.000000	98.223836
2205.000000	98.226643
2204.000000	98.246996
2203.000000	98.270207
2202.000000	98.274352
2201.000000	98.254700
2200.000000	98.232728
2199.000000	98.228505
2198.000000	98.232538
2197.000000	98.222404
2196.000000	98.201030
2195.000000	98.195555
2194.000000	98.218710
2193.000000	98.252088
2192.000000	98.270510
2191.000000	98.265286
2190.000000	98.241237
2189.000000	98.211521
2188.000000	98.198570
2187.000000	98.219350
2186.000000	98.263918
2185.000000	98.305334
2184.000000	98.334967
2183.000000	98.368876
2182.000000	98.413001
2181.000000	98.444507
2180.000000	98.439892
2179.000000	98.404236
2178.000000	98.362743
2177.000000	98.338252
2176.000000	98.341406
2175.000000	98.365829
2174.000000	98.387144
2173.000000	98.381188
2172.000000	98.349435
2171.000000	98.316057
2170.000000	98.299974
2169.000000	98.299793
2168.000000	98.301977
2167.000000	98.292567
2166.000000	98.266535
2165.000000	98.240010
2164.000000	98.244257
2163.000000	98.285592
2162.000000	98.322762
2161.000000	98.314327
2160.000000	98.285524
2159.000000	98.310010
2158.000000	98.412428
2157.000000	98.534892
2156.000000	98.611337
2155.000000	98.623428
2154.000000	98.584482
2153.000000	98.521293
2152.000000	98.470796
2151.000000	98.456527
2150.000000	98.466520
2149.000000	98.476157
2148.000000	98.485953
2147.000000	98.510133
2146.000000	98.535306
2145.000000	98.524931
2144.000000	98.468869
2143.000000	98.398336
2142.000000	98.346845
2141.000000	98.321927
2140.000000	98.317230
2139.000000	98.327594
2138.000000	98.344313
2137.000000	98.354868
2136.000000	98.356941
2135.000000	98.359547
2134.000000	98.365700
2133.000000	98.367093
2132.000000	98.357806
2131.000000	98.340253
2130.000000	98.317537
2129.000000	98.292544
2128.000000	98.273358
2127.000000	98.267110
2126.000000	98.268947
2125.000000	98.267700
2124.000000	98.260759
2123.000000	98.252099
2122.000000	98.239149
2121.000000	98.216317
2120.000000	98.190624
2119.000000	98.177933
2118.000000	98.181707
2117.000000	98.189080
2116.000000	98.189767
2115.000000	98.185579
2114.000000	98.178864
2113.000000	98.166316
2112.000000	98.149143
2111.000000	98.136080
2110.000000	98.130218
2109.000000	98.124075
2108.000000	98.113105
2107.000000	98.103944
2106.000000	98.104216
2105.000000	98.114011
2104.000000	98.131441
2103.000000	98.156293
2102.000000	98.183593
2101.000000	98.202446
2100.000000	98.206645
2099.000000	98.200226
2098.000000	98.192047
2097.000000	98.192252
2096.000000	98.209800
2095.000000	98.241283
2094.000000	98.264754
2093.000000	98.260226
2092.000000	98.236107
2091.000000	98.219406
2090.000000	98.220729
2089.000000	98.224749
2088.000000	98.216526
2087.000000	98.200674
2086.000000	98.188717
2085.000000	98.183464
2084.000000	98.182940
2083.000000	98.187111
2082.000000	98.193917
2081.000000	98.198258
2080.000000	98.199771
2079.000000	98.201665
2078.000000	98.200202
2077.000000	98.188712
2076.000000	98.173747
2075.000000	98.172729
2074.000000	98.190951
2073.000000	98.215566
2072.000000	98.236145
2071.000000	98.254021
2070.000000	98.268166
2069.000000	98.270600
2068.000000	98.263746
2067.000000	98.264890
2066.000000	98.283999
2065.000000	98.310359
2064.000000	98.327876
2063.000000	98.331104
2062.000000	98.321505
2061.000000	98.304814
2060.000000	98.295935
2059.000000	98.307004
2058.000000	98.326507
2057.000000	98.329915
2056.000000	98.314725
2055.000000	98.303013
2054.000000	98.303237
2053.000000	98.296858
2052.000000	98.275229
2051.000000	98.262456
2050.000000	98.283868
2049.000000	98.328404
2048.000000	98.362207
2047.000000	98.371193
2046.000000	98.369313
2045.000000	98.373261
2044.000000	98.387709
2043.000000	98.406171
2042.000000	98.413784
2041.000000	98.400088
2040.000000	98.375841
2039.000000	98.361887
2038.000000	98.361023
2037.000000	98.362925
2036.000000	98.374948
2035.000000	98.417323
2034.000000	98.483464
2033.000000	98.541414
2032.000000	98.584306
2031.000000	98.635761
2030.000000	98.689338
2029.000000	98.692900
2028.000000	98.621412
2027.000000	98.527157
2026.000000	98.486663
2025.000000	98.521274
2024.000000	98.588141
2023.000000	98.627196
2022.000000	98.604986
2021.000000	98.535473
2020.000000	98.472397
2019.000000	98.462254
2018.000000	98.497775
2017.000000	98.533342
2016.000000	98.545306
2015.000000	98.549230
2014.000000	98.558132
2013.000000	98.564240
2012.000000	98.565236
2011.000000	98.572472
2010.000000	98.586751
2009.000000	98.596520
2008.000000	98.603356
2007.000000	98.616706
2006.000000	98.622175
2005.000000	98.594906
2004.000000	98.547082
2003.000000	98.517811
2002.000000	98.517855
2001.000000	98.519852
2000.000000	98.504092
1999.000000	98.480233
1998.000000	98.457266
1997.000000	98.433940
1996.000000	98.424130
1995.000000	98.451120
1994.000000	98.505598
1993.000000	98.541401
1992.000000	98.531117
1991.000000	98.497501
1990.000000	98.469579
1989.000000	98.444491
1988.000000	98.412667
1987.000000	98.382998
1986.000000	98.364387
1985.000000	98.350736
1984.000000	98.340358
1983.000000	98.341926
1982.000000	98.348715
1981.000000	98.336763
1980.000000	98.307905
1979.000000	98.304639
1978.000000	98.355825
1977.000000	98.435795
1976.000000	98.502035
1975.000000	98.543763
1974.000000	98.567356
1973.000000	98.573549
1972.000000	98.572945
1971.000000	98.586282
1970.000000	98.612011
1969.000000	98.622723
1968.000000	98.605943
1967.000000	98.581299
1966.000000	98.567814
1965.000000	98.565321
1964.000000	98.574543
1963.000000	98.600488
1962.000000	98.629451
1961.000000	98.634944
1960.000000	98.615635
1959.000000	98.595949
1958.000000	98.583844
1957.000000	98.563274
1956.000000	98.530498
1955.000000	98.503707
1954.000000	98.490492
1953.000000	98.479252
1952.000000	98.469573
1951.000000	98.480505
1950.000000	98.520125
1949.000000	98.567402
1948.000000	98.598399
1947.000000	98.610453
1946.000000	98.608046
1945.000000	98.589053
1944.000000	98.557396
1943.000000	98.530813
1942.000000	98.520721
1941.000000	98.519997
1940.000000	98.520851
1939.000000	98.523441
1938.000000	98.522892
1937.000000	98.509294
1936.000000	98.485008
1935.000000	98.465014
1934.000000	98.454253
1933.000000	98.443974
1932.000000	98.431790
1931.000000	98.426502
1930.000000	98.431596
1929.000000	98.434433
1928.000000	98.429008
1927.000000	98.427824
1926.000000	98.440635
1925.000000	98.459096
1924.000000	98.466126
1923.000000	98.461136
1922.000000	98.458753
1921.000000	98.467253
1920.000000	98.482237
1919.000000	98.494302
1918.000000	98.496026
1917.000000	98.486179
1916.000000	98.472639
1915.000000	98.464393
1914.000000	98.461384
1913.000000	98.461573
1912.000000	98.468720
1911.000000	98.484823
1910.000000	98.500418
1909.000000	98.500105
1908.000000	98.485594
1907.000000	98.472160
1906.000000	98.466430
1905.000000	98.466168
1904.000000	98.470133
1903.000000	98.482011
1902.000000	98.497033
1901.000000	98.499151
1900.000000	98.485725
1899.000000	98.471921
1898.000000	98.467525
1897.000000	98.467616
1896.000000	98.465984
1895.000000	98.468681
1894.000000	98.482992
1893.000000	98.503487
1892.000000	98.519262
1891.000000	98.524023
1890.000000	98.516333
1889.000000	98.500702
1888.000000	98.490202
1887.000000	98.494642
1886.000000	98.506227
1885.000000	98.509776
1884.000000	98.504413
1883.000000	98.503249
1882.000000	98.510276
1881.000000	98.512143
1880.000000	98.502120
1879.000000	98.491143
1878.000000	98.488627
1877.000000	98.492615
1876.000000	98.497805
1875.000000	98.502807
1874.000000	98.509369
1873.000000	98.519486
1872.000000	98.536660
1871.000000	98.562412
1870.000000	98.588365
1869.000000	98.600446
1868.000000	98.597390
1867.000000	98.590812
1866.000000	98.580432
1865.000000	98.554476
1864.000000	98.515327
1863.000000	98.483055
1862.000000	98.472154
1861.000000	98.477631
1860.000000	98.488903
1859.000000	98.503155
1858.000000	98.518107
1857.000000	98.526562
1856.000000	98.527779
1855.000000	98.529106
1854.000000	98.534322
1853.000000	98.536900
1852.000000	98.536227
1851.000000	98.540307
1850.000000	98.544355
1849.000000	98.541377
1848.000000	98.542633
1847.000000	98.566318
1846.000000	98.605549
1845.000000	98.628570
1844.000000	98.620477
1843.000000	98.604865
1842.000000	98.604406
1841.000000	98.606179
1840.000000	98.593398
1839.000000	98.571145
1838.000000	98.552471
1837.000000	98.538889
1836.000000	98.523806
1835.000000	98.513324
1834.000000	98.519618
1833.000000	98.539850
1832.000000	98.561266
1831.000000	98.574684
1830.000000	98.579625
1829.000000	98.584507
1828.000000	98.594083
1827.000000	98.600668
1826.000000	98.592465
1825.000000	98.571380
1824.000000	98.554439
1823.000000	98.550712
1822.000000	98.548914
1821.000000	98.536619
1820.000000	98.521616
1819.000000	98.517853
1818.000000	98.525131
1817.000000	98.533793
1816.000000	98.539762
1815.000000	98.550232
1814.000000	98.563200
1813.000000	98.564662
1812.000000	98.550407
1811.000000	98.531294
1810.000000	98.521019
1809.000000	98.516501
1808.000000	98.505652
1807.000000	98.489197
1806.000000	98.474380
1805.000000	98.462102
1804.000000	98.446837
1803.000000	98.427953
1802.000000	98.405769
1801.000000	98.380830
1800.000000	98.360938
1799.000000	98.349555
1798.000000	98.341325
1797.000000	98.330732
1796.000000	98.324147
1795.000000	98.334677
1794.000000	98.358860
1793.000000	98.380870
1792.000000	98.397364
1791.000000	98.418156
1790.000000	98.445150
1789.000000	98.465938
1788.000000	98.474222
1787.000000	98.478913
1786.000000	98.487823
1785.000000	98.497709
1784.000000	98.503885
1783.000000	98.514700
1782.000000	98.527276
1781.000000	98.527591
1780.000000	98.521888
1779.000000	98.524568
1778.000000	98.538522
1777.000000	98.552751
1776.000000	98.568985
1775.000000	98.599674
1774.000000	98.633139
1773.000000	98.642684
1772.000000	98.632400
1771.000000	98.630583
1770.000000	98.629460
1769.000000	98.589700
1768.000000	98.500744
1767.000000	98.408997
1766.000000	98.361859
1765.000000	98.347995
1764.000000	98.320555
1763.000000	98.252976
1762.000000	98.152040
1761.000000	98.041181
1760.000000	97.933316
1759.000000	97.812547
1758.000000	97.642876
1757.000000	97.396055
1756.000000	97.111949
1755.000000	96.864035
1754.000000	96.652955
1753.000000	96.408369
1752.000000	96.079664
1751.000000	95.698145
1750.000000	95.338834
1749.000000	95.021006
1748.000000	94.721497
1747.000000	94.453155
1746.000000	94.227700
1745.000000	94.028550
1744.000000	93.851988
1743.000000	93.723273
1742.000000	93.659699
1741.000000	93.636120
1740.000000	93.623691
1739.000000	93.643538
1738.000000	93.727486
1737.000000	93.860501
1736.000000	94.005702
1735.000000	94.172383
1734.000000	94.396522
1733.000000	94.653658
1732.000000	94.902825
1731.000000	95.139946
1730.000000	95.368652
1729.000000	95.590655
1728.000000	95.812278
1727.000000	96.041258
1726.000000	96.266827
1725.000000	96.476793
1724.000000	96.672135
1723.000000	96.857658
1722.000000	97.039030
1721.000000	97.211972
1720.000000	97.369239
1719.000000	97.512620
1718.000000	97.649818
1717.000000	97.769790
1716.000000	97.852319
1715.000000	97.896760
1714.000000	97.904764
1713.000000	97.878783
1712.000000	97.836432
1711.000000	97.800821
1710.000000	97.778905
1709.000000	97.761699
1708.000000	97.747435
1707.000000	97.728101
1706.000000	97.681115
1705.000000	97.610282
1704.000000	97.565806
1703.000000	97.568725
1702.000000	97.558623
1701.000000	97.439763
1700.000000	97.234141
1699.000000	97.101608
1698.000000	97.055346
1697.000000	96.940346
1696.000000	96.687240
1695.000000	96.410405
1694.000000	96.240937
1693.000000	96.149020
1692.000000	96.045116
1691.000000	95.902870
1690.000000	95.751233
1689.000000	95.622312
1688.000000	95.540912
1687.000000	95.500118
1686.000000	95.447539
1685.000000	95.301443
1684.000000	95.059096
1683.000000	94.860115
1682.000000	94.738290
1681.000000	94.593909
1680.000000	94.402622
1679.000000	94.227095
1678.000000	94.107913
1677.000000	94.000796
1676.000000	93.834948
1675.000000	93.622133
1674.000000	93.441705
1673.000000	93.317747
1672.000000	93.199949
1671.000000	93.040412
1670.000000	92.831421
1669.000000	92.593867
1668.000000	92.367517
1667.000000	92.183834
1666.000000	92.036709
1665.000000	91.893344
1664.000000	91.716146
1663.000000	91.504352
1662.000000	91.296611
1661.000000	91.113101
1660.000000	90.945268
1659.000000	90.788554
1658.000000	90.656127
1657.000000	90.572690
1656.000000	90.537447
1655.000000	90.503135
1654.000000	90.375418
1653.000000	90.132623
1652.000000	89.929653
1651.000000	89.865344
1650.000000	89.874260
1649.000000	89.865437
1648.000000	89.792851
1647.000000	89.681224
1646.000000	89.589336
1645.000000	89.531462
1644.000000	89.487111
1643.000000	89.454652
1642.000000	89.433996
1641.000000	89.418718
1640.000000	89.422894
1639.000000	89.462025
1638.000000	89.526467
1637.000000	89.576297
1636.000000	89.585736
1635.000000	89.576366
1634.000000	89.575351
1633.000000	89.582993
1632.000000	89.588129
1631.000000	89.599118
1630.000000	89.634428
1629.000000	89.699945
1628.000000	89.790019
1627.000000	89.901672
1626.000000	90.029892
1625.000000	90.164144
1624.000000	90.300652
1623.000000	90.444319
1622.000000	90.593703
1621.000000	90.740607
1620.000000	90.886709
1619.000000	91.034197
1618.000000	91.185826
1617.000000	91.350015
1616.000000	91.525093
1615.000000	91.694991
1614.000000	91.845185
1613.000000	91.973588
1612.000000	92.093095
1611.000000	92.226086
1610.000000	92.377809
1609.000000	92.532562
1608.000000	92.676729
1607.000000	92.809977
1606.000000	92.931896
1605.000000	93.039658
1604.000000	93.139012
1603.000000	93.231896
1602.000000	93.314403
1601.000000	93.388157
1600.000000	93.459315
1599.000000	93.528975
1598.000000	93.590937
1597.000000	93.643940
1596.000000	93.693263
1595.000000	93.739527
1594.000000	93.776227
1593.000000	93.800150
1592.000000	93.816177
1591.000000	93.828188
1590.000000	93.834186
1589.000000	93.832840
1588.000000	93.827269
1587.000000	93.816709
1586.000000	93.798313
1585.000000	93.771319
1584.000000	93.742618
1583.000000	93.712591
1582.000000	93.669504
1581.000000	93.619973
1580.000000	93.591078
1579.000000	93.587591
1578.000000	93.573248
1577.000000	93.509946
1576.000000	93.405408
1575.000000	93.311404
1574.000000	93.255884
1573.000000	93.220946
1572.000000	93.179408
1571.000000	93.107951
1570.000000	92.999194
1569.000000	92.875783
1568.000000	92.773149
1567.000000	92.686138
1566.000000	92.580519
1565.000000	92.450224
1564.000000	92.334735
1563.000000	92.280100
1562.000000	92.273823
1561.000000	92.265595
1560.000000	92.176749
1559.000000	91.965087
1558.000000	91.754272
1557.000000	91.616667
1556.000000	91.476583
1555.000000	91.293724
1554.000000	91.086071
1553.000000	90.906481
1552.000000	90.779815
1551.000000	90.664698
1550.000000	90.531751
1549.000000	90.403908
1548.000000	90.314862
1547.000000	90.259160
1546.000000	90.205256
1545.000000	90.144881
1544.000000	90.107887
1543.000000	90.113188
1542.000000	90.134864
1541.000000	90.122276
1540.000000	90.056255
1539.000000	89.970288
1538.000000	89.903240
1537.000000	89.875686
1536.000000	89.875650
1535.000000	89.879483
1534.000000	89.876364
1533.000000	89.875353
1532.000000	89.890436
1531.000000	89.914183
1530.000000	89.939292
1529.000000	89.969110
1528.000000	90.007380
1527.000000	90.056375
1526.000000	90.111363
1525.000000	90.170474
1524.000000	90.236010
1523.000000	90.293744
1522.000000	90.321385
1521.000000	90.320798
1520.000000	90.329529
1519.000000	90.366644
1518.000000	90.398108
1517.000000	90.395329
1516.000000	90.378895
1515.000000	90.387323
1514.000000	90.419239
1513.000000	90.452973
1512.000000	90.494093
1511.000000	90.573124
1510.000000	90.700683
1509.000000	90.846393
1508.000000	90.967975
1507.000000	91.055775
1506.000000	91.113323
1505.000000	91.131394
1504.000000	91.135588
1503.000000	91.152538
1502.000000	91.178535
1501.000000	91.209435
1500.000000	91.252476
1499.000000	91.314346
1498.000000	91.377796
1497.000000	91.413978
1496.000000	91.417380
1495.000000	91.422233
1494.000000	91.454070
1493.000000	91.498083
1492.000000	91.532314
1491.000000	91.554464
1490.000000	91.568515
1489.000000	91.564221
1488.000000	91.531062
1487.000000	91.475340
1486.000000	91.410022
1485.000000	91.334520
1484.000000	91.254206
1483.000000	91.174497
1482.000000	91.084127
1481.000000	90.977859
1480.000000	90.869755
1479.000000	90.772564
1478.000000	90.671762
1477.000000	90.551288
1476.000000	90.423276
1475.000000	90.307086
1474.000000	90.168344
1473.000000	89.941761
1472.000000	89.649050
1471.000000	89.381728
1470.000000	89.165995
1469.000000	88.972377
1468.000000	88.790396
1467.000000	88.629100
1466.000000	88.480439
1465.000000	88.319993
1464.000000	88.161403
1463.000000	88.037308
1462.000000	87.949416
1461.000000	87.881422
1460.000000	87.822357
1459.000000	87.754295
1458.000000	87.619689
1457.000000	87.381212
1456.000000	87.134438
1455.000000	86.981349
1454.000000	86.886880
1453.000000	86.787677
1452.000000	86.682551
1451.000000	86.605043
1450.000000	86.559944
1449.000000	86.514924
1448.000000	86.452437
1447.000000	86.395464
1446.000000	86.355202
1445.000000	86.315346
1444.000000	86.270183
1443.000000	86.221853
1442.000000	86.173126
1441.000000	86.129530
1440.000000	86.102431
1439.000000	86.086161
1438.000000	86.046608
1437.000000	85.953027
1436.000000	85.840526
1435.000000	85.776766
1434.000000	85.760795
1433.000000	85.750115
1432.000000	85.728160
1431.000000	85.700948
1430.000000	85.662179
1429.000000	85.594527
1428.000000	85.503977
1427.000000	85.421022
1426.000000	85.352735
1425.000000	85.285015
1424.000000	85.231281
1423.000000	85.219106
1422.000000	85.241062
1421.000000	85.254690
1420.000000	85.230022
1419.000000	85.178183
1418.000000	85.132625
1417.000000	85.107113
1416.000000	85.096313
1415.000000	85.099858
1414.000000	85.118096
1413.000000	85.148895
1412.000000	85.194848
1411.000000	85.259773
1410.000000	85.339674
1409.000000	85.428357
1408.000000	85.523891
1407.000000	85.628215
1406.000000	85.734407
1405.000000	85.830656
1404.000000	85.920876
1403.000000	86.013435
1402.000000	86.104143
1401.000000	86.181741
1400.000000	86.247452
1399.000000	86.317529
1398.000000	86.399034
1397.000000	86.480194
1396.000000	86.549641
1395.000000	86.612481
1394.000000	86.677181
1393.000000	86.748912
1392.000000	86.833409
1391.000000	86.930926
1390.000000	87.034398
1389.000000	87.136938
1388.000000	87.239045
1387.000000	87.345891
1386.000000	87.456947
1385.000000	87.566833
1384.000000	87.675058
1383.000000	87.782870
1382.000000	87.890958
1381.000000	88.001347
1380.000000	88.119266
1379.000000	88.251097
1378.000000	88.397783
1377.000000	88.556689
1376.000000	88.726489
1375.000000	88.904624
1374.000000	89.077814
1373.000000	89.231413
1372.000000	89.365166
1371.000000	89.488619
1370.000000	89.606873
1369.000000	89.722028
1368.000000	89.839369
1367.000000	89.960074
1366.000000	90.079005
1365.000000	90.191763
1364.000000	90.297844
1363.000000	90.395835
1362.000000	90.481168
1361.000000	90.552604
1360.000000	90.614277
1359.000000	90.669398
1358.000000	90.717783
1357.000000	90.761219
1356.000000	90.804697
1355.000000	90.850754
1354.000000	90.896888
1353.000000	90.941258
1352.000000	90.982635
1351.000000	91.020056
1350.000000	91.051189
1349.000000	91.074944
1348.000000	91.092651
1347.000000	91.101255
1346.000000	91.094909
1345.000000	91.073742
1344.000000	91.046283
1343.000000	91.019552
1342.000000	90.990811
1341.000000	90.951873
1340.000000	90.899479
1339.000000	90.839550
1338.000000	90.782114
1337.000000	90.735473
1336.000000	90.705248
1335.000000	90.695029
1334.000000	90.706396
1333.000000	90.739893
1332.000000	90.794274
1331.000000	90.864405
1330.000000	90.941686
1329.000000	91.019632
1328.000000	91.097004
1327.000000	91.174542
1326.000000	91.250383
1325.000000	91.321241
1324.000000	91.385428
1323.000000	91.442163
1322.000000	91.492130
1321.000000	91.538629
1320.000000	91.585303
1319.000000	91.632388
1318.000000	91.678480
1317.000000	91.725782
1316.000000	91.779321
1315.000000	91.840733
1314.000000	91.906444
1313.000000	91.972762
1312.000000	92.039051
1311.000000	92.105688
1310.000000	92.171913
1309.000000	92.237370
1308.000000	92.302544
1307.000000	92.367887
1306.000000	92.433372
1305.000000	92.499325
1304.000000	92.565676
1303.000000	92.630392
1302.000000	92.692113
1301.000000	92.753060
1300.000000	92.816622
1299.000000	92.882271
1298.000000	92.945545
1297.000000	93.002062
1296.000000	93.049406
1295.000000	93.086055
1294.000000	93.111616
1293.000000	93.127853
1292.000000	93.137310
1291.000000	93.141590
1290.000000	93.141476
1289.000000	93.137491
1288.000000	93.129382
1287.000000	93.117269
1286.000000	93.104514
1285.000000	93.096491
1284.000000	93.095088
1283.000000	93.096857
1282.000000	93.098195
1281.000000	93.099121
1280.000000	93.099623
1279.000000	93.095414
1278.000000	93.081134
1277.000000	93.055671
1276.000000	93.021009
1275.000000	92.976954
1274.000000	92.920685
1273.000000	92.850768
1272.000000	92.768378
1271.000000	92.675224
1270.000000	92.571643
1269.000000	92.457179
1268.000000	92.331924
1267.000000	92.196753
1266.000000	92.053714
1265.000000	91.905650
1264.000000	91.755197
1263.000000	91.604755
1262.000000	91.457706
1261.000000	91.318193
1260.000000	91.188435
1259.000000	91.066317
1258.000000	90.948087
1257.000000	90.835378
1256.000000	90.736920
1255.000000	90.661624
1254.000000	90.610287
1253.000000	90.574908
1252.000000	90.545217
1251.000000	90.513111
1250.000000	90.473264
1249.000000	90.423779
1248.000000	90.366676
1247.000000	90.305629
1246.000000	90.243070
1245.000000	90.180982
1244.000000	90.123213
1243.000000	90.074211
1242.000000	90.035807
1241.000000	90.007341
1240.000000	89.988872
1239.000000	89.982456
1238.000000	89.990505
1237.000000	90.015993
1236.000000	90.062313
1235.000000	90.129972
1234.000000	90.214548
1233.000000	90.309674
1232.000000	90.412668
1231.000000	90.525301
1230.000000	90.651663
1229.000000	90.797616
1228.000000	90.967688
1227.000000	91.159866
1226.000000	91.364642
1225.000000	91.571372
1224.000000	91.773933
1223.000000	91.968914
1222.000000	92.152767
1221.000000	92.322986
1220.000000	92.478995
1219.000000	92.619528
1218.000000	92.742631
1217.000000	92.848560
1216.000000	92.939453
1215.000000	93.015937
1214.000000	93.076597
1213.000000	93.122857
1212.000000	93.159691
1211.000000	93.189476
1210.000000	93.208452
1209.000000	93.210501
1208.000000	93.193989
1207.000000	93.163504
1206.000000	93.126931
1205.000000	93.092121
1204.000000	93.063861
1203.000000	93.042079
1202.000000	93.023263
1201.000000	93.005308
1200.000000	92.990846
1199.000000	92.984648
1198.000000	92.988078
1197.000000	92.997231
1196.000000	93.006046
1195.000000	93.010423
1194.000000	93.010096
1193.000000	93.007558
1192.000000	93.005142
1191.000000	93.002578
1190.000000	92.997616
1189.000000	92.988427
1188.000000	92.974175
1187.000000	92.953305
1186.000000	92.922849
1185.000000	92.880904
1184.000000	92.828300
1183.000000	92.767137
1182.000000	92.698698
1181.000000	92.623291
1180.000000	92.541938
1179.000000	92.456386
1178.000000	92.367584
1177.000000	92.275512
1176.000000	92.180266
1175.000000	92.082759
1174.000000	91.984475
1173.000000	91.887732
1172.000000	91.795731
1171.000000	91.710728
1170.000000	91.632164
1169.000000	91.558394
1168.000000	91.490126
1167.000000	91.429729
1166.000000	91.378177
1165.000000	91.335152
1164.000000	91.302613
1163.000000	91.285744
1162.000000	91.288854
1161.000000	91.313661
1160.000000	91.360698
1159.000000	91.429631
1158.000000	91.518706
1157.000000	91.625660
1156.000000	91.750461
1155.000000	91.893688
1154.000000	92.052934
1153.000000	92.224442
1152.000000	92.406581
1151.000000	92.599593
1150.000000	92.801787
1149.000000	93.008576
1148.000000	93.215228
1147.000000	93.418484
1146.000000	93.616844
1145.000000	93.810975
1144.000000	94.002865
1143.000000	94.192289
1142.000000	94.374888
1141.000000	94.544691
1140.000000	94.698392
1139.000000	94.837185
1138.000000	94.964113
1137.000000	95.080597
1136.000000	95.184742
1135.000000	95.273013
1134.000000	95.343990
1133.000000	95.398820
1132.000000	95.439592
1131.000000	95.468330
1130.000000	95.486993
1129.000000	95.497183
1128.000000	95.499169
1127.000000	95.493722
1126.000000	95.484005
1125.000000	95.472997
1124.000000	95.459904
1123.000000	95.440974
1122.000000	95.413935
1121.000000	95.378798
1120.000000	95.334168
1119.000000	95.276589
1118.000000	95.203311
1117.000000	95.113399
1116.000000	95.005774
1115.000000	94.879264
1114.000000	94.736922
1113.000000	94.588352
1112.000000	94.446810
1111.000000	94.323988
1110.000000	94.226600
1109.000000	94.156429
1108.000000	94.113169
1107.000000	94.095800
1106.000000	94.099899
1105.000000	94.115788
1104.000000	94.131668
1103.000000	94.140046
1102.000000	94.139275
1101.000000	94.127947
1100.000000	94.101428
1099.000000	94.056423
1098.000000	93.997530
1097.000000	93.935040
1096.000000	93.876676
1095.000000	93.824381
1094.000000	93.778313
1093.000000	93.740732
1092.000000	93.716003
1091.000000	93.708999
1090.000000	93.723902
1089.000000	93.760876
1088.000000	93.813354
1087.000000	93.871921
1086.000000	93.932158
1085.000000	93.997799
1084.000000	94.074246
1083.000000	94.161465
1082.000000	94.255080
1081.000000	94.351018
1080.000000	94.446525
1079.000000	94.539056
1078.000000	94.628204
1077.000000	94.717026
1076.000000	94.807766
1075.000000	94.897009
1074.000000	94.977841
1073.000000	95.045670
1072.000000	95.099166
1071.000000	95.138390
1070.000000	95.165038
1069.000000	95.183058
1068.000000	95.195950
1067.000000	95.203863
1066.000000	95.206015
1065.000000	95.204251
1064.000000	95.202160
1063.000000	95.202305
1062.000000	95.206056
1061.000000	95.214210
1060.000000	95.225468
1059.000000	95.236581
1058.000000	95.247090
1057.000000	95.262480
1056.000000	95.288887
1055.000000	95.325142
1054.000000	95.363152
1053.000000	95.395929
1052.000000	95.422630
1051.000000	95.445959
1050.000000	95.468092
1049.000000	95.490185
1048.000000	95.513289
1047.000000	95.537575
1046.000000	95.560889
1045.000000	95.578739
1044.000000	95.586163
1043.000000	95.581154
1042.000000	95.566359
1041.000000	95.546029
1040.000000	95.520781
1039.000000	95.486525
1038.000000	95.439373
1037.000000	95.379771
1036.000000	95.312245
1035.000000	95.243581
1034.000000	95.181307
1033.000000	95.130559
1032.000000	95.090636
1031.000000	95.057032
1030.000000	95.028441
1029.000000	95.010245
1028.000000	95.008741
1027.000000	95.023817
1026.000000	95.049551
1025.000000	95.080046
1024.000000	95.112161
1023.000000	95.143678
1022.000000	95.173361
1021.000000	95.203311
1020.000000	95.237671
1019.000000	95.278107
1018.000000	95.322269
1017.000000	95.367282
1016.000000	95.412769
1015.000000	95.459915
1014.000000	95.509852
1013.000000	95.563590
1012.000000	95.622270
1011.000000	95.686872
1010.000000	95.757815
1009.000000	95.834399
1008.000000	95.913654
1007.000000	95.991013
1006.000000	96.063527
1005.000000	96.131206
1004.000000	96.193909
1003.000000	96.249215
1002.000000	96.296304
1001.000000	96.339957
1000.000000	96.387185
999.000000	96.439617
998.000000	96.491534
997.000000	96.535295
996.000000	96.566545
995.000000	96.585862
994.000000	96.598399
993.000000	96.611487
992.000000	96.629521
991.000000	96.649899
990.000000	96.665476
989.000000	96.671275
988.000000	96.668068
987.000000	96.660516
986.000000	96.653552
985.000000	96.649647
984.000000	96.646934
983.000000	96.639996
982.000000	96.624855
981.000000	96.603341
980.000000	96.580704
979.000000	96.558475
978.000000	96.532081
977.000000	96.496881
976.000000	96.454663
975.000000	96.412487
974.000000	96.375798
973.000000	96.344819
972.000000	96.317549
971.000000	96.294362
970.000000	96.278419
969.000000	96.272458
968.000000	96.276722
967.000000	96.289454
966.000000	96.308705
965.000000	96.333212
964.000000	96.361803
963.000000	96.392951
962.000000	96.425518
961.000000	96.460466
960.000000	96.500803
959.000000	96.548764
958.000000	96.603452
957.000000	96.661957
956.000000	96.722840
955.000000	96.787223
954.000000	96.856130
953.000000	96.928253
952.000000	97.000840
951.000000	97.071442
950.000000	97.137393
949.000000	97.195169
948.000000	97.243011
947.000000	97.284395
946.000000	97.325734
945.000000	97.369095
944.000000	97.410048
943.000000	97.444053
942.000000	97.472349
941.000000	97.498443
940.000000	97.521456
939.000000	97.537617
938.000000	97.547484
937.000000	97.557854
936.000000	97.576044
935.000000	97.605025
934.000000	97.643237
933.000000	97.685571
932.000000	97.724720
931.000000	97.755386
930.000000	97.778435
929.000000	97.798772
928.000000	97.819320
927.000000	97.840003
926.000000	97.862032
925.000000	97.888525
924.000000	97.919903
923.000000	97.952325
922.000000	97.982372
921.000000	98.010366
920.000000	98.037892
919.000000	98.065255
918.000000	98.093075
917.000000	98.123380
916.000000	98.157010
915.000000	98.192226
914.000000	98.227344
913.000000	98.262579
912.000000	98.297924
911.000000	98.331639
910.000000	98.362400
909.000000	98.390959
908.000000	98.418216
907.000000	98.443533
906.000000	98.465897
905.000000	98.484411
904.000000	98.497206
903.000000	98.502882
902.000000	98.504402
901.000000	98.508988
900.000000	98.522614
899.000000	98.545743
898.000000	98.574704
897.000000	98.604268
896.000000	98.628522
895.000000	98.642717
894.000000	98.646281
893.000000	98.642362
892.000000	98.632921
891.000000	98.615040
890.000000	98.577982
889.000000	98.498135
888.000000	98.339388
887.000000	98.068690
886.000000	97.683276
885.000000	97.221673
884.000000	96.741728
883.000000	96.282704
882.000000	95.839823
881.000000	95.372489
880.000000	94.840621
879.000000	94.241619
878.000000	93.618041
877.000000	93.037149
876.000000	92.565220
875.000000	92.255730
874.000000	92.149147
873.000000	92.269491
872.000000	92.618195
871.000000	93.162188
870.000000	93.829720
869.000000	94.528412
868.000000	95.175664
867.000000	95.724112
866.000000	96.166984
865.000000	96.523569
864.000000	96.816230
863.000000	97.058038
862.000000	97.255459
861.000000	97.416112
860.000000	97.550496
859.000000	97.667725
858.000000	97.772920
857.000000	97.865642
856.000000	97.941166
855.000000	97.997113
854.000000	98.038596
853.000000	98.071741
852.000000	98.090033
851.000000	98.076882
850.000000	98.030363
849.000000	97.980434
848.000000	97.970897
847.000000	98.020656
846.000000	98.107784
845.000000	98.193366
844.000000	98.255157
843.000000	98.296652
842.000000	98.331027
841.000000	98.364330
840.000000	98.393660
839.000000	98.414362
838.000000	98.424907
837.000000	98.426546
836.000000	98.422072
835.000000	98.415884
834.000000	98.412514
833.000000	98.413004
832.000000	98.414177
831.000000	98.414148
830.000000	98.417810
829.000000	98.433488
828.000000	98.463174
827.000000	98.499024
826.000000	98.531067
825.000000	98.555430
824.000000	98.572773
823.000000	98.582769
822.000000	98.585350
821.000000	98.585058
820.000000	98.588231
819.000000	98.595536
818.000000	98.601858
817.000000	98.604344
816.000000	98.605870
815.000000	98.608977
814.000000	98.611041
813.000000	98.609328
812.000000	98.607244
811.000000	98.609873
810.000000	98.614626
809.000000	98.612516
808.000000	98.600333
807.000000	98.586137
806.000000	98.579230
805.000000	98.578484
804.000000	98.574863
803.000000	98.563242
802.000000	98.546857
801.000000	98.530307
800.000000	98.512753
799.000000	98.489687
798.000000	98.459506
797.000000	98.427067
796.000000	98.400987
795.000000	98.386340
794.000000	98.379001
793.000000	98.368969
792.000000	98.350822
791.000000	98.328828
790.000000	98.309504
789.000000	98.291913
788.000000	98.269494
787.000000	98.239856
786.000000	98.208236
785.000000	98.181661
784.000000	98.163687
783.000000	98.154266
782.000000	98.150133
781.000000	98.145086
780.000000	98.134615
779.000000	98.121398
778.000000	98.112396
777.000000	98.109197
776.000000	98.105299
775.000000	98.094336
774.000000	98.076882
773.000000	98.057365
772.000000	98.038501
771.000000	98.021499
770.000000	98.007958
769.000000	97.998027
768.000000	97.988620
767.000000	97.975982
766.000000	97.958329
765.000000	97.934786
764.000000	97.904909
763.000000	97.871400
762.000000	97.839695
761.000000	97.811532
760.000000	97.782208
759.000000	97.748068
758.000000	97.713492
757.000000	97.685024
756.000000	97.660459
755.000000	97.630744
754.000000	97.594105
753.000000	97.562099
752.000000	97.547150
751.000000	97.547128
750.000000	97.546986
749.000000	97.535364
748.000000	97.515274
747.000000	97.497048
746.000000	97.484954
745.000000	97.474435
744.000000	97.460427
743.000000	97.443206
742.000000	97.425179
741.000000	97.406637
740.000000	97.387489
739.000000	97.369286
738.000000	97.351158
737.000000	97.326310
736.000000	97.287797
735.000000	97.237323
734.000000	97.183508
733.000000	97.131610
732.000000	97.080135
731.000000	97.028060
730.000000	96.979171
729.000000	96.935987
728.000000	96.896200
727.000000	96.859230
726.000000	96.830362
725.000000	96.813545
724.000000	96.802538
723.000000	96.783329
722.000000	96.743777
721.000000	96.678029
720.000000	96.583157
719.000000	96.453679
718.000000	96.276531
717.000000	96.029150
716.000000	95.691303
715.000000	95.275066
714.000000	94.850663
713.000000	94.531121
712.000000	94.410425
711.000000	94.500522
710.000000	94.725056
709.000000	94.974340
708.000000	95.170214
707.000000	95.291877
706.000000	95.355475
705.000000	95.382136
704.000000	95.383822
703.000000	95.365583
702.000000	95.332948
701.000000	95.295241
700.000000	95.261248
699.000000	95.233661
698.000000	95.208170
697.000000	95.180394
696.000000	95.152731
695.000000	95.131083
694.000000	95.119912
693.000000	95.121832
692.000000	95.137023
691.000000	95.160536
690.000000	95.181012
689.000000	95.187766
688.000000	95.179306
687.000000	95.160847
686.000000	95.137329
685.000000	95.112156
684.000000	95.088536
683.000000	95.068009
682.000000	95.049460
681.000000	95.033948
680.000000	95.026897
679.000000	95.031246
678.000000	95.040186
677.000000	95.041659
676.000000	95.034407
675.000000	95.029521
674.000000	95.038955
673.000000	95.066199
672.000000	95.107947
671.000000	95.159021
670.000000	95.214325
669.000000	95.260157
668.000000	95.262732
667.000000	95.245820
666.000000	95.271929
665.000000	95.315232
664.000000	95.344821
663.000000	95.363176
662.000000	95.376751
661.000000	95.381927
660.000000	95.373854
659.000000	95.360666
658.000000	95.350859
657.000000	95.336511
656.000000	95.307611
655.000000	95.269419
654.000000	95.232637
653.000000	95.196409
652.000000	95.154434
651.000000	95.107037
650.000000	95.056661
649.000000	95.000036
648.000000	94.937332
647.000000	94.878001
646.000000	94.825679
645.000000	94.770262
644.000000	94.703575
643.000000	94.630528
642.000000	94.557878
641.000000	94.483389
640.000000	94.407258
639.000000	94.342573
638.000000	94.299761
637.000000	94.272423
636.000000	94.251388
635.000000	94.240320
634.000000	94.246002
633.000000	94.264119
632.000000	94.284690
631.000000	94.301275
630.000000	94.306469
629.000000	94.291716
628.000000	94.262084
627.000000	94.238406
626.000000	94.231976
625.000000	94.228715
624.000000	94.209994
623.000000	94.177241
622.000000	94.145434
621.000000	94.123224
620.000000	94.110037
619.000000	94.101525
618.000000	94.086276
617.000000	94.048827
616.000000	93.989158
615.000000	93.928655
614.000000	93.885633
613.000000	93.857560
612.000000	93.837781
611.000000	93.834673
610.000000	93.857914
609.000000	93.897621
608.000000	93.934866
607.000000	93.966359
606.000000	94.003556
605.000000	94.055618
604.000000	94.126454
603.000000	94.221204
602.000000	94.342209
601.000000	94.479831
600.000000	94.617122
599.000000	94.741590
598.000000	94.848811
597.000000	94.939982
596.000000	95.020762
595.000000	95.097526
594.000000	95.169860
593.000000	95.232385
592.000000	95.286259
591.000000	95.338671
590.000000	95.386855
589.000000	95.416346
588.000000	95.422356
587.000000	95.419449
586.000000	95.423330
585.000000	95.434954
584.000000	95.451443
583.000000	95.477099
582.000000	95.508135
581.000000	95.522667
580.000000	95.507876
579.000000	95.487045
578.000000	95.495095
577.000000	95.533638
576.000000	95.572154
575.000000	95.589666
574.000000	95.595898
573.000000	95.608724
572.000000	95.631978
571.000000	95.659327
570.000000	95.682424
569.000000	95.691930
568.000000	95.682921
567.000000	95.661889
566.000000	95.639230
565.000000	95.614491
564.000000	95.581178
563.000000	95.545734
562.000000	95.528125
561.000000	95.541409
560.000000	95.579395
559.000000	95.624251
558.000000	95.657829
557.000000	95.668407
556.000000	95.656541
555.000000	95.635371
554.000000	95.621714
553.000000	95.626988
552.000000	95.656397
551.000000	95.706065
550.000000	95.755426
549.000000	95.779007
548.000000	95.774841
547.000000	95.767184
546.000000	95.773825
545.000000	95.784151
544.000000	95.782623
543.000000	95.776831
542.000000	95.783427
541.000000	95.799816
540.000000	95.810083
539.000000	95.808929
538.000000	95.800618
537.000000	95.783225
536.000000	95.754259
535.000000	95.726383
534.000000	95.718535
533.000000	95.731861
532.000000	95.747929
531.000000	95.746584
530.000000	95.718238
529.000000	95.669823
528.000000	95.629061
527.000000	95.631542
526.000000	95.681847
525.000000	95.736000
524.000000	95.751571
523.000000	95.734757
522.000000	95.715783
521.000000	95.709735
520.000000	95.723092
519.000000	95.774682
518.000000	95.876025
517.000000	95.995381
516.000000	96.078270
515.000000	96.101516
514.000000	96.080587
513.000000	96.039908
512.000000	96.003073
511.000000	95.996962
510.000000	96.036149
509.000000	96.106588
508.000000	96.182560
507.000000	96.252135
506.000000	96.310750
505.000000	96.347244
504.000000	96.358214
503.000000	96.363184
502.000000	96.382155
501.000000	96.404269
500.000000	96.409932
499.000000	96.411787
498.000000	96.438506
497.000000	96.488154
496.000000	96.526193
495.000000	96.528390
494.000000	96.503797
493.000000	96.475839
492.000000	96.463706
491.000000	96.481422
490.000000	96.531255
489.000000	96.595707
488.000000	96.652197
487.000000	96.696048
486.000000	96.736866
485.000000	96.779382
484.000000	96.823275
483.000000	96.872139
482.000000	96.921795
481.000000	96.953122
480.000000	96.958181
479.000000	96.958203
478.000000	96.977382
477.000000	97.013878
476.000000	97.058757
475.000000	97.120664
474.000000	97.198736
473.000000	97.250441
472.000000	97.239489
471.000000	97.207177
470.000000	97.222201
469.000000	97.284296
468.000000	97.342521
467.000000	97.375613
466.000000	97.404623
465.000000	97.434713
464.000000	97.447303
463.000000	97.459024
462.000000	97.529334
461.000000	97.684448
460.000000	97.883935
459.000000	98.072909
458.000000	98.214810
457.000000	98.285732
456.000000	98.292575
455.000000	98.290706
454.000000	98.340733
453.000000	98.447962
452.000000	98.560026
451.000000	98.617792
450.000000	98.630408
