PE IR       SUBTECH     SPECTRUM    ASCII       PEDS        4.00        
   -1
3C-YYX-F006_1.ASC
23/09/07
10:57:52.00
23/09/07
11:30:09.00
uco
Sample 006 By uco Date Thursday, September 07 2023
450.000000
#HDR
-1
-1
#GR
cm-1
%T
1.0
0.0
4000.000000
-1.000000
3551
8
98.834680
84.906833
#DATA
4000.000000	98.727082
3999.000000	98.727763
3998.000000	98.726895
3997.000000	98.725258
3996.000000	98.723994
3995.000000	98.723775
3994.000000	98.724213
3993.000000	98.724120
3992.000000	98.722331
3991.000000	98.718476
3990.000000	98.713239
3989.000000	98.708049
3988.000000	98.704481
3987.000000	98.703382
3986.000000	98.704241
3985.000000	98.705595
3984.000000	98.706439
3983.000000	98.707353
3982.000000	98.709815
3981.000000	98.714164
3980.000000	98.718532
3979.000000	98.720046
3978.000000	98.717296
3977.000000	98.711713
3976.000000	98.706619
3975.000000	98.704814
3974.000000	98.706648
3973.000000	98.710018
3972.000000	98.712143
3971.000000	98.711492
3970.000000	98.708410
3969.000000	98.704352
3968.000000	98.700733
3967.000000	98.698430
3966.000000	98.697806
3965.000000	98.698832
3964.000000	98.701111
3963.000000	98.703915
3962.000000	98.706359
3961.000000	98.707601
3960.000000	98.707090
3959.000000	98.704938
3958.000000	98.701946
3957.000000	98.699072
3956.000000	98.696729
3955.000000	98.694790
3954.000000	98.693187
3953.000000	98.692279
3952.000000	98.692611
3951.000000	98.694347
3950.000000	98.696879
3949.000000	98.698932
3948.000000	98.699178
3947.000000	98.696664
3946.000000	98.690966
3945.000000	98.682706
3944.000000	98.674326
3943.000000	98.669555
3942.000000	98.670817
3941.000000	98.677194
3940.000000	98.685181
3939.000000	98.691163
3938.000000	98.693109
3937.000000	98.690579
3936.000000	98.684370
3935.000000	98.676874
3934.000000	98.672251
3933.000000	98.674764
3932.000000	98.685254
3931.000000	98.699220
3930.000000	98.709562
3929.000000	98.711456
3928.000000	98.704855
3927.000000	98.693870
3926.000000	98.684622
3925.000000	98.682082
3924.000000	98.686653
3923.000000	98.693956
3922.000000	98.698704
3921.000000	98.698046
3920.000000	98.691797
3919.000000	98.681517
3918.000000	98.670640
3917.000000	98.664177
3916.000000	98.665482
3915.000000	98.672968
3914.000000	98.681214
3913.000000	98.685715
3912.000000	98.685573
3911.000000	98.683011
3910.000000	98.680571
3909.000000	98.678974
3908.000000	98.676859
3907.000000	98.672471
3906.000000	98.666056
3905.000000	98.661227
3904.000000	98.662925
3903.000000	98.672248
3902.000000	98.684273
3901.000000	98.692335
3900.000000	98.694211
3899.000000	98.692778
3898.000000	98.691388
3897.000000	98.690536
3896.000000	98.688872
3895.000000	98.685757
3894.000000	98.681858
3893.000000	98.678983
3892.000000	98.679585
3891.000000	98.685653
3890.000000	98.695845
3889.000000	98.704877
3888.000000	98.707146
3887.000000	98.701759
3886.000000	98.693748
3885.000000	98.688535
3884.000000	98.685454
3883.000000	98.679822
3882.000000	98.670379
3881.000000	98.661695
3880.000000	98.659082
3879.000000	98.662653
3878.000000	98.667666
3877.000000	98.669983
3876.000000	98.670285
3875.000000	98.673392
3874.000000	98.682364
3873.000000	98.693557
3872.000000	98.700011
3871.000000	98.700001
3870.000000	98.699625
3869.000000	98.704722
3868.000000	98.712694
3867.000000	98.716733
3866.000000	98.714924
3865.000000	98.711520
3864.000000	98.710300
3863.000000	98.710098
3862.000000	98.707327
3861.000000	98.700806
3860.000000	98.692343
3859.000000	98.685251
3858.000000	98.682004
3857.000000	98.682050
3856.000000	98.681495
3855.000000	98.676911
3854.000000	98.671268
3853.000000	98.671232
3852.000000	98.676215
3851.000000	98.679387
3850.000000	98.677876
3849.000000	98.674476
3848.000000	98.672592
3847.000000	98.672800
3846.000000	98.673569
3845.000000	98.673596
3844.000000	98.673014
3843.000000	98.673473
3842.000000	98.676321
3841.000000	98.681622
3840.000000	98.688778
3839.000000	98.697277
3838.000000	98.706093
3837.000000	98.713974
3836.000000	98.720055
3835.000000	98.723631
3834.000000	98.723526
3833.000000	98.718883
3832.000000	98.710779
3831.000000	98.702073
3830.000000	98.695087
3829.000000	98.690217
3828.000000	98.686947
3827.000000	98.685803
3826.000000	98.687614
3825.000000	98.691032
3824.000000	98.692406
3823.000000	98.690158
3822.000000	98.688157
3821.000000	98.692064
3820.000000	98.700736
3819.000000	98.706743
3818.000000	98.705204
3817.000000	98.698066
3816.000000	98.692040
3815.000000	98.690242
3814.000000	98.688741
3813.000000	98.683655
3812.000000	98.676666
3811.000000	98.671889
3810.000000	98.670649
3809.000000	98.670892
3808.000000	98.671226
3807.000000	98.673661
3806.000000	98.680217
3805.000000	98.689192
3804.000000	98.697463
3803.000000	98.704957
3802.000000	98.713841
3801.000000	98.722772
3800.000000	98.725669
3799.000000	98.719364
3798.000000	98.707343
3797.000000	98.696193
3796.000000	98.689924
3795.000000	98.686861
3794.000000	98.683074
3793.000000	98.677419
3792.000000	98.672207
3791.000000	98.669866
3790.000000	98.670641
3789.000000	98.673053
3788.000000	98.675669
3787.000000	98.677801
3786.000000	98.679439
3785.000000	98.681147
3784.000000	98.683608
3783.000000	98.686893
3782.000000	98.690549
3781.000000	98.694340
3780.000000	98.697577
3779.000000	98.697991
3778.000000	98.693103
3777.000000	98.683769
3776.000000	98.674664
3775.000000	98.671129
3774.000000	98.674490
3773.000000	98.680325
3772.000000	98.682535
3771.000000	98.680014
3770.000000	98.677654
3769.000000	98.679434
3768.000000	98.683326
3767.000000	98.685009
3766.000000	98.683678
3765.000000	98.681827
3764.000000	98.680771
3763.000000	98.678959
3762.000000	98.675659
3761.000000	98.673931
3760.000000	98.676940
3759.000000	98.682652
3758.000000	98.685863
3757.000000	98.685362
3756.000000	98.684198
3755.000000	98.685271
3754.000000	98.689854
3753.000000	98.698118
3752.000000	98.707851
3751.000000	98.713898
3750.000000	98.714326
3749.000000	98.714728
3748.000000	98.719733
3747.000000	98.726469
3746.000000	98.729346
3745.000000	98.726435
3744.000000	98.720795
3743.000000	98.715619
3742.000000	98.710097
3741.000000	98.703924
3740.000000	98.699856
3739.000000	98.699723
3738.000000	98.702304
3737.000000	98.706789
3736.000000	98.714538
3735.000000	98.724624
3734.000000	98.732570
3733.000000	98.736108
3732.000000	98.737381
3731.000000	98.738133
3730.000000	98.736443
3729.000000	98.729244
3728.000000	98.716669
3727.000000	98.703152
3726.000000	98.694103
3725.000000	98.691616
3724.000000	98.694461
3723.000000	98.700378
3722.000000	98.706660
3721.000000	98.710916
3720.000000	98.712355
3719.000000	98.711848
3718.000000	98.711080
3717.000000	98.711798
3716.000000	98.714728
3715.000000	98.719031
3714.000000	98.722867
3713.000000	98.725031
3712.000000	98.726386
3711.000000	98.728834
3710.000000	98.732068
3709.000000	98.733609
3708.000000	98.732184
3707.000000	98.728633
3706.000000	98.724049
3705.000000	98.718577
3704.000000	98.712452
3703.000000	98.707237
3702.000000	98.705583
3701.000000	98.708825
3700.000000	98.715411
3699.000000	98.721742
3698.000000	98.724761
3697.000000	98.723759
3696.000000	98.719579
3695.000000	98.713238
3694.000000	98.706587
3693.000000	98.703310
3692.000000	98.706336
3691.000000	98.713659
3690.000000	98.718129
3689.000000	98.714951
3688.000000	98.707690
3687.000000	98.702173
3686.000000	98.698802
3685.000000	98.695298
3684.000000	98.691565
3683.000000	98.688623
3682.000000	98.686088
3681.000000	98.682460
3680.000000	98.677761
3679.000000	98.672695
3678.000000	98.666706
3677.000000	98.660476
3676.000000	98.659292
3675.000000	98.665673
3674.000000	98.672822
3673.000000	98.673308
3672.000000	98.666503
3671.000000	98.658315
3670.000000	98.654364
3669.000000	98.651677
3668.000000	98.643822
3667.000000	98.630633
3666.000000	98.616518
3665.000000	98.605561
3664.000000	98.599110
3663.000000	98.595659
3662.000000	98.592896
3661.000000	98.589894
3660.000000	98.587268
3659.000000	98.585342
3658.000000	98.583710
3657.000000	98.582627
3656.000000	98.583780
3655.000000	98.587566
3654.000000	98.590755
3653.000000	98.588503
3652.000000	98.578330
3651.000000	98.561768
3650.000000	98.543725
3649.000000	98.530366
3648.000000	98.525181
3647.000000	98.525899
3646.000000	98.527049
3645.000000	98.524693
3644.000000	98.518424
3643.000000	98.510717
3642.000000	98.504021
3641.000000	98.498466
3640.000000	98.493163
3639.000000	98.489039
3638.000000	98.487710
3637.000000	98.487520
3636.000000	98.483759
3635.000000	98.474262
3634.000000	98.463040
3633.000000	98.455786
3632.000000	98.453240
3631.000000	98.451775
3630.000000	98.449227
3629.000000	98.446808
3628.000000	98.444797
3627.000000	98.440405
3626.000000	98.430774
3625.000000	98.416561
3624.000000	98.402369
3623.000000	98.392984
3622.000000	98.389374
3621.000000	98.388324
3620.000000	98.384773
3619.000000	98.375397
3618.000000	98.361612
3617.000000	98.347320
3616.000000	98.334076
3615.000000	98.320889
3614.000000	98.307046
3613.000000	98.292994
3612.000000	98.279012
3611.000000	98.263775
3610.000000	98.245578
3609.000000	98.226571
3608.000000	98.213734
3607.000000	98.212386
3606.000000	98.219908
3605.000000	98.228203
3604.000000	98.230765
3603.000000	98.226025
3602.000000	98.216755
3601.000000	98.207331
3600.000000	98.200562
3599.000000	98.195458
3598.000000	98.188352
3597.000000	98.176032
3596.000000	98.158587
3595.000000	98.139814
3594.000000	98.124216
3593.000000	98.112991
3592.000000	98.103481
3591.000000	98.092281
3590.000000	98.078149
3589.000000	98.063210
3588.000000	98.051372
3587.000000	98.044942
3586.000000	98.043016
3585.000000	98.042749
3584.000000	98.041081
3583.000000	98.035557
3582.000000	98.024841
3581.000000	98.009225
3580.000000	97.990982
3579.000000	97.973431
3578.000000	97.958864
3577.000000	97.947259
3576.000000	97.936596
3575.000000	97.924508
3574.000000	97.909716
3573.000000	97.892905
3572.000000	97.876375
3571.000000	97.862702
3570.000000	97.853197
3569.000000	97.847523
3568.000000	97.843518
3567.000000	97.837841
3566.000000	97.828813
3565.000000	97.817913
3564.000000	97.806891
3563.000000	97.795892
3562.000000	97.784355
3561.000000	97.772162
3560.000000	97.759692
3559.000000	97.747141
3558.000000	97.734097
3557.000000	97.720277
3556.000000	97.706116
3555.000000	97.692213
3554.000000	97.678437
3553.000000	97.664335
3552.000000	97.650437
3551.000000	97.638034
3550.000000	97.627310
3549.000000	97.617001
3548.000000	97.606225
3547.000000	97.595701
3546.000000	97.586523
3545.000000	97.578348
3544.000000	97.569546
3543.000000	97.558990
3542.000000	97.546993
3541.000000	97.534692
3540.000000	97.522917
3539.000000	97.511461
3538.000000	97.499240
3537.000000	97.485152
3536.000000	97.468974
3535.000000	97.451581
3534.000000	97.434634
3533.000000	97.420293
3532.000000	97.410643
3531.000000	97.406041
3530.000000	97.403640
3529.000000	97.398697
3528.000000	97.388428
3527.000000	97.374229
3526.000000	97.359551
3525.000000	97.346475
3524.000000	97.334914
3523.000000	97.324042
3522.000000	97.313350
3521.000000	97.302601
3520.000000	97.291719
3519.000000	97.280821
3518.000000	97.269804
3517.000000	97.257860
3516.000000	97.244133
3515.000000	97.228965
3514.000000	97.213801
3513.000000	97.199539
3512.000000	97.185688
3511.000000	97.171644
3510.000000	97.158357
3509.000000	97.148009
3508.000000	97.141799
3507.000000	97.138419
3506.000000	97.134906
3505.000000	97.128529
3504.000000	97.118129
3503.000000	97.104702
3502.000000	97.091126
3501.000000	97.080446
3500.000000	97.073404
3499.000000	97.067634
3498.000000	97.059769
3497.000000	97.048596
3496.000000	97.035820
3495.000000	97.023324
3494.000000	97.010628
3493.000000	96.996251
3492.000000	96.981039
3491.000000	96.968400
3490.000000	96.960726
3489.000000	96.956583
3488.000000	96.952381
3487.000000	96.946073
3486.000000	96.938067
3485.000000	96.928728
3484.000000	96.916707
3483.000000	96.900659
3482.000000	96.882138
3481.000000	96.865679
3480.000000	96.855431
3479.000000	96.851968
3478.000000	96.852372
3477.000000	96.852677
3476.000000	96.849916
3475.000000	96.842809
3474.000000	96.831730
3473.000000	96.818317
3472.000000	96.804578
3471.000000	96.791804
3470.000000	96.780179
3469.000000	96.769362
3468.000000	96.759191
3467.000000	96.749795
3466.000000	96.741446
3465.000000	96.734569
3464.000000	96.729444
3463.000000	96.725349
3462.000000	96.720158
3461.000000	96.711385
3460.000000	96.697947
3459.000000	96.680949
3458.000000	96.663105
3457.000000	96.647487
3456.000000	96.636211
3455.000000	96.629473
3454.000000	96.625887
3453.000000	96.624219
3452.000000	96.624435
3451.000000	96.626541
3450.000000	96.628834
3449.000000	96.628359
3448.000000	96.623354
3447.000000	96.614650
3446.000000	96.604199
3445.000000	96.592884
3444.000000	96.580732
3443.000000	96.568816
3442.000000	96.559661
3441.000000	96.555013
3440.000000	96.553517
3439.000000	96.551220
3438.000000	96.544616
3437.000000	96.533277
3436.000000	96.519680
3435.000000	96.506817
3434.000000	96.496204
3433.000000	96.487858
3432.000000	96.481239
3431.000000	96.475569
3430.000000	96.469742
3429.000000	96.462718
3428.000000	96.454321
3427.000000	96.445319
3426.000000	96.436538
3425.000000	96.427877
3424.000000	96.418188
3423.000000	96.406290
3422.000000	96.392341
3421.000000	96.378187
3420.000000	96.365999
3419.000000	96.356584
3418.000000	96.349353
3417.000000	96.343596
3416.000000	96.338909
3415.000000	96.334457
3414.000000	96.328789
3413.000000	96.320798
3412.000000	96.310247
3411.000000	96.297236
3410.000000	96.282327
3409.000000	96.267782
3408.000000	96.257299
3407.000000	96.252914
3406.000000	96.252433
3405.000000	96.251024
3404.000000	96.245375
3403.000000	96.235755
3402.000000	96.224522
3401.000000	96.213747
3400.000000	96.204098
3399.000000	96.194739
3398.000000	96.183946
3397.000000	96.170730
3396.000000	96.156280
3395.000000	96.143236
3394.000000	96.133335
3393.000000	96.126297
3392.000000	96.121070
3391.000000	96.117173
3390.000000	96.114166
3389.000000	96.110539
3388.000000	96.104291
3387.000000	96.094841
3386.000000	96.083823
3385.000000	96.073472
3384.000000	96.064279
3383.000000	96.054633
3382.000000	96.042893
3381.000000	96.029357
3380.000000	96.015857
3379.000000	96.003729
3378.000000	95.992935
3377.000000	95.983065
3376.000000	95.974163
3375.000000	95.965972
3374.000000	95.957209
3373.000000	95.946572
3372.000000	95.934325
3371.000000	95.922129
3370.000000	95.911325
3369.000000	95.901812
3368.000000	95.892405
3367.000000	95.881669
3366.000000	95.868560
3365.000000	95.853078
3364.000000	95.836592
3363.000000	95.821109
3362.000000	95.807952
3361.000000	95.797065
3360.000000	95.787242
3359.000000	95.776590
3358.000000	95.763096
3357.000000	95.745603
3356.000000	95.724810
3355.000000	95.703277
3354.000000	95.684119
3353.000000	95.669206
3352.000000	95.658021
3351.000000	95.647998
3350.000000	95.636415
3349.000000	95.622417
3348.000000	95.607187
3347.000000	95.592167
3346.000000	95.577547
3345.000000	95.562616
3344.000000	95.546989
3343.000000	95.531103
3342.000000	95.515928
3341.000000	95.502514
3340.000000	95.491308
3339.000000	95.481445
3338.000000	95.471041
3337.000000	95.458506
3336.000000	95.443194
3335.000000	95.424822
3334.000000	95.403381
3333.000000	95.380334
3332.000000	95.359006
3331.000000	95.342537
3330.000000	95.331516
3329.000000	95.323926
3328.000000	95.316737
3327.000000	95.307077
3326.000000	95.293087
3325.000000	95.275158
3324.000000	95.256108
3323.000000	95.238967
3322.000000	95.224558
3321.000000	95.211950
3320.000000	95.200512
3319.000000	95.190260
3318.000000	95.180419
3317.000000	95.169146
3316.000000	95.155314
3315.000000	95.139920
3314.000000	95.125388
3313.000000	95.113692
3312.000000	95.104795
3311.000000	95.096336
3310.000000	95.085320
3309.000000	95.071007
3308.000000	95.055949
3307.000000	95.043317
3306.000000	95.033536
3305.000000	95.024370
3304.000000	95.013790
3303.000000	95.001781
3302.000000	94.989745
3301.000000	94.979428
3300.000000	94.972285
3299.000000	94.968406
3298.000000	94.965671
3297.000000	94.960962
3296.000000	94.952640
3295.000000	94.941379
3294.000000	94.928794
3293.000000	94.916306
3292.000000	94.905183
3291.000000	94.896301
3290.000000	94.889511
3289.000000	94.884085
3288.000000	94.879924
3287.000000	94.877446
3286.000000	94.876425
3285.000000	94.876163
3284.000000	94.876600
3283.000000	94.877936
3282.000000	94.879147
3281.000000	94.878694
3280.000000	94.877399
3279.000000	94.878600
3278.000000	94.884350
3277.000000	94.892740
3276.000000	94.900499
3275.000000	94.907390
3274.000000	94.915987
3273.000000	94.927509
3272.000000	94.939423
3271.000000	94.947547
3270.000000	94.949810
3269.000000	94.947961
3268.000000	94.946517
3267.000000	94.949875
3266.000000	94.959246
3265.000000	94.971824
3264.000000	94.983480
3263.000000	94.992615
3262.000000	95.001148
3261.000000	95.011801
3260.000000	95.025039
3259.000000	95.039075
3258.000000	95.052392
3257.000000	95.065490
3256.000000	95.079979
3255.000000	95.096473
3254.000000	95.113835
3253.000000	95.130466
3252.000000	95.145759
3251.000000	95.160151
3250.000000	95.174156
3249.000000	95.187764
3248.000000	95.200538
3247.000000	95.211678
3246.000000	95.220003
3245.000000	95.224458
3244.000000	95.225254
3243.000000	95.224554
3242.000000	95.225645
3241.000000	95.231034
3240.000000	95.241159
3239.000000	95.254979
3238.000000	95.271597
3237.000000	95.290502
3236.000000	95.309876
3235.000000	95.325983
3234.000000	95.336143
3233.000000	95.342189
3232.000000	95.349162
3231.000000	95.359681
3230.000000	95.371086
3229.000000	95.379057
3228.000000	95.382594
3227.000000	95.384161
3226.000000	95.386205
3225.000000	95.389705
3224.000000	95.395331
3223.000000	95.403707
3222.000000	95.414362
3221.000000	95.426200
3220.000000	95.439185
3219.000000	95.453721
3218.000000	95.467889
3217.000000	95.477520
3216.000000	95.480333
3215.000000	95.478931
3214.000000	95.478311
3213.000000	95.481033
3212.000000	95.485969
3211.000000	95.491038
3210.000000	95.495742
3209.000000	95.500794
3208.000000	95.506605
3207.000000	95.512930
3206.000000	95.519836
3205.000000	95.528251
3204.000000	95.539049
3203.000000	95.551528
3202.000000	95.563405
3201.000000	95.572714
3200.000000	95.579434
3199.000000	95.585009
3198.000000	95.590873
3197.000000	95.598103
3196.000000	95.607671
3195.000000	95.619693
3194.000000	95.632697
3193.000000	95.644936
3192.000000	95.656636
3191.000000	95.669779
3190.000000	95.685355
3189.000000	95.701878
3188.000000	95.716884
3187.000000	95.729081
3186.000000	95.738976
3185.000000	95.748669
3184.000000	95.761166
3183.000000	95.778260
3182.000000	95.798007
3181.000000	95.815448
3180.000000	95.827063
3179.000000	95.833962
3178.000000	95.840190
3177.000000	95.848640
3176.000000	95.859734
3175.000000	95.872981
3174.000000	95.887924
3173.000000	95.903371
3172.000000	95.917134
3171.000000	95.927421
3170.000000	95.934334
3169.000000	95.939994
3168.000000	95.947280
3167.000000	95.957977
3166.000000	95.971597
3165.000000	95.986037
3164.000000	95.999687
3163.000000	96.012498
3162.000000	96.024854
3161.000000	96.036350
3160.000000	96.046657
3159.000000	96.057010
3158.000000	96.069346
3157.000000	96.083716
3156.000000	96.097686
3155.000000	96.109103
3154.000000	96.118843
3153.000000	96.130008
3152.000000	96.144308
3151.000000	96.159808
3150.000000	96.172572
3149.000000	96.180540
3148.000000	96.185524
3147.000000	96.191466
3146.000000	96.200970
3145.000000	96.213780
3144.000000	96.228032
3143.000000	96.242132
3142.000000	96.255239
3141.000000	96.266891
3140.000000	96.277002
3139.000000	96.286046
3138.000000	96.294607
3137.000000	96.302670
3136.000000	96.309545
3135.000000	96.314536
3134.000000	96.317756
3133.000000	96.320552
3132.000000	96.324978
3131.000000	96.332118
3130.000000	96.340711
3129.000000	96.348141
3128.000000	96.353376
3127.000000	96.358464
3126.000000	96.366362
3125.000000	96.377513
3124.000000	96.389251
3123.000000	96.398454
3122.000000	96.404101
3121.000000	96.407366
3120.000000	96.410032
3119.000000	96.413181
3118.000000	96.416579
3117.000000	96.418783
3116.000000	96.418210
3115.000000	96.414766
3114.000000	96.410325
3113.000000	96.407186
3112.000000	96.406175
3111.000000	96.406554
3110.000000	96.407509
3109.000000	96.409003
3108.000000	96.410888
3107.000000	96.411871
3106.000000	96.410154
3105.000000	96.405285
3104.000000	96.398967
3103.000000	96.393728
3102.000000	96.390735
3101.000000	96.388877
3100.000000	96.385924
3099.000000	96.380827
3098.000000	96.374956
3097.000000	96.370987
3096.000000	96.370399
3095.000000	96.372083
3094.000000	96.373485
3093.000000	96.372729
3092.000000	96.369406
3091.000000	96.363964
3090.000000	96.357316
3089.000000	96.350885
3088.000000	96.345993
3087.000000	96.342721
3086.000000	96.339906
3085.000000	96.336503
3084.000000	96.332515
3083.000000	96.328433
3082.000000	96.324488
3081.000000	96.320815
3080.000000	96.317699
3079.000000	96.315048
3078.000000	96.311984
3077.000000	96.307522
3076.000000	96.301537
3075.000000	96.294966
3074.000000	96.289404
3073.000000	96.286561
3072.000000	96.287437
3071.000000	96.291544
3070.000000	96.297235
3069.000000	96.302769
3068.000000	96.306609
3067.000000	96.307277
3066.000000	96.304554
3065.000000	96.301362
3064.000000	96.302455
3063.000000	96.309881
3062.000000	96.320820
3061.000000	96.331144
3060.000000	96.339912
3059.000000	96.348769
3058.000000	96.358096
3057.000000	96.366151
3056.000000	96.372065
3055.000000	96.377562
3054.000000	96.384847
3053.000000	96.394171
3052.000000	96.404084
3051.000000	96.413093
3050.000000	96.420652
3049.000000	96.427547
3048.000000	96.435633
3047.000000	96.446306
3046.000000	96.458793
3045.000000	96.470693
3044.000000	96.480438
3043.000000	96.488424
3042.000000	96.495627
3041.000000	96.502232
3040.000000	96.508321
3039.000000	96.515065
3038.000000	96.524286
3037.000000	96.536929
3036.000000	96.552223
3035.000000	96.567947
3034.000000	96.581417
3033.000000	96.590908
3032.000000	96.596698
3031.000000	96.600546
3030.000000	96.604036
3029.000000	96.607879
3028.000000	96.612748
3027.000000	96.619578
3026.000000	96.628258
3025.000000	96.636560
3024.000000	96.641487
3023.000000	96.642240
3022.000000	96.641730
3021.000000	96.644793
3020.000000	96.654310
3019.000000	96.668670
3018.000000	96.683188
3017.000000	96.694208
3016.000000	96.701403
3015.000000	96.706066
3014.000000	96.708326
3013.000000	96.707181
3012.000000	96.702476
3011.000000	96.695156
3010.000000	96.685701
3009.000000	96.673788
3008.000000	96.660004
3007.000000	96.646594
3006.000000	96.635733
3005.000000	96.627459
3004.000000	96.619533
3003.000000	96.609093
3002.000000	96.594651
3001.000000	96.577352
3000.000000	96.560213
2999.000000	96.545361
2998.000000	96.531851
2997.000000	96.516886
2996.000000	96.498780
2995.000000	96.477675
2994.000000	96.453602
2993.000000	96.425784
2992.000000	96.394501
2991.000000	96.361826
2990.000000	96.329254
2989.000000	96.295251
2988.000000	96.256560
2987.000000	96.211661
2986.000000	96.162226
2985.000000	96.111483
2984.000000	96.061711
2983.000000	96.012835
2982.000000	95.962493
2981.000000	95.907189
2980.000000	95.844410
2979.000000	95.774312
2978.000000	95.699778
2977.000000	95.624494
2976.000000	95.550084
2975.000000	95.474650
2974.000000	95.394349
2973.000000	95.307043
2972.000000	95.214158
2971.000000	95.118600
2970.000000	95.021764
2969.000000	94.923448
2968.000000	94.824044
2967.000000	94.725172
2966.000000	94.628393
2965.000000	94.535062
2964.000000	94.447701
2963.000000	94.370142
2962.000000	94.305265
2961.000000	94.253675
2960.000000	94.214939
2959.000000	94.189017
2958.000000	94.176129
2957.000000	94.176074
2956.000000	94.188883
2955.000000	94.214783
2954.000000	94.252493
2953.000000	94.297891
2952.000000	94.345134
2951.000000	94.389171
2950.000000	94.426197
2949.000000	94.452766
2948.000000	94.465427
2947.000000	94.461794
2946.000000	94.441371
2945.000000	94.405020
2944.000000	94.354023
2943.000000	94.289310
2942.000000	94.211907
2941.000000	94.123862
2940.000000	94.028621
2939.000000	93.929543
2938.000000	93.827777
2937.000000	93.722487
2936.000000	93.613384
2935.000000	93.503027
2934.000000	93.396292
2933.000000	93.298280
2932.000000	93.212515
2931.000000	93.139971
2930.000000	93.078872
2929.000000	93.025924
2928.000000	92.979045
2927.000000	92.939246
2926.000000	92.909601
2925.000000	92.892845
2924.000000	92.890153
2923.000000	92.901836
2922.000000	92.927698
2921.000000	92.966523
2920.000000	93.016325
2919.000000	93.075870
2918.000000	93.146195
2917.000000	93.229879
2916.000000	93.328576
2915.000000	93.440851
2914.000000	93.561801
2913.000000	93.684767
2912.000000	93.803958
2911.000000	93.916642
2910.000000	94.023333
2909.000000	94.125846
2908.000000	94.225102
2907.000000	94.320531
2906.000000	94.411480
2905.000000	94.498632
2904.000000	94.583857
2903.000000	94.668801
2902.000000	94.754118
2901.000000	94.839962
2900.000000	94.926437
2899.000000	95.013133
2898.000000	95.098603
2897.000000	95.180935
2896.000000	95.258738
2895.000000	95.331161
2894.000000	95.397515
2893.000000	95.457813
2892.000000	95.513523
2891.000000	95.566700
2890.000000	95.617618
2889.000000	95.663652
2888.000000	95.700877
2887.000000	95.726685
2886.000000	95.741132
2885.000000	95.746334
2884.000000	95.744770
2883.000000	95.737646
2882.000000	95.724337
2881.000000	95.703343
2880.000000	95.673642
2879.000000	95.635290
2878.000000	95.589370
2877.000000	95.538287
2876.000000	95.485833
2875.000000	95.436253
2874.000000	95.393256
2873.000000	95.359921
2872.000000	95.338831
2871.000000	95.330844
2870.000000	95.333433
2869.000000	95.340849
2868.000000	95.346281
2867.000000	95.343951
2866.000000	95.330183
2865.000000	95.304110
2864.000000	95.267439
2863.000000	95.222733
2862.000000	95.171760
2861.000000	95.116314
2860.000000	95.060018
2859.000000	95.007422
2858.000000	94.960939
2857.000000	94.920470
2856.000000	94.886891
2855.000000	94.864170
2854.000000	94.857307
2853.000000	94.869309
2852.000000	94.901650
2851.000000	94.956763
2850.000000	95.037896
2849.000000	95.146079
2848.000000	95.277711
2847.000000	95.424995
2846.000000	95.578114
2845.000000	95.727953
2844.000000	95.867921
2843.000000	95.994548
2842.000000	96.106615
2841.000000	96.204017
2840.000000	96.287681
2839.000000	96.359457
2838.000000	96.421357
2837.000000	96.475084
2836.000000	96.522353
2835.000000	96.564782
2834.000000	96.602938
2833.000000	96.636207
2832.000000	96.664355
2831.000000	96.688598
2830.000000	96.710445
2829.000000	96.730425
2828.000000	96.748845
2827.000000	96.767022
2826.000000	96.786374
2825.000000	96.806366
2824.000000	96.824640
2823.000000	96.839491
2822.000000	96.851591
2821.000000	96.863069
2820.000000	96.875366
2819.000000	96.888085
2818.000000	96.899604
2817.000000	96.908691
2816.000000	96.915756
2815.000000	96.922546
2814.000000	96.930730
2813.000000	96.941122
2812.000000	96.954053
2811.000000	96.969527
2810.000000	96.986600
2809.000000	97.003417
2808.000000	97.018648
2807.000000	97.032417
2806.000000	97.045217
2805.000000	97.056594
2804.000000	97.065765
2803.000000	97.073046
2802.000000	97.079669
2801.000000	97.086425
2800.000000	97.093327
2799.000000	97.100418
2798.000000	97.107984
2797.000000	97.116002
2796.000000	97.124160
2795.000000	97.132360
2794.000000	97.140446
2793.000000	97.147594
2792.000000	97.152987
2791.000000	97.157250
2790.000000	97.162430
2789.000000	97.170185
2788.000000	97.180576
2787.000000	97.192666
2786.000000	97.205427
2785.000000	97.217689
2784.000000	97.227998
2783.000000	97.235273
2782.000000	97.239372
2781.000000	97.240788
2780.000000	97.240291
2779.000000	97.239405
2778.000000	97.240589
2777.000000	97.245752
2776.000000	97.254202
2775.000000	97.262690
2774.000000	97.268202
2773.000000	97.270763
2772.000000	97.273228
2771.000000	97.278305
2770.000000	97.286112
2769.000000	97.294661
2768.000000	97.302150
2767.000000	97.308269
2766.000000	97.313502
2765.000000	97.317934
2764.000000	97.321166
2763.000000	97.323206
2762.000000	97.325083
2761.000000	97.328409
2760.000000	97.334178
2759.000000	97.341791
2758.000000	97.349306
2757.000000	97.354846
2756.000000	97.357889
2755.000000	97.359256
2754.000000	97.360156
2753.000000	97.361532
2752.000000	97.363950
2751.000000	97.367426
2750.000000	97.371241
2749.000000	97.374417
2748.000000	97.376611
2747.000000	97.378287
2746.000000	97.379963
2745.000000	97.381781
2744.000000	97.383969
2743.000000	97.387172
2742.000000	97.391841
2741.000000	97.397454
2740.000000	97.402715
2739.000000	97.406589
2738.000000	97.409035
2737.000000	97.410825
2736.000000	97.412809
2735.000000	97.415400
2734.000000	97.418716
2733.000000	97.423006
2732.000000	97.428588
2731.000000	97.435258
2730.000000	97.442226
2729.000000	97.449021
2728.000000	97.456099
2727.000000	97.463970
2726.000000	97.471997
2725.000000	97.478770
2724.000000	97.483695
2723.000000	97.487439
2722.000000	97.490600
2721.000000	97.492797
2720.000000	97.493565
2719.000000	97.493513
2718.000000	97.493906
2717.000000	97.495385
2716.000000	97.497730
2715.000000	97.500678
2714.000000	97.504237
2713.000000	97.508066
2712.000000	97.511277
2711.000000	97.513430
2710.000000	97.515457
2709.000000	97.518872
2708.000000	97.523902
2707.000000	97.528964
2706.000000	97.532421
2705.000000	97.534391
2704.000000	97.536096
2703.000000	97.537781
2702.000000	97.538405
2701.000000	97.537562
2700.000000	97.536633
2699.000000	97.537254
2698.000000	97.539353
2697.000000	97.541464
2696.000000	97.542472
2695.000000	97.542339
2694.000000	97.541553
2693.000000	97.540720
2692.000000	97.540472
2691.000000	97.540960
2690.000000	97.541586
2689.000000	97.542024
2688.000000	97.543372
2687.000000	97.547396
2686.000000	97.554356
2685.000000	97.562053
2684.000000	97.567271
2683.000000	97.568140
2682.000000	97.565450
2681.000000	97.562172
2680.000000	97.561366
2679.000000	97.563773
2678.000000	97.567276
2677.000000	97.568999
2676.000000	97.567893
2675.000000	97.565252
2674.000000	97.563277
2673.000000	97.563564
2672.000000	97.566288
2671.000000	97.569977
2670.000000	97.572381
2669.000000	97.572389
2668.000000	97.571046
2667.000000	97.570221
2666.000000	97.570620
2665.000000	97.571672
2664.000000	97.572863
2663.000000	97.574372
2662.000000	97.576644
2661.000000	97.579986
2660.000000	97.584093
2659.000000	97.587277
2658.000000	97.587019
2657.000000	97.582757
2656.000000	97.577817
2655.000000	97.577043
2654.000000	97.582203
2653.000000	97.590711
2652.000000	97.598610
2651.000000	97.603615
2650.000000	97.605540
2649.000000	97.605798
2648.000000	97.607213
2647.000000	97.612649
2646.000000	97.622384
2645.000000	97.633274
2644.000000	97.641260
2643.000000	97.644499
2642.000000	97.644116
2641.000000	97.642805
2640.000000	97.643099
2639.000000	97.646204
2638.000000	97.651810
2637.000000	97.658995
2636.000000	97.667097
2635.000000	97.675323
2634.000000	97.682223
2633.000000	97.686700
2632.000000	97.689337
2631.000000	97.691673
2630.000000	97.694400
2629.000000	97.697473
2628.000000	97.701593
2627.000000	97.707936
2626.000000	97.716286
2625.000000	97.724774
2624.000000	97.731558
2623.000000	97.735461
2622.000000	97.735363
2621.000000	97.731086
2620.000000	97.725247
2619.000000	97.722252
2618.000000	97.724543
2617.000000	97.731029
2616.000000	97.739416
2615.000000	97.748267
2614.000000	97.756435
2613.000000	97.762778
2612.000000	97.767706
2611.000000	97.773278
2610.000000	97.780275
2609.000000	97.786455
2608.000000	97.789074
2607.000000	97.788360
2606.000000	97.787287
2605.000000	97.788577
2604.000000	97.792798
2603.000000	97.798537
2602.000000	97.803363
2601.000000	97.805020
2600.000000	97.802780
2599.000000	97.798198
2598.000000	97.794831
2597.000000	97.797014
2596.000000	97.807332
2595.000000	97.823665
2594.000000	97.839273
2593.000000	97.847749
2592.000000	97.848455
2591.000000	97.846202
2590.000000	97.846135
2589.000000	97.850086
2588.000000	97.856780
2587.000000	97.863014
2586.000000	97.864818
2585.000000	97.860175
2584.000000	97.851538
2583.000000	97.843866
2582.000000	97.839612
2581.000000	97.837408
2580.000000	97.835562
2579.000000	97.834555
2578.000000	97.835369
2577.000000	97.837702
2576.000000	97.840902
2575.000000	97.845066
2574.000000	97.850184
2573.000000	97.855354
2572.000000	97.859453
2571.000000	97.861592
2570.000000	97.861193
2569.000000	97.859325
2568.000000	97.859679
2567.000000	97.865670
2566.000000	97.875985
2565.000000	97.884971
2564.000000	97.888160
2563.000000	97.886031
2562.000000	97.882376
2561.000000	97.881113
2560.000000	97.884649
2559.000000	97.892800
2558.000000	97.902405
2557.000000	97.909614
2556.000000	97.912958
2555.000000	97.912842
2554.000000	97.909115
2553.000000	97.902088
2552.000000	97.895091
2551.000000	97.891952
2550.000000	97.891277
2549.000000	97.887266
2548.000000	97.877645
2547.000000	97.867349
2546.000000	97.862739
2545.000000	97.865422
2544.000000	97.873519
2543.000000	97.885176
2542.000000	97.897650
2541.000000	97.905691
2540.000000	97.904985
2539.000000	97.897008
2538.000000	97.888201
2537.000000	97.884570
2536.000000	97.887788
2535.000000	97.895102
2534.000000	97.901313
2533.000000	97.901960
2532.000000	97.895980
2531.000000	97.885138
2530.000000	97.871007
2529.000000	97.854457
2528.000000	97.838304
2527.000000	97.827515
2526.000000	97.824853
2525.000000	97.827794
2524.000000	97.831211
2523.000000	97.831705
2522.000000	97.828604
2521.000000	97.822974
2520.000000	97.817583
2519.000000	97.816119
2518.000000	97.819811
2517.000000	97.825120
2516.000000	97.826729
2515.000000	97.823167
2514.000000	97.818855
2513.000000	97.820389
2512.000000	97.830520
2511.000000	97.845181
2510.000000	97.856634
2509.000000	97.860538
2508.000000	97.859752
2507.000000	97.860340
2506.000000	97.864808
2505.000000	97.871142
2504.000000	97.877396
2503.000000	97.884355
2502.000000	97.893393
2501.000000	97.904407
2500.000000	97.916456
2499.000000	97.928283
2498.000000	97.937843
2497.000000	97.943782
2496.000000	97.947879
2495.000000	97.953504
2494.000000	97.960868
2493.000000	97.966399
2492.000000	97.967889
2491.000000	97.967671
2490.000000	97.969433
2489.000000	97.974116
2488.000000	97.980498
2487.000000	97.987712
2486.000000	97.995358
2485.000000	98.002519
2484.000000	98.008156
2483.000000	98.011732
2482.000000	98.013034
2481.000000	98.012846
2480.000000	98.013893
2479.000000	98.018769
2478.000000	98.026000
2477.000000	98.030571
2476.000000	98.029608
2475.000000	98.025870
2474.000000	98.024253
2473.000000	98.026564
2472.000000	98.031211
2471.000000	98.036461
2470.000000	98.042100
2469.000000	98.048319
2468.000000	98.054225
2467.000000	98.057810
2466.000000	98.057653
2465.000000	98.055126
2464.000000	98.054021
2463.000000	98.056748
2462.000000	98.061666
2461.000000	98.065503
2460.000000	98.067129
2459.000000	98.066727
2458.000000	98.062707
2457.000000	98.053237
2456.000000	98.040607
2455.000000	98.030622
2454.000000	98.027150
2453.000000	98.030371
2452.000000	98.040053
2451.000000	98.056250
2450.000000	98.075701
2449.000000	98.091789
2448.000000	98.100564
2447.000000	98.103870
2446.000000	98.104761
2445.000000	98.103025
2444.000000	98.097651
2443.000000	98.090573
2442.000000	98.085127
2441.000000	98.082689
2440.000000	98.083124
2439.000000	98.086514
2438.000000	98.091708
2437.000000	98.094858
2436.000000	98.092302
2435.000000	98.084417
2434.000000	98.074718
2433.000000	98.066010
2432.000000	98.059302
2431.000000	98.055778
2430.000000	98.057501
2429.000000	98.065392
2428.000000	98.077297
2427.000000	98.088684
2426.000000	98.095763
2425.000000	98.098472
2424.000000	98.100043
2423.000000	98.103152
2422.000000	98.107073
2421.000000	98.109603
2420.000000	98.110286
2419.000000	98.109854
2418.000000	98.107621
2417.000000	98.102342
2416.000000	98.095330
2415.000000	98.089827
2414.000000	98.087216
2413.000000	98.086482
2412.000000	98.087583
2411.000000	98.092339
2410.000000	98.101365
2409.000000	98.112644
2408.000000	98.123749
2407.000000	98.132851
2406.000000	98.137128
2405.000000	98.133613
2404.000000	98.123613
2403.000000	98.113898
2402.000000	98.111292
2401.000000	98.116889
2400.000000	98.125997
2399.000000	98.132182
2398.000000	98.131091
2397.000000	98.122670
2396.000000	98.111229
2395.000000	98.102191
2394.000000	98.097800
2393.000000	98.096621
2392.000000	98.096718
2391.000000	98.097659
2390.000000	98.099672
2389.000000	98.103067
2388.000000	98.108853
2387.000000	98.117698
2386.000000	98.128335
2385.000000	98.138744
2384.000000	98.148934
2383.000000	98.160593
2382.000000	98.173233
2381.000000	98.183666
2380.000000	98.189266
2379.000000	98.189646
2378.000000	98.185237
2377.000000	98.177041
2376.000000	98.168410
2375.000000	98.163023
2374.000000	98.159988
2373.000000	98.154770
2372.000000	98.147311
2371.000000	98.144735
2370.000000	98.152580
2369.000000	98.167005
2368.000000	98.178578
2367.000000	98.182421
2366.000000	98.180638
2365.000000	98.176303
2364.000000	98.169429
2363.000000	98.158972
2362.000000	98.146783
2361.000000	98.137985
2360.000000	98.136932
2359.000000	98.142698
2358.000000	98.150601
2357.000000	98.156674
2356.000000	98.158152
2355.000000	98.154137
2354.000000	98.148713
2353.000000	98.145976
2352.000000	98.145452
2351.000000	98.144752
2350.000000	98.143556
2349.000000	98.141501
2348.000000	98.139080
2347.000000	98.138346
2346.000000	98.138694
2345.000000	98.135232
2344.000000	98.127060
2343.000000	98.120310
2342.000000	98.116979
2341.000000	98.114201
2340.000000	98.111578
2339.000000	98.111679
2338.000000	98.114790
2337.000000	98.117431
2336.000000	98.116276
2335.000000	98.112097
2334.000000	98.108854
2333.000000	98.109097
2332.000000	98.111226
2331.000000	98.113026
2330.000000	98.114371
2329.000000	98.114192
2328.000000	98.107739
2327.000000	98.089869
2326.000000	98.061411
2325.000000	98.031691
2324.000000	98.013620
2323.000000	98.014723
2322.000000	98.029107
2321.000000	98.042898
2320.000000	98.047582
2319.000000	98.047522
2318.000000	98.052176
2317.000000	98.065922
2316.000000	98.085487
2315.000000	98.103783
2314.000000	98.114153
2313.000000	98.115201
2312.000000	98.113420
2311.000000	98.118412
2310.000000	98.133252
2309.000000	98.151689
2308.000000	98.166470
2307.000000	98.176367
2306.000000	98.182925
2305.000000	98.184579
2304.000000	98.178765
2303.000000	98.167389
2302.000000	98.155921
2301.000000	98.147839
2300.000000	98.143466
2299.000000	98.142967
2298.000000	98.146302
2297.000000	98.150079
2296.000000	98.147651
2295.000000	98.135206
2294.000000	98.116583
2293.000000	98.101052
2292.000000	98.095818
2291.000000	98.101139
2290.000000	98.111675
2289.000000	98.121381
2288.000000	98.126316
2287.000000	98.124418
2286.000000	98.115803
2285.000000	98.104732
2284.000000	98.098692
2283.000000	98.102093
2282.000000	98.111834
2281.000000	98.120882
2280.000000	98.124949
2279.000000	98.123472
2278.000000	98.117313
2277.000000	98.110034
2276.000000	98.109052
2275.000000	98.119493
2274.000000	98.137351
2273.000000	98.153558
2272.000000	98.164608
2271.000000	98.174404
2270.000000	98.186126
2269.000000	98.197964
2268.000000	98.207126
2267.000000	98.212581
2266.000000	98.212862
2265.000000	98.206429
2264.000000	98.195637
2263.000000	98.186039
2262.000000	98.180696
2261.000000	98.178139
2260.000000	98.175348
2259.000000	98.169965
2258.000000	98.161667
2257.000000	98.155344
2256.000000	98.159691
2255.000000	98.177055
2254.000000	98.197727
2253.000000	98.210632
2252.000000	98.215899
2251.000000	98.219267
2250.000000	98.219553
2249.000000	98.212726
2248.000000	98.204828
2247.000000	98.207450
2246.000000	98.220452
2245.000000	98.231910
2244.000000	98.236259
2243.000000	98.239737
2242.000000	98.245538
2241.000000	98.247136
2240.000000	98.241189
2239.000000	98.235176
2238.000000	98.235768
2237.000000	98.239575
2236.000000	98.241498
2235.000000	98.243834
2234.000000	98.251020
2233.000000	98.262448
2232.000000	98.274697
2231.000000	98.283631
2230.000000	98.281436
2229.000000	98.261453
2228.000000	98.231306
2227.000000	98.212997
2226.000000	98.224476
2225.000000	98.266284
2224.000000	98.326714
2223.000000	98.390453
2222.000000	98.439535
2221.000000	98.458028
2220.000000	98.444489
2219.000000	98.413544
2218.000000	98.381361
2217.000000	98.356503
2216.000000	98.344714
2215.000000	98.350202
2214.000000	98.367817
2213.000000	98.384248
2212.000000	98.392396
2211.000000	98.396462
2210.000000	98.399454
2209.000000	98.396535
2208.000000	98.385868
2207.000000	98.375493
2206.000000	98.372519
2205.000000	98.373019
2204.000000	98.368428
2203.000000	98.356127
2202.000000	98.340703
2201.000000	98.330214
2200.000000	98.331554
2199.000000	98.342408
2198.000000	98.349580
2197.000000	98.344948
2196.000000	98.340964
2195.000000	98.356822
2194.000000	98.390193
2193.000000	98.417301
2192.000000	98.422630
2191.000000	98.413433
2190.000000	98.401976
2189.000000	98.392186
2188.000000	98.388599
2187.000000	98.400393
2186.000000	98.426821
2185.000000	98.453007
2184.000000	98.470036
2183.000000	98.486534
2182.000000	98.508947
2181.000000	98.522387
2180.000000	98.505082
2179.000000	98.456190
2178.000000	98.400466
2177.000000	98.369422
2176.000000	98.377991
2175.000000	98.411873
2174.000000	98.437885
2173.000000	98.433486
2172.000000	98.405100
2171.000000	98.373565
2170.000000	98.351288
2169.000000	98.341878
2168.000000	98.349187
2167.000000	98.370413
2166.000000	98.390075
2165.000000	98.399731
2164.000000	98.415284
2163.000000	98.451269
2162.000000	98.488353
2161.000000	98.498886
2160.000000	98.498686
2159.000000	98.532377
2158.000000	98.600009
2157.000000	98.651806
2156.000000	98.662088
2155.000000	98.650598
2154.000000	98.634338
2153.000000	98.608895
2152.000000	98.575058
2151.000000	98.546039
2150.000000	98.525993
2149.000000	98.508240
2148.000000	98.496215
2147.000000	98.498956
2146.000000	98.504549
2145.000000	98.486330
2144.000000	98.442860
2143.000000	98.405741
2142.000000	98.400734
2141.000000	98.422824
2140.000000	98.453837
2139.000000	98.483233
2138.000000	98.503332
2137.000000	98.504876
2136.000000	98.489635
2135.000000	98.473056
2134.000000	98.464791
2133.000000	98.458444
2132.000000	98.445403
2131.000000	98.426434
2130.000000	98.405635
2129.000000	98.385120
2128.000000	98.369571
2127.000000	98.365374
2126.000000	98.371184
2125.000000	98.377088
2124.000000	98.375725
2123.000000	98.366564
2122.000000	98.349254
2121.000000	98.322838
2120.000000	98.293158
2119.000000	98.270344
2118.000000	98.255918
2117.000000	98.241368
2116.000000	98.221977
2115.000000	98.203438
2114.000000	98.192131
2113.000000	98.187993
2112.000000	98.189612
2111.000000	98.197536
2110.000000	98.208865
2109.000000	98.216866
2108.000000	98.219587
2107.000000	98.221859
2106.000000	98.226467
2105.000000	98.230866
2104.000000	98.233514
2103.000000	98.234913
2102.000000	98.232291
2101.000000	98.223487
2100.000000	98.216863
2099.000000	98.225508
2098.000000	98.250283
2097.000000	98.278668
2096.000000	98.301542
2095.000000	98.319053
2094.000000	98.329437
2093.000000	98.327752
2092.000000	98.318575
2091.000000	98.314522
2090.000000	98.317599
2089.000000	98.315293
2088.000000	98.300132
2087.000000	98.281193
2086.000000	98.270363
2085.000000	98.269229
2084.000000	98.274497
2083.000000	98.284888
2082.000000	98.296461
2081.000000	98.301548
2080.000000	98.298845
2079.000000	98.294936
2078.000000	98.291557
2077.000000	98.282778
2076.000000	98.269715
2075.000000	98.265128
2074.000000	98.276031
2073.000000	98.293784
2072.000000	98.308192
2071.000000	98.319528
2070.000000	98.329799
2069.000000	98.334410
2068.000000	98.332388
2067.000000	98.334129
2066.000000	98.349363
2065.000000	98.373999
2064.000000	98.395026
2063.000000	98.403034
2062.000000	98.397456
2061.000000	98.388463
2060.000000	98.393818
2059.000000	98.420723
2058.000000	98.451342
2057.000000	98.460974
2056.000000	98.449263
2055.000000	98.435987
2054.000000	98.427157
2053.000000	98.410126
2052.000000	98.385019
2051.000000	98.373546
2050.000000	98.387440
2049.000000	98.410491
2048.000000	98.426484
2047.000000	98.443992
2046.000000	98.472457
2045.000000	98.495982
2044.000000	98.494228
2043.000000	98.470034
2042.000000	98.438644
2041.000000	98.410037
2040.000000	98.396155
2039.000000	98.412349
2038.000000	98.455302
2037.000000	98.499665
2036.000000	98.530908
2035.000000	98.560510
2034.000000	98.594133
2033.000000	98.615738
2032.000000	98.623637
2031.000000	98.646506
2030.000000	98.695721
2029.000000	98.735739
2028.000000	98.730738
2027.000000	98.695296
2026.000000	98.668817
2025.000000	98.663820
2024.000000	98.665038
2023.000000	98.659897
2022.000000	98.647829
2021.000000	98.633499
2020.000000	98.628998
2019.000000	98.646953
2018.000000	98.677034
2017.000000	98.685014
2016.000000	98.651552
2015.000000	98.595296
2014.000000	98.547026
2013.000000	98.525393
2012.000000	98.542513
2011.000000	98.605767
2010.000000	98.700390
2009.000000	98.787850
2008.000000	98.834680
2007.000000	98.832415
2006.000000	98.786015
2005.000000	98.709850
2004.000000	98.637889
2003.000000	98.604749
2002.000000	98.609510
2001.000000	98.615396
2000.000000	98.593205
1999.000000	98.548393
1998.000000	98.504107
1997.000000	98.481213
1996.000000	98.493667
1995.000000	98.539278
1994.000000	98.587802
1993.000000	98.598882
1992.000000	98.565423
1991.000000	98.523354
1990.000000	98.506289
1989.000000	98.513538
1988.000000	98.527108
1987.000000	98.534260
1986.000000	98.529363
1985.000000	98.516761
1984.000000	98.514840
1983.000000	98.532906
1982.000000	98.545180
1981.000000	98.517620
1980.000000	98.468113
1979.000000	98.464003
1978.000000	98.542581
1977.000000	98.662054
1976.000000	98.751965
1975.000000	98.783318
1974.000000	98.765365
1973.000000	98.719319
1972.000000	98.677649
1971.000000	98.669292
1970.000000	98.687619
1969.000000	98.699163
1968.000000	98.690543
1967.000000	98.680028
1966.000000	98.677572
1965.000000	98.669367
1964.000000	98.650057
1963.000000	98.635158
1962.000000	98.634733
1961.000000	98.643191
1960.000000	98.659278
1959.000000	98.687349
1958.000000	98.715469
1957.000000	98.722054
1956.000000	98.707898
1955.000000	98.693533
1954.000000	98.683611
1953.000000	98.665400
1952.000000	98.642573
1951.000000	98.638940
1950.000000	98.660823
1949.000000	98.683889
1948.000000	98.690074
1947.000000	98.688177
1946.000000	98.686169
1945.000000	98.672760
1944.000000	98.642155
1943.000000	98.613383
1942.000000	98.605120
1941.000000	98.611192
1940.000000	98.619178
1939.000000	98.628339
1938.000000	98.636719
1937.000000	98.632988
1936.000000	98.613928
1935.000000	98.595060
1934.000000	98.590682
1933.000000	98.596189
1932.000000	98.597312
1931.000000	98.587662
1930.000000	98.567317
1929.000000	98.536543
1928.000000	98.507479
1927.000000	98.501161
1926.000000	98.526414
1925.000000	98.567560
1924.000000	98.602168
1923.000000	98.625430
1922.000000	98.642273
1921.000000	98.650551
1920.000000	98.643318
1919.000000	98.620572
1918.000000	98.591219
1917.000000	98.564190
1916.000000	98.545817
1915.000000	98.541313
1914.000000	98.551570
1913.000000	98.571768
1912.000000	98.592733
1911.000000	98.605836
1910.000000	98.605795
1909.000000	98.594109
1908.000000	98.583279
1907.000000	98.583394
1906.000000	98.591459
1905.000000	98.597067
1904.000000	98.597281
1903.000000	98.600302
1902.000000	98.607206
1901.000000	98.608477
1900.000000	98.603531
1899.000000	98.605178
1898.000000	98.622015
1897.000000	98.646462
1896.000000	98.665065
1895.000000	98.674697
1894.000000	98.678553
1893.000000	98.677062
1892.000000	98.669268
1891.000000	98.657375
1890.000000	98.645494
1889.000000	98.637052
1888.000000	98.636615
1887.000000	98.645653
1886.000000	98.654629
1885.000000	98.651892
1884.000000	98.639639
1883.000000	98.630603
1882.000000	98.627896
1881.000000	98.622334
1880.000000	98.612942
1879.000000	98.611003
1878.000000	98.622623
1877.000000	98.640263
1876.000000	98.653266
1875.000000	98.661368
1874.000000	98.671233
1873.000000	98.684697
1872.000000	98.698292
1871.000000	98.709228
1870.000000	98.717298
1869.000000	98.723704
1868.000000	98.729271
1867.000000	98.732662
1866.000000	98.727280
1865.000000	98.707394
1864.000000	98.680111
1863.000000	98.661257
1862.000000	98.656626
1861.000000	98.657926
1860.000000	98.659346
1859.000000	98.664877
1858.000000	98.676113
1857.000000	98.686408
1856.000000	98.691443
1855.000000	98.693657
1854.000000	98.694092
1853.000000	98.688433
1852.000000	98.680662
1851.000000	98.678612
1850.000000	98.681462
1849.000000	98.687418
1848.000000	98.701495
1847.000000	98.727629
1846.000000	98.752975
1845.000000	98.757916
1844.000000	98.743187
1843.000000	98.731120
1842.000000	98.728303
1841.000000	98.718585
1840.000000	98.697962
1839.000000	98.680970
1838.000000	98.677642
1837.000000	98.678356
1836.000000	98.673566
1835.000000	98.674050
1834.000000	98.689940
1833.000000	98.709384
1832.000000	98.714504
1831.000000	98.704605
1830.000000	98.698407
1829.000000	98.707345
1828.000000	98.721149
1827.000000	98.725735
1826.000000	98.716875
1825.000000	98.704252
1824.000000	98.698995
1823.000000	98.700778
1822.000000	98.699825
1821.000000	98.691553
1820.000000	98.684353
1819.000000	98.686180
1818.000000	98.693447
1817.000000	98.695718
1816.000000	98.691422
1815.000000	98.690679
1814.000000	98.694870
1813.000000	98.695827
1812.000000	98.689889
1811.000000	98.684482
1810.000000	98.686725
1809.000000	98.688355
1808.000000	98.679043
1807.000000	98.661115
1806.000000	98.641558
1805.000000	98.621032
1804.000000	98.596631
1803.000000	98.570987
1802.000000	98.546196
1801.000000	98.522980
1800.000000	98.502183
1799.000000	98.485635
1798.000000	98.475068
1797.000000	98.468819
1796.000000	98.467542
1795.000000	98.473066
1794.000000	98.480864
1793.000000	98.489810
1792.000000	98.509558
1791.000000	98.545394
1790.000000	98.586340
1789.000000	98.615188
1788.000000	98.625802
1787.000000	98.626698
1786.000000	98.630151
1785.000000	98.640525
1784.000000	98.655751
1783.000000	98.674797
1782.000000	98.688079
1781.000000	98.689980
1780.000000	98.687293
1779.000000	98.689174
1778.000000	98.698107
1777.000000	98.708549
1776.000000	98.724225
1775.000000	98.748082
1774.000000	98.765505
1773.000000	98.762032
1772.000000	98.748376
1771.000000	98.738529
1770.000000	98.722059
1769.000000	98.679602
1768.000000	98.613192
1767.000000	98.555335
1766.000000	98.524782
1765.000000	98.499466
1764.000000	98.446367
1763.000000	98.358835
1762.000000	98.254872
1761.000000	98.152893
1760.000000	98.049390
1759.000000	97.921889
1758.000000	97.737998
1757.000000	97.480439
1756.000000	97.190548
1755.000000	96.928721
1754.000000	96.692798
1753.000000	96.424796
1752.000000	96.084196
1751.000000	95.697735
1750.000000	95.325661
1749.000000	94.978830
1748.000000	94.648796
1747.000000	94.359902
1746.000000	94.122025
1745.000000	93.916853
1744.000000	93.737300
1743.000000	93.602138
1742.000000	93.516841
1741.000000	93.456936
1740.000000	93.419200
1739.000000	93.445728
1738.000000	93.549020
1737.000000	93.685404
1736.000000	93.826524
1735.000000	94.007347
1734.000000	94.282839
1733.000000	94.595929
1732.000000	94.859312
1731.000000	95.078231
1730.000000	95.295738
1729.000000	95.530172
1728.000000	95.776619
1727.000000	96.026095
1726.000000	96.265942
1725.000000	96.490435
1724.000000	96.702740
1723.000000	96.908983
1722.000000	97.103310
1721.000000	97.268077
1720.000000	97.405227
1719.000000	97.545825
1718.000000	97.719013
1717.000000	97.884182
1716.000000	97.973592
1715.000000	97.991585
1714.000000	97.976206
1713.000000	97.950667
1712.000000	97.927003
1711.000000	97.912629
1710.000000	97.904067
1709.000000	97.888965
1708.000000	97.860388
1707.000000	97.816203
1706.000000	97.761721
1705.000000	97.713790
1704.000000	97.691787
1703.000000	97.682262
1702.000000	97.620820
1701.000000	97.448140
1700.000000	97.255025
1699.000000	97.201998
1698.000000	97.223641
1697.000000	97.154760
1696.000000	96.950483
1695.000000	96.720356
1694.000000	96.566879
1693.000000	96.454941
1692.000000	96.330362
1691.000000	96.194539
1690.000000	96.064819
1689.000000	95.954525
1688.000000	95.882645
1687.000000	95.847514
1686.000000	95.795445
1685.000000	95.643981
1684.000000	95.404658
1683.000000	95.206862
1682.000000	95.075235
1681.000000	94.940945
1680.000000	94.782013
1679.000000	94.635561
1678.000000	94.513647
1677.000000	94.373644
1676.000000	94.177350
1675.000000	93.970841
1674.000000	93.831434
1673.000000	93.745821
1672.000000	93.642683
1671.000000	93.485262
1670.000000	93.281105
1669.000000	93.059880
1668.000000	92.866561
1667.000000	92.724829
1666.000000	92.611932
1665.000000	92.482244
1664.000000	92.302487
1663.000000	92.090176
1662.000000	91.895285
1661.000000	91.736458
1660.000000	91.597271
1659.000000	91.466446
1658.000000	91.354887
1657.000000	91.277729
1656.000000	91.232511
1655.000000	91.171032
1654.000000	91.011116
1653.000000	90.754216
1652.000000	90.588903
1651.000000	90.563657
1650.000000	90.555487
1649.000000	90.503742
1648.000000	90.420124
1647.000000	90.329492
1646.000000	90.270014
1645.000000	90.247125
1644.000000	90.240204
1643.000000	90.235721
1642.000000	90.233583
1641.000000	90.237207
1640.000000	90.255485
1639.000000	90.294779
1638.000000	90.345342
1637.000000	90.372011
1636.000000	90.354711
1635.000000	90.326405
1634.000000	90.337255
1633.000000	90.381117
1632.000000	90.424347
1631.000000	90.464693
1630.000000	90.512870
1629.000000	90.576620
1628.000000	90.663045
1627.000000	90.775053
1626.000000	90.900019
1625.000000	91.021211
1624.000000	91.139066
1623.000000	91.272485
1622.000000	91.426177
1621.000000	91.584735
1620.000000	91.739056
1619.000000	91.889904
1618.000000	92.043022
1617.000000	92.204342
1616.000000	92.369769
1615.000000	92.518118
1614.000000	92.637251
1613.000000	92.738218
1612.000000	92.843099
1611.000000	92.967407
1610.000000	93.106689
1609.000000	93.247202
1608.000000	93.381393
1607.000000	93.507560
1606.000000	93.619817
1605.000000	93.716401
1604.000000	93.804456
1603.000000	93.886357
1602.000000	93.958708
1601.000000	94.021260
1600.000000	94.079545
1599.000000	94.135859
1598.000000	94.186269
1597.000000	94.230654
1596.000000	94.274701
1595.000000	94.319680
1594.000000	94.357654
1593.000000	94.382467
1592.000000	94.397257
1591.000000	94.406440
1590.000000	94.408983
1589.000000	94.403902
1588.000000	94.393870
1587.000000	94.379126
1586.000000	94.357356
1585.000000	94.328745
1584.000000	94.300454
1583.000000	94.270660
1582.000000	94.230041
1581.000000	94.185139
1580.000000	94.157310
1579.000000	94.152403
1578.000000	94.146765
1577.000000	94.108200
1576.000000	94.033168
1575.000000	93.954655
1574.000000	93.889082
1573.000000	93.828033
1572.000000	93.760727
1571.000000	93.673519
1570.000000	93.563703
1569.000000	93.455617
1568.000000	93.377875
1567.000000	93.315387
1566.000000	93.231376
1565.000000	93.120464
1564.000000	93.025315
1563.000000	92.984428
1562.000000	92.982198
1561.000000	92.954426
1560.000000	92.818169
1559.000000	92.576174
1558.000000	92.357105
1557.000000	92.230947
1556.000000	92.133711
1555.000000	91.996699
1554.000000	91.831119
1553.000000	91.681103
1552.000000	91.560954
1551.000000	91.441723
1550.000000	91.311517
1549.000000	91.190053
1548.000000	91.099474
1547.000000	91.030677
1546.000000	90.960657
1545.000000	90.892790
1544.000000	90.852441
1543.000000	90.844459
1542.000000	90.840685
1541.000000	90.802272
1540.000000	90.720320
1539.000000	90.639743
1538.000000	90.601580
1537.000000	90.590772
1536.000000	90.574033
1535.000000	90.548260
1534.000000	90.521203
1533.000000	90.513425
1532.000000	90.534515
1531.000000	90.570716
1530.000000	90.604617
1529.000000	90.627430
1528.000000	90.647285
1527.000000	90.676805
1526.000000	90.715454
1525.000000	90.758361
1524.000000	90.804228
1523.000000	90.844906
1522.000000	90.866862
1521.000000	90.866130
1520.000000	90.863019
1519.000000	90.867317
1518.000000	90.860954
1517.000000	90.839200
1516.000000	90.825341
1515.000000	90.843488
1514.000000	90.883075
1513.000000	90.923130
1512.000000	90.969290
1511.000000	91.047278
1510.000000	91.161498
1509.000000	91.285652
1508.000000	91.389582
1507.000000	91.463100
1506.000000	91.487571
1505.000000	91.488461
1504.000000	91.505250
1503.000000	91.520327
1502.000000	91.531983
1501.000000	91.545971
1500.000000	91.569534
1499.000000	91.611586
1498.000000	91.663021
1497.000000	91.694377
1496.000000	91.694552
1495.000000	91.694452
1494.000000	91.709823
1493.000000	91.723810
1492.000000	91.724423
1491.000000	91.720786
1490.000000	91.720400
1489.000000	91.703115
1488.000000	91.656274
1487.000000	91.598939
1486.000000	91.543702
1485.000000	91.480225
1484.000000	91.405983
1483.000000	91.322155
1482.000000	91.225115
1481.000000	91.114334
1480.000000	91.000558
1479.000000	90.891347
1478.000000	90.774415
1477.000000	90.640094
1476.000000	90.502048
1475.000000	90.374323
1474.000000	90.218449
1473.000000	89.979195
1472.000000	89.684391
1471.000000	89.425802
1470.000000	89.226008
1469.000000	89.048793
1468.000000	88.875990
1467.000000	88.712341
1466.000000	88.551123
1465.000000	88.381845
1464.000000	88.229276
1463.000000	88.123906
1462.000000	88.054760
1461.000000	87.990433
1460.000000	87.919935
1459.000000	87.834833
1458.000000	87.692890
1457.000000	87.462670
1456.000000	87.239526
1455.000000	87.112219
1454.000000	87.029060
1453.000000	86.935300
1452.000000	86.839305
1451.000000	86.764540
1450.000000	86.706494
1449.000000	86.639957
1448.000000	86.562682
1447.000000	86.501822
1446.000000	86.461939
1445.000000	86.424289
1444.000000	86.378285
1443.000000	86.324339
1442.000000	86.267058
1441.000000	86.211686
1440.000000	86.165246
1439.000000	86.117720
1438.000000	86.036727
1437.000000	85.904195
1436.000000	85.775052
1435.000000	85.716825
1434.000000	85.707486
1433.000000	85.693986
1432.000000	85.661287
1431.000000	85.618970
1430.000000	85.564455
1429.000000	85.484938
1428.000000	85.390450
1427.000000	85.307671
1426.000000	85.235692
1425.000000	85.163126
1424.000000	85.105370
1423.000000	85.085285
1422.000000	85.090165
1421.000000	85.079085
1420.000000	85.031560
1419.000000	84.973692
1418.000000	84.937076
1417.000000	84.916985
1416.000000	84.906833
1415.000000	84.914157
1414.000000	84.940718
1413.000000	84.981584
1412.000000	85.037592
1411.000000	85.112779
1410.000000	85.202628
1409.000000	85.298171
1408.000000	85.397191
1407.000000	85.502883
1406.000000	85.609269
1405.000000	85.709629
1404.000000	85.810823
1403.000000	85.917449
1402.000000	86.016307
1401.000000	86.090843
1400.000000	86.148089
1399.000000	86.213770
1398.000000	86.296461
1397.000000	86.379415
1396.000000	86.450045
1395.000000	86.513876
1394.000000	86.580091
1393.000000	86.657209
1392.000000	86.750452
1391.000000	86.855531
1390.000000	86.963026
1389.000000	87.068716
1388.000000	87.178973
1387.000000	87.299664
1386.000000	87.420971
1385.000000	87.532110
1384.000000	87.637777
1383.000000	87.746499
1382.000000	87.860248
1381.000000	87.976695
1380.000000	88.099273
1379.000000	88.234976
1378.000000	88.383863
1377.000000	88.541712
1376.000000	88.709392
1375.000000	88.888223
1374.000000	89.064749
1373.000000	89.221027
1372.000000	89.357002
1371.000000	89.482753
1370.000000	89.600968
1369.000000	89.713542
1368.000000	89.826728
1367.000000	89.942891
1366.000000	90.058061
1365.000000	90.169299
1364.000000	90.278195
1363.000000	90.381527
1362.000000	90.467709
1361.000000	90.533958
1360.000000	90.591579
1359.000000	90.647815
1358.000000	90.700080
1357.000000	90.747552
1356.000000	90.795529
1355.000000	90.847129
1354.000000	90.898745
1353.000000	90.947170
1352.000000	90.993417
1351.000000	91.039534
1350.000000	91.082353
1349.000000	91.118210
1348.000000	91.145962
1347.000000	91.162687
1346.000000	91.164089
1345.000000	91.151093
1344.000000	91.131738
1343.000000	91.112143
1342.000000	91.090375
1341.000000	91.060718
1340.000000	91.019671
1339.000000	90.966824
1338.000000	90.906547
1337.000000	90.850535
1336.000000	90.813206
1335.000000	90.803099
1334.000000	90.819603
1333.000000	90.857762
1332.000000	90.913092
1331.000000	90.980892
1330.000000	91.054783
1329.000000	91.130111
1328.000000	91.206343
1327.000000	91.283712
1326.000000	91.359381
1325.000000	91.429655
1324.000000	91.492639
1323.000000	91.547693
1322.000000	91.596193
1321.000000	91.642857
1320.000000	91.692863
1319.000000	91.746462
1318.000000	91.799986
1317.000000	91.853067
1316.000000	91.910310
1315.000000	91.974717
1314.000000	92.043648
1313.000000	92.112201
1312.000000	92.177349
1311.000000	92.238544
1310.000000	92.297199
1309.000000	92.356565
1308.000000	92.418870
1307.000000	92.482601
1306.000000	92.544474
1305.000000	92.604638
1304.000000	92.666262
1303.000000	92.730241
1302.000000	92.794119
1301.000000	92.856106
1300.000000	92.917296
1299.000000	92.979403
1298.000000	93.042821
1297.000000	93.105998
1296.000000	93.164517
1295.000000	93.211796
1294.000000	93.244372
1293.000000	93.265364
1292.000000	93.280178
1291.000000	93.290587
1290.000000	93.295169
1289.000000	93.294182
1288.000000	93.290277
1287.000000	93.285449
1286.000000	93.280502
1285.000000	93.276744
1284.000000	93.275690
1283.000000	93.277433
1282.000000	93.281026
1281.000000	93.285084
1280.000000	93.286240
1279.000000	93.279176
1278.000000	93.261308
1277.000000	93.235461
1276.000000	93.205039
1275.000000	93.167423
1274.000000	93.115817
1273.000000	93.046524
1272.000000	92.961014
1271.000000	92.862280
1270.000000	92.751455
1269.000000	92.628766
1268.000000	92.495430
1267.000000	92.353286
1266.000000	92.204587
1265.000000	92.051952
1264.000000	91.897848
1263.000000	91.743963
1262.000000	91.592142
1261.000000	91.446084
1260.000000	91.310261
1259.000000	91.185827
1258.000000	91.069904
1257.000000	90.962062
1256.000000	90.868549
1255.000000	90.797226
1254.000000	90.749054
1253.000000	90.716801
1252.000000	90.691238
1251.000000	90.664359
1250.000000	90.629492
1249.000000	90.584111
1248.000000	90.532727
1247.000000	90.482742
1246.000000	90.436253
1245.000000	90.389230
1244.000000	90.339129
1243.000000	90.289969
1242.000000	90.249124
1241.000000	90.222018
1240.000000	90.210875
1239.000000	90.215723
1238.000000	90.234897
1237.000000	90.267947
1236.000000	90.317483
1235.000000	90.385746
1234.000000	90.470125
1233.000000	90.564057
1232.000000	90.663759
1231.000000	90.771396
1230.000000	90.892614
1229.000000	91.033520
1228.000000	91.197379
1227.000000	91.382375
1226.000000	91.581763
1225.000000	91.787117
1224.000000	91.990986
1223.000000	92.186668
1222.000000	92.369212
1221.000000	92.537060
1220.000000	92.690282
1219.000000	92.826890
1218.000000	92.944904
1217.000000	93.046396
1216.000000	93.135161
1215.000000	93.211370
1214.000000	93.271948
1213.000000	93.317741
1212.000000	93.354573
1211.000000	93.385708
1210.000000	93.407438
1209.000000	93.412994
1208.000000	93.399715
1207.000000	93.371297
1206.000000	93.335942
1205.000000	93.303107
1204.000000	93.278509
1203.000000	93.260895
1202.000000	93.244945
1201.000000	93.228308
1200.000000	93.213794
1199.000000	93.204102
1198.000000	93.197695
1197.000000	93.191957
1196.000000	93.187483
1195.000000	93.186034
1194.000000	93.185899
1193.000000	93.182344
1192.000000	93.172134
1191.000000	93.155434
1190.000000	93.134104
1189.000000	93.109825
1188.000000	93.083241
1187.000000	93.052896
1186.000000	93.014714
1185.000000	92.964846
1184.000000	92.902751
1183.000000	92.830771
1182.000000	92.751254
1181.000000	92.664961
1180.000000	92.572672
1179.000000	92.476239
1178.000000	92.377738
1177.000000	92.278880
1176.000000	92.181127
1175.000000	92.085192
1174.000000	91.990101
1173.000000	91.894497
1172.000000	91.798990
1171.000000	91.706121
1170.000000	91.618266
1169.000000	91.537514
1168.000000	91.466819
1167.000000	91.407791
1166.000000	91.358192
1165.000000	91.314653
1164.000000	91.278498
1163.000000	91.256395
1162.000000	91.254082
1161.000000	91.273813
1160.000000	91.316555
1159.000000	91.382496
1158.000000	91.469595
1157.000000	91.574285
1156.000000	91.695816
1155.000000	91.835791
1154.000000	91.993733
1153.000000	92.167397
1152.000000	92.355564
1151.000000	92.557575
1150.000000	92.769250
1149.000000	92.983125
1148.000000	93.194190
1147.000000	93.402769
1146.000000	93.611818
1145.000000	93.822240
1144.000000	94.030884
1143.000000	94.231776
1142.000000	94.420131
1141.000000	94.595047
1140.000000	94.757626
1139.000000	94.907668
1138.000000	95.042858
1137.000000	95.161789
1136.000000	95.265210
1135.000000	95.354048
1134.000000	95.428403
1133.000000	95.487640
1132.000000	95.531928
1131.000000	95.562763
1130.000000	95.581984
1129.000000	95.591120
1128.000000	95.591415
1127.000000	95.585573
1126.000000	95.577592
1125.000000	95.569228
1124.000000	95.558311
1123.000000	95.541335
1122.000000	95.516666
1121.000000	95.483004
1120.000000	95.436111
1119.000000	95.371419
1118.000000	95.288655
1117.000000	95.190973
1116.000000	95.079335
1115.000000	94.950628
1114.000000	94.803666
1113.000000	94.645235
1112.000000	94.490278
1111.000000	94.355616
1110.000000	94.251742
1109.000000	94.178727
1108.000000	94.130853
1107.000000	94.104549
1106.000000	94.099241
1105.000000	94.112064
1104.000000	94.133743
1103.000000	94.152280
1102.000000	94.158847
1101.000000	94.149021
1100.000000	94.121492
1099.000000	94.077949
1098.000000	94.024411
1097.000000	93.968011
1096.000000	93.913026
1095.000000	93.861492
1094.000000	93.816607
1093.000000	93.782600
1092.000000	93.762841
1091.000000	93.760435
1090.000000	93.780273
1089.000000	93.825264
1088.000000	93.889970
1087.000000	93.962886
1086.000000	94.037022
1085.000000	94.116422
1084.000000	94.208242
1083.000000	94.311249
1082.000000	94.416304
1081.000000	94.516124
1080.000000	94.610669
1079.000000	94.703290
1078.000000	94.795703
1077.000000	94.886882
1076.000000	94.974145
1075.000000	95.054764
1074.000000	95.128014
1073.000000	95.194890
1072.000000	95.254144
1071.000000	95.301301
1070.000000	95.332894
1069.000000	95.349883
1068.000000	95.355642
1067.000000	95.353076
1066.000000	95.346166
1065.000000	95.340617
1064.000000	95.339870
1063.000000	95.342514
1062.000000	95.345560
1061.000000	95.348358
1060.000000	95.351038
1059.000000	95.352420
1058.000000	95.352911
1057.000000	95.357719
1056.000000	95.373130
1055.000000	95.400203
1054.000000	95.434756
1053.000000	95.472295
1052.000000	95.510352
1051.000000	95.546937
1050.000000	95.580380
1049.000000	95.610825
1048.000000	95.639463
1047.000000	95.666323
1046.000000	95.689828
1045.000000	95.707013
1044.000000	95.712694
1043.000000	95.702017
1042.000000	95.676533
1041.000000	95.645644
1040.000000	95.618199
1039.000000	95.592812
1038.000000	95.559411
1037.000000	95.509556
1036.000000	95.444110
1035.000000	95.371987
1034.000000	95.303782
1033.000000	95.245780
1032.000000	95.197926
1031.000000	95.157500
1030.000000	95.124990
1029.000000	95.105692
1028.000000	95.103945
1027.000000	95.117392
1026.000000	95.138892
1025.000000	95.162674
1024.000000	95.187002
1023.000000	95.211902
1022.000000	95.238003
1021.000000	95.267254
1020.000000	95.301372
1019.000000	95.339542
1018.000000	95.379677
1017.000000	95.421751
1016.000000	95.467412
1015.000000	95.516774
1014.000000	95.569154
1013.000000	95.626691
1012.000000	95.693474
1011.000000	95.769911
1010.000000	95.850449
1009.000000	95.928314
1008.000000	96.000800
1007.000000	96.069564
1006.000000	96.137636
1005.000000	96.206244
1004.000000	96.272738
1003.000000	96.331998
1002.000000	96.381950
1001.000000	96.426513
1000.000000	96.471044
999.000000	96.515241
998.000000	96.553324
997.000000	96.581166
996.000000	96.600187
995.000000	96.614882
994.000000	96.629151
993.000000	96.645549
992.000000	96.665316
991.000000	96.687132
990.000000	96.707103
989.000000	96.721200
988.000000	96.727834
987.000000	96.728343
986.000000	96.725396
985.000000	96.720533
984.000000	96.712666
983.000000	96.699800
982.000000	96.682785
981.000000	96.665522
980.000000	96.650174
979.000000	96.633452
978.000000	96.609718
977.000000	96.577157
976.000000	96.538979
975.000000	96.499338
974.000000	96.460505
973.000000	96.424433
972.000000	96.394659
971.000000	96.375135
970.000000	96.367415
969.000000	96.369555
968.000000	96.377511
967.000000	96.387364
966.000000	96.397880
965.000000	96.411482
964.000000	96.431977
963.000000	96.461528
962.000000	96.499935
961.000000	96.546235
960.000000	96.598541
959.000000	96.652160
958.000000	96.701240
957.000000	96.744506
956.000000	96.788404
955.000000	96.841977
954.000000	96.908445
953.000000	96.982711
952.000000	97.056290
951.000000	97.123490
950.000000	97.183383
949.000000	97.238079
948.000000	97.290538
947.000000	97.343018
946.000000	97.395417
945.000000	97.444291
944.000000	97.485222
943.000000	97.517505
942.000000	97.545925
941.000000	97.575905
940.000000	97.607490
939.000000	97.636291
938.000000	97.659705
937.000000	97.679997
936.000000	97.700852
935.000000	97.723783
934.000000	97.748950
933.000000	97.777097
932.000000	97.808751
931.000000	97.842447
930.000000	97.874934
929.000000	97.902796
928.000000	97.924160
927.000000	97.940632
926.000000	97.957642
925.000000	97.980509
924.000000	98.009435
923.000000	98.040265
922.000000	98.070699
921.000000	98.102823
920.000000	98.138291
919.000000	98.173953
918.000000	98.205275
917.000000	98.232721
916.000000	98.261621
915.000000	98.296070
914.000000	98.334604
913.000000	98.371970
912.000000	98.404210
911.000000	98.431822
910.000000	98.458375
909.000000	98.486075
908.000000	98.513510
907.000000	98.538830
906.000000	98.563689
905.000000	98.591142
904.000000	98.619609
903.000000	98.642108
902.000000	98.653173
901.000000	98.655052
900.000000	98.656527
899.000000	98.666655
898.000000	98.689293
897.000000	98.720558
896.000000	98.750842
895.000000	98.771190
894.000000	98.779266
893.000000	98.778558
892.000000	98.771942
891.000000	98.756894
890.000000	98.722025
889.000000	98.641780
888.000000	98.477514
887.000000	98.193547
886.000000	97.784864
885.000000	97.288983
884.000000	96.765472
883.000000	96.259055
882.000000	95.771727
881.000000	95.266744
880.000000	94.702153
879.000000	94.069619
878.000000	93.407057
877.000000	92.782860
876.000000	92.270704
875.000000	91.932440
874.000000	91.811959
873.000000	91.930693
872.000000	92.286941
871.000000	92.847714
870.000000	93.542454
869.000000	94.277394
868.000000	94.965562
867.000000	95.554815
866.000000	96.034270
865.000000	96.420250
864.000000	96.734785
863.000000	96.994690
862.000000	97.211333
861.000000	97.392921
860.000000	97.545319
859.000000	97.673658
858.000000	97.785091
857.000000	97.884686
856.000000	97.970329
855.000000	98.038349
854.000000	98.092765
853.000000	98.139808
852.000000	98.169810
851.000000	98.158639
850.000000	98.099788
849.000000	98.028618
848.000000	98.000957
847.000000	98.044180
846.000000	98.136336
845.000000	98.233769
844.000000	98.309329
843.000000	98.362012
842.000000	98.401362
841.000000	98.433601
840.000000	98.460476
839.000000	98.481986
838.000000	98.496728
837.000000	98.502162
836.000000	98.497082
835.000000	98.484211
834.000000	98.470110
833.000000	98.462043
832.000000	98.463770
831.000000	98.474240
830.000000	98.490807
829.000000	98.513249
828.000000	98.542588
827.000000	98.575951
826.000000	98.606190
825.000000	98.628406
824.000000	98.644139
823.000000	98.657197
822.000000	98.668692
821.000000	98.679245
820.000000	98.692490
819.000000	98.711420
818.000000	98.732386
817.000000	98.747196
816.000000	98.751217
815.000000	98.746459
814.000000	98.737467
813.000000	98.728565
812.000000	98.725380
811.000000	98.732719
810.000000	98.747179
809.000000	98.756166
808.000000	98.749841
807.000000	98.732041
806.000000	98.715074
805.000000	98.705299
804.000000	98.698452
803.000000	98.688367
802.000000	98.674398
801.000000	98.658798
800.000000	98.641585
799.000000	98.620516
798.000000	98.593950
797.000000	98.562562
796.000000	98.530483
795.000000	98.505007
794.000000	98.491443
793.000000	98.486877
792.000000	98.481877
791.000000	98.469514
790.000000	98.450461
789.000000	98.428671
788.000000	98.405913
787.000000	98.382847
786.000000	98.362544
785.000000	98.349239
784.000000	98.344019
783.000000	98.343461
782.000000	98.342149
781.000000	98.336131
780.000000	98.325199
779.000000	98.312528
778.000000	98.300920
777.000000	98.288793
776.000000	98.271326
775.000000	98.246197
774.000000	98.216760
773.000000	98.189360
772.000000	98.169365
771.000000	98.159775
770.000000	98.160366
769.000000	98.166485
768.000000	98.170589
767.000000	98.166573
766.000000	98.151619
765.000000	98.124464
764.000000	98.085783
763.000000	98.041679
762.000000	98.002260
761.000000	97.972449
760.000000	97.946387
759.000000	97.914996
758.000000	97.877904
757.000000	97.843200
756.000000	97.815499
755.000000	97.790140
754.000000	97.762427
753.000000	97.738304
752.000000	97.729467
751.000000	97.737719
750.000000	97.749212
749.000000	97.747757
748.000000	97.731274
747.000000	97.711331
746.000000	97.698340
745.000000	97.691910
744.000000	97.685668
743.000000	97.675671
742.000000	97.661342
741.000000	97.642600
740.000000	97.620178
739.000000	97.595964
738.000000	97.569137
737.000000	97.534891
736.000000	97.491737
735.000000	97.447488
734.000000	97.411181
733.000000	97.379516
732.000000	97.338481
731.000000	97.280717
730.000000	97.215728
729.000000	97.159024
728.000000	97.117066
727.000000	97.086052
726.000000	97.059854
725.000000	97.035750
724.000000	97.013643
723.000000	96.991120
722.000000	96.957762
721.000000	96.895300
720.000000	96.788988
719.000000	96.638599
718.000000	96.448540
717.000000	96.204110
716.000000	95.872042
715.000000	95.443659
714.000000	94.983064
713.000000	94.618730
712.000000	94.467250
711.000000	94.550757
710.000000	94.785262
709.000000	95.046667
708.000000	95.249671
707.000000	95.377594
706.000000	95.453563
705.000000	95.499267
704.000000	95.521463
703.000000	95.521623
702.000000	95.505823
701.000000	95.483085
700.000000	95.458357
699.000000	95.432547
698.000000	95.406362
697.000000	95.382326
696.000000	95.363293
695.000000	95.349197
694.000000	95.339643
693.000000	95.337617
692.000000	95.346502
691.000000	95.365333
690.000000	95.387346
689.000000	95.404281
688.000000	95.410854
687.000000	95.404934
686.000000	95.388939
685.000000	95.370211
684.000000	95.354956
683.000000	95.341696
682.000000	95.323421
681.000000	95.296978
680.000000	95.267370
679.000000	95.244192
678.000000	95.236224
677.000000	95.245552
676.000000	95.268032
675.000000	95.292712
674.000000	95.312072
673.000000	95.331025
672.000000	95.358688
671.000000	95.393835
670.000000	95.429616
669.000000	95.459929
668.000000	95.460897
667.000000	95.455049
666.000000	95.502219
665.000000	95.559992
664.000000	95.595266
663.000000	95.618169
662.000000	95.642073
661.000000	95.663392
660.000000	95.675523
659.000000	95.682256
658.000000	95.686952
657.000000	95.681307
656.000000	95.661641
655.000000	95.634903
654.000000	95.603912
653.000000	95.561455
652.000000	95.506823
651.000000	95.450993
650.000000	95.398505
649.000000	95.338035
648.000000	95.262169
647.000000	95.179640
646.000000	95.098097
645.000000	95.013633
644.000000	94.926116
643.000000	94.846309
642.000000	94.777831
641.000000	94.706669
640.000000	94.623534
639.000000	94.543268
638.000000	94.485247
637.000000	94.448614
636.000000	94.422919
635.000000	94.410699
634.000000	94.423852
633.000000	94.464381
632.000000	94.519181
631.000000	94.567002
630.000000	94.586463
629.000000	94.570152
628.000000	94.536725
627.000000	94.517305
626.000000	94.521120
625.000000	94.527007
624.000000	94.513808
623.000000	94.483013
622.000000	94.445905
621.000000	94.405507
620.000000	94.361995
619.000000	94.320417
618.000000	94.281046
617.000000	94.234621
616.000000	94.179113
615.000000	94.128933
614.000000	94.096528
613.000000	94.078262
612.000000	94.068040
611.000000	94.070690
610.000000	94.090020
609.000000	94.117237
608.000000	94.143817
607.000000	94.176161
606.000000	94.225074
605.000000	94.293692
604.000000	94.385446
603.000000	94.509307
602.000000	94.664399
601.000000	94.828640
600.000000	94.974678
599.000000	95.092428
598.000000	95.190404
597.000000	95.281938
596.000000	95.377293
595.000000	95.479937
594.000000	95.580737
593.000000	95.662506
592.000000	95.717978
591.000000	95.756876
590.000000	95.790174
589.000000	95.817083
588.000000	95.834123
587.000000	95.844292
586.000000	95.848770
585.000000	95.842424
584.000000	95.829191
583.000000	95.829894
582.000000	95.858106
581.000000	95.897100
580.000000	95.916955
579.000000	95.910247
578.000000	95.895163
577.000000	95.888210
576.000000	95.892151
575.000000	95.906363
574.000000	95.932596
573.000000	95.968259
572.000000	96.005193
571.000000	96.035931
570.000000	96.056453
569.000000	96.065248
568.000000	96.063686
567.000000	96.054188
566.000000	96.035256
565.000000	96.003906
564.000000	95.967247
563.000000	95.943410
562.000000	95.943497
561.000000	95.959777
560.000000	95.977327
559.000000	95.987531
558.000000	95.985236
557.000000	95.967908
556.000000	95.946999
555.000000	95.945984
554.000000	95.973875
553.000000	96.011093
552.000000	96.034623
551.000000	96.046149
550.000000	96.064270
549.000000	96.098373
548.000000	96.142450
547.000000	96.185541
546.000000	96.216942
545.000000	96.229004
544.000000	96.223675
543.000000	96.210502
542.000000	96.194219
541.000000	96.173810
540.000000	96.156236
539.000000	96.155329
538.000000	96.169618
537.000000	96.176172
536.000000	96.157278
535.000000	96.120693
534.000000	96.084985
533.000000	96.058572
532.000000	96.040540
531.000000	96.026805
530.000000	96.008923
529.000000	95.985750
528.000000	95.982281
527.000000	96.033436
526.000000	96.130196
525.000000	96.209878
524.000000	96.231913
523.000000	96.221397
522.000000	96.217596
521.000000	96.223791
520.000000	96.225704
519.000000	96.228007
518.000000	96.245291
517.000000	96.274538
516.000000	96.308024
515.000000	96.352274
514.000000	96.405163
513.000000	96.439340
512.000000	96.435973
511.000000	96.416188
510.000000	96.412897
509.000000	96.426711
508.000000	96.439731
507.000000	96.455436
506.000000	96.487240
505.000000	96.522450
504.000000	96.537541
503.000000	96.540376
502.000000	96.564472
501.000000	96.620603
500.000000	96.687490
499.000000	96.749477
498.000000	96.803428
497.000000	96.835944
496.000000	96.827913
495.000000	96.783457
494.000000	96.733338
493.000000	96.705805
492.000000	96.710349
491.000000	96.748380
490.000000	96.816137
489.000000	96.895891
488.000000	96.963340
487.000000	97.005910
486.000000	97.026875
485.000000	97.038613
484.000000	97.059382
483.000000	97.106864
482.000000	97.175752
481.000000	97.232920
480.000000	97.250559
479.000000	97.232292
478.000000	97.201760
477.000000	97.181114
476.000000	97.191165
475.000000	97.253207
474.000000	97.368246
473.000000	97.499850
472.000000	97.598051
471.000000	97.644784
470.000000	97.648905
469.000000	97.620783
468.000000	97.589790
467.000000	97.606023
466.000000	97.680367
465.000000	97.756561
464.000000	97.788175
463.000000	97.802324
462.000000	97.858132
461.000000	97.968888
460.000000	98.111796
459.000000	98.277807
458.000000	98.439067
457.000000	98.516151
456.000000	98.446668
455.000000	98.423166
454.000000	98.485870
453.000000	98.625001
452.000000	98.740576
451.000000	98.765500
450.000000	98.736677
