PE IR       SUBTECH     SPECTRUM    ASCII       PEDS        4.00        
   -1
3C-YYX-C013_1.ASC
23/09/07
11:21:54.00
23/09/07
11:30:09.00
uco
Sample 013 By uco Date Thursday, September 07 2023
450.000000
#HDR
-1
-1
#GR
cm-1
%T
1.0
0.0
4000.000000
-1.000000
3551
8
98.525068
77.911164
#DATA
4000.000000	98.451736
3999.000000	98.453645
3998.000000	98.454182
3997.000000	98.453965
3996.000000	98.453766
3995.000000	98.453898
3994.000000	98.454155
3993.000000	98.454281
3992.000000	98.454244
3991.000000	98.453976
3990.000000	98.452928
3989.000000	98.450241
3988.000000	98.445669
3987.000000	98.440237
3986.000000	98.435702
3985.000000	98.433318
3984.000000	98.433343
3983.000000	98.435485
3982.000000	98.439380
3981.000000	98.444534
3980.000000	98.450018
3979.000000	98.454500
3978.000000	98.456729
3977.000000	98.456160
3976.000000	98.453339
3975.000000	98.449795
3974.000000	98.447131
3973.000000	98.446001
3972.000000	98.445787
3971.000000	98.445268
3970.000000	98.443783
3969.000000	98.441780
3968.000000	98.440404
3967.000000	98.440386
3966.000000	98.441178
3965.000000	98.441305
3964.000000	98.439680
3963.000000	98.436500
3962.000000	98.432860
3961.000000	98.429847
3960.000000	98.427872
3959.000000	98.426769
3958.000000	98.426117
3957.000000	98.425287
3956.000000	98.423904
3955.000000	98.422386
3954.000000	98.421885
3953.000000	98.423550
3952.000000	98.427588
3951.000000	98.433014
3950.000000	98.437989
3949.000000	98.440687
3948.000000	98.440404
3947.000000	98.437960
3946.000000	98.435005
3945.000000	98.432872
3944.000000	98.432035
3943.000000	98.432351
3942.000000	98.433499
3941.000000	98.435705
3940.000000	98.439117
3939.000000	98.442184
3938.000000	98.441868
3937.000000	98.435764
3936.000000	98.424857
3935.000000	98.413908
3934.000000	98.408889
3933.000000	98.413655
3932.000000	98.426964
3931.000000	98.442701
3930.000000	98.453783
3929.000000	98.456785
3928.000000	98.453791
3927.000000	98.449680
3926.000000	98.447862
3925.000000	98.447820
3924.000000	98.446788
3923.000000	98.443639
3922.000000	98.439572
3921.000000	98.435272
3920.000000	98.429601
3919.000000	98.421369
3918.000000	98.412034
3917.000000	98.405739
3916.000000	98.405828
3915.000000	98.411545
3914.000000	98.418270
3913.000000	98.421005
3912.000000	98.417693
3911.000000	98.410371
3910.000000	98.403300
3909.000000	98.399458
3908.000000	98.399250
3907.000000	98.401337
3906.000000	98.404127
3905.000000	98.406595
3904.000000	98.408680
3903.000000	98.411780
3902.000000	98.417735
3901.000000	98.425903
3900.000000	98.432954
3899.000000	98.435602
3898.000000	98.433572
3897.000000	98.429552
3896.000000	98.426019
3895.000000	98.423620
3894.000000	98.422230
3893.000000	98.421770
3892.000000	98.421875
3891.000000	98.421483
3890.000000	98.420527
3889.000000	98.420189
3888.000000	98.421082
3887.000000	98.422977
3886.000000	98.424558
3885.000000	98.423389
3884.000000	98.419691
3883.000000	98.416733
3882.000000	98.416775
3881.000000	98.418555
3880.000000	98.418297
3879.000000	98.414588
3878.000000	98.410398
3877.000000	98.408411
3876.000000	98.409073
3875.000000	98.411388
3874.000000	98.412663
3873.000000	98.410643
3872.000000	98.406627
3871.000000	98.404250
3870.000000	98.404878
3869.000000	98.406979
3868.000000	98.410704
3867.000000	98.417045
3866.000000	98.424070
3865.000000	98.428000
3864.000000	98.426753
3863.000000	98.421989
3862.000000	98.416747
3861.000000	98.412108
3860.000000	98.408058
3859.000000	98.404191
3858.000000	98.399083
3857.000000	98.390003
3856.000000	98.376419
3855.000000	98.363898
3854.000000	98.360268
3853.000000	98.364614
3852.000000	98.372604
3851.000000	98.384160
3850.000000	98.396478
3849.000000	98.405167
3848.000000	98.409411
3847.000000	98.411471
3846.000000	98.413281
3845.000000	98.414382
3844.000000	98.412985
3843.000000	98.408606
3842.000000	98.403331
3841.000000	98.400674
3840.000000	98.403294
3839.000000	98.410541
3838.000000	98.418338
3837.000000	98.422843
3836.000000	98.424451
3835.000000	98.425957
3834.000000	98.428321
3833.000000	98.429998
3832.000000	98.429321
3831.000000	98.426224
3830.000000	98.422314
3829.000000	98.419126
3828.000000	98.417109
3827.000000	98.415197
3826.000000	98.411124
3825.000000	98.403760
3824.000000	98.395366
3823.000000	98.391640
3822.000000	98.396647
3821.000000	98.404759
3820.000000	98.406609
3819.000000	98.403616
3818.000000	98.402986
3817.000000	98.406687
3816.000000	98.410204
3815.000000	98.407593
3814.000000	98.399438
3813.000000	98.390449
3812.000000	98.383064
3811.000000	98.377897
3810.000000	98.375508
3809.000000	98.376953
3808.000000	98.382960
3807.000000	98.391706
3806.000000	98.399635
3805.000000	98.405980
3804.000000	98.413136
3803.000000	98.424151
3802.000000	98.438288
3801.000000	98.447652
3800.000000	98.447181
3799.000000	98.442065
3798.000000	98.437239
3797.000000	98.432523
3796.000000	98.426060
3795.000000	98.417755
3794.000000	98.409412
3793.000000	98.402654
3792.000000	98.398628
3791.000000	98.398724
3790.000000	98.403232
3789.000000	98.410117
3788.000000	98.416870
3787.000000	98.422142
3786.000000	98.424962
3785.000000	98.423739
3784.000000	98.417914
3783.000000	98.410080
3782.000000	98.404732
3781.000000	98.404828
3780.000000	98.409479
3779.000000	98.414029
3778.000000	98.414034
3777.000000	98.409431
3776.000000	98.403455
3775.000000	98.399255
3774.000000	98.397919
3773.000000	98.398775
3772.000000	98.400911
3771.000000	98.403758
3770.000000	98.406162
3769.000000	98.406830
3768.000000	98.407181
3767.000000	98.409983
3766.000000	98.415277
3765.000000	98.419881
3764.000000	98.421168
3763.000000	98.419693
3762.000000	98.417406
3761.000000	98.415111
3760.000000	98.412577
3759.000000	98.409870
3758.000000	98.408148
3757.000000	98.408793
3756.000000	98.412296
3755.000000	98.417913
3754.000000	98.423593
3753.000000	98.426326
3752.000000	98.423604
3751.000000	98.415121
3750.000000	98.403476
3749.000000	98.393558
3748.000000	98.389346
3747.000000	98.392188
3746.000000	98.402394
3745.000000	98.417064
3744.000000	98.427640
3743.000000	98.432323
3742.000000	98.436516
3741.000000	98.438624
3740.000000	98.434248
3739.000000	98.424782
3738.000000	98.417149
3737.000000	98.418699
3736.000000	98.432031
3735.000000	98.451805
3734.000000	98.467108
3733.000000	98.470883
3732.000000	98.465378
3731.000000	98.457828
3730.000000	98.452829
3729.000000	98.449633
3728.000000	98.445990
3727.000000	98.441279
3726.000000	98.436136
3725.000000	98.432017
3724.000000	98.431300
3723.000000	98.435255
3722.000000	98.440902
3721.000000	98.443482
3720.000000	98.441878
3719.000000	98.438819
3718.000000	98.436469
3717.000000	98.434347
3716.000000	98.432051
3715.000000	98.430629
3714.000000	98.429598
3713.000000	98.425981
3712.000000	98.418410
3711.000000	98.411046
3710.000000	98.409306
3709.000000	98.413168
3708.000000	98.419438
3707.000000	98.425693
3706.000000	98.430900
3705.000000	98.435388
3704.000000	98.440944
3703.000000	98.448773
3702.000000	98.456715
3701.000000	98.460271
3700.000000	98.458631
3699.000000	98.455272
3698.000000	98.452259
3697.000000	98.448082
3696.000000	98.440754
3695.000000	98.431036
3694.000000	98.422035
3693.000000	98.417943
3692.000000	98.422904
3691.000000	98.438362
3690.000000	98.456767
3689.000000	98.462476
3688.000000	98.448773
3687.000000	98.427339
3686.000000	98.411793
3685.000000	98.404602
3684.000000	98.401494
3683.000000	98.398567
3682.000000	98.394620
3681.000000	98.389134
3680.000000	98.381006
3679.000000	98.369931
3678.000000	98.358463
3677.000000	98.352157
3676.000000	98.353841
3675.000000	98.355910
3674.000000	98.350793
3673.000000	98.341997
3672.000000	98.334860
3671.000000	98.332598
3670.000000	98.334016
3669.000000	98.331737
3668.000000	98.323493
3667.000000	98.314853
3666.000000	98.308887
3665.000000	98.304176
3664.000000	98.298495
3663.000000	98.291496
3662.000000	98.284417
3661.000000	98.278340
3660.000000	98.273757
3659.000000	98.270872
3658.000000	98.269252
3657.000000	98.267398
3656.000000	98.264048
3655.000000	98.260891
3654.000000	98.260063
3653.000000	98.259986
3652.000000	98.257025
3651.000000	98.249145
3650.000000	98.237099
3649.000000	98.224261
3648.000000	98.214265
3647.000000	98.206599
3646.000000	98.198217
3645.000000	98.188049
3644.000000	98.178021
3643.000000	98.171088
3642.000000	98.168416
3641.000000	98.168065
3640.000000	98.167237
3639.000000	98.164599
3638.000000	98.159489
3637.000000	98.151651
3636.000000	98.142681
3635.000000	98.135572
3634.000000	98.130933
3633.000000	98.124888
3632.000000	98.112783
3631.000000	98.094553
3630.000000	98.075670
3629.000000	98.061545
3628.000000	98.052059
3627.000000	98.046161
3626.000000	98.043209
3625.000000	98.040382
3624.000000	98.037577
3623.000000	98.038278
3622.000000	98.044159
3621.000000	98.050846
3620.000000	98.049393
3619.000000	98.033912
3618.000000	98.008756
3617.000000	97.984446
3616.000000	97.967336
3615.000000	97.956260
3614.000000	97.944948
3613.000000	97.926723
3612.000000	97.901120
3611.000000	97.874955
3610.000000	97.854977
3609.000000	97.843552
3608.000000	97.839669
3607.000000	97.840581
3606.000000	97.843336
3605.000000	97.845635
3604.000000	97.847012
3603.000000	97.847883
3602.000000	97.847270
3601.000000	97.842704
3600.000000	97.833098
3599.000000	97.820264
3598.000000	97.805816
3597.000000	97.788856
3596.000000	97.767969
3595.000000	97.744774
3594.000000	97.722961
3593.000000	97.705639
3592.000000	97.693861
3591.000000	97.687430
3590.000000	97.684886
3589.000000	97.683365
3588.000000	97.678642
3587.000000	97.667882
3586.000000	97.652672
3585.000000	97.637063
3584.000000	97.623217
3583.000000	97.610114
3582.000000	97.595511
3581.000000	97.578799
3580.000000	97.562466
3579.000000	97.550478
3578.000000	97.543710
3577.000000	97.538563
3576.000000	97.530185
3575.000000	97.516357
3574.000000	97.497786
3573.000000	97.476891
3572.000000	97.457353
3571.000000	97.442938
3570.000000	97.434754
3569.000000	97.429674
3568.000000	97.422229
3567.000000	97.409254
3566.000000	97.392419
3565.000000	97.375371
3564.000000	97.360245
3563.000000	97.346621
3562.000000	97.332150
3561.000000	97.314419
3560.000000	97.293581
3559.000000	97.272825
3558.000000	97.255515
3557.000000	97.242358
3556.000000	97.231862
3555.000000	97.221994
3554.000000	97.210649
3553.000000	97.196002
3552.000000	97.178343
3551.000000	97.160752
3550.000000	97.146377
3549.000000	97.135961
3548.000000	97.128372
3547.000000	97.121857
3546.000000	97.113998
3545.000000	97.102518
3544.000000	97.087434
3543.000000	97.070821
3542.000000	97.053588
3541.000000	97.034541
3540.000000	97.013326
3539.000000	96.992218
3538.000000	96.973860
3537.000000	96.958364
3536.000000	96.943897
3535.000000	96.929315
3534.000000	96.914706
3533.000000	96.900770
3532.000000	96.888752
3531.000000	96.879806
3530.000000	96.872856
3529.000000	96.864485
3528.000000	96.852897
3527.000000	96.840727
3526.000000	96.831420
3525.000000	96.824038
3524.000000	96.813976
3523.000000	96.798321
3522.000000	96.778914
3521.000000	96.760186
3520.000000	96.745276
3519.000000	96.734090
3518.000000	96.723862
3517.000000	96.711755
3516.000000	96.697410
3515.000000	96.682756
3514.000000	96.669163
3513.000000	96.656093
3512.000000	96.642683
3511.000000	96.629186
3510.000000	96.615932
3509.000000	96.602390
3508.000000	96.588613
3507.000000	96.576419
3506.000000	96.567685
3505.000000	96.562017
3504.000000	96.556794
3503.000000	96.549061
3502.000000	96.537468
3501.000000	96.523247
3500.000000	96.509303
3499.000000	96.497468
3498.000000	96.486312
3497.000000	96.472498
3496.000000	96.454645
3495.000000	96.434807
3494.000000	96.415908
3493.000000	96.399316
3492.000000	96.385427
3491.000000	96.374549
3490.000000	96.366052
3489.000000	96.358163
3488.000000	96.349576
3487.000000	96.340053
3486.000000	96.328797
3485.000000	96.313972
3484.000000	96.295016
3483.000000	96.274607
3482.000000	96.257213
3481.000000	96.245840
3480.000000	96.240401
3479.000000	96.238005
3478.000000	96.234414
3477.000000	96.226485
3476.000000	96.214287
3475.000000	96.200302
3474.000000	96.186402
3473.000000	96.172803
3472.000000	96.159682
3471.000000	96.147735
3470.000000	96.136700
3469.000000	96.125360
3468.000000	96.113718
3467.000000	96.103376
3466.000000	96.095182
3465.000000	96.088261
3464.000000	96.081848
3463.000000	96.076109
3462.000000	96.070189
3461.000000	96.061439
3460.000000	96.047928
3459.000000	96.030508
3458.000000	96.011855
3457.000000	95.994883
3456.000000	95.982320
3455.000000	95.975567
3454.000000	95.972599
3453.000000	95.969084
3452.000000	95.962757
3451.000000	95.955633
3450.000000	95.950788
3449.000000	95.948382
3448.000000	95.945820
3447.000000	95.940421
3446.000000	95.930646
3445.000000	95.915900
3444.000000	95.896960
3443.000000	95.876709
3442.000000	95.859465
3441.000000	95.848757
3440.000000	95.845167
3439.000000	95.845520
3438.000000	95.844471
3437.000000	95.838429
3436.000000	95.828303
3435.000000	95.817569
3434.000000	95.808016
3433.000000	95.799142
3432.000000	95.790976
3431.000000	95.784634
3430.000000	95.779339
3429.000000	95.771486
3428.000000	95.758348
3427.000000	95.740956
3426.000000	95.722537
3425.000000	95.705807
3424.000000	95.692499
3423.000000	95.683211
3422.000000	95.676008
3421.000000	95.666992
3420.000000	95.654108
3419.000000	95.639321
3418.000000	95.625834
3417.000000	95.614756
3416.000000	95.605435
3415.000000	95.597186
3414.000000	95.589298
3413.000000	95.580582
3412.000000	95.570156
3411.000000	95.557821
3410.000000	95.543562
3409.000000	95.528414
3408.000000	95.516051
3407.000000	95.510516
3406.000000	95.510855
3405.000000	95.510315
3404.000000	95.502941
3403.000000	95.489672
3402.000000	95.476138
3401.000000	95.466061
3400.000000	95.458349
3399.000000	95.449222
3398.000000	95.435483
3397.000000	95.416978
3396.000000	95.397497
3395.000000	95.382266
3394.000000	95.372982
3393.000000	95.365950
3392.000000	95.356196
3391.000000	95.342533
3390.000000	95.327706
3389.000000	95.314868
3388.000000	95.305340
3387.000000	95.298595
3386.000000	95.292692
3385.000000	95.285086
3384.000000	95.274076
3383.000000	95.259482
3382.000000	95.242079
3381.000000	95.223562
3380.000000	95.206886
3379.000000	95.194481
3378.000000	95.185325
3377.000000	95.175358
3376.000000	95.161571
3375.000000	95.144339
3374.000000	95.125458
3373.000000	95.106048
3372.000000	95.087424
3371.000000	95.071882
3370.000000	95.060668
3369.000000	95.052133
3368.000000	95.043159
3367.000000	95.031635
3366.000000	95.016921
3365.000000	94.999305
3364.000000	94.980143
3363.000000	94.961329
3362.000000	94.943633
3361.000000	94.926347
3360.000000	94.908963
3359.000000	94.891766
3358.000000	94.874360
3357.000000	94.855305
3356.000000	94.834229
3355.000000	94.812919
3354.000000	94.793297
3353.000000	94.775439
3352.000000	94.758309
3351.000000	94.740966
3350.000000	94.722295
3349.000000	94.701134
3348.000000	94.677718
3347.000000	94.653881
3346.000000	94.631006
3345.000000	94.608901
3344.000000	94.587277
3343.000000	94.567033
3342.000000	94.549188
3341.000000	94.533780
3340.000000	94.520398
3339.000000	94.508361
3338.000000	94.495723
3337.000000	94.479712
3336.000000	94.459290
3335.000000	94.436368
3334.000000	94.413842
3333.000000	94.393347
3332.000000	94.375239
3331.000000	94.359162
3330.000000	94.344026
3329.000000	94.328688
3328.000000	94.313120
3327.000000	94.297786
3326.000000	94.282011
3325.000000	94.264746
3324.000000	94.247042
3323.000000	94.231551
3322.000000	94.218821
3321.000000	94.206176
3320.000000	94.190911
3319.000000	94.172784
3318.000000	94.152884
3317.000000	94.132223
3316.000000	94.112399
3315.000000	94.095536
3314.000000	94.082027
3313.000000	94.069780
3312.000000	94.056768
3311.000000	94.043058
3310.000000	94.029796
3309.000000	94.017764
3308.000000	94.007543
3307.000000	93.999020
3306.000000	93.989847
3305.000000	93.976368
3304.000000	93.957304
3303.000000	93.935237
3302.000000	93.913883
3301.000000	93.895520
3300.000000	93.881450
3299.000000	93.872301
3298.000000	93.866346
3297.000000	93.859825
3296.000000	93.850631
3295.000000	93.840294
3294.000000	93.831062
3293.000000	93.822859
3292.000000	93.814474
3291.000000	93.805949
3290.000000	93.798207
3289.000000	93.791588
3288.000000	93.786138
3287.000000	93.782194
3286.000000	93.779619
3285.000000	93.777786
3284.000000	93.776878
3283.000000	93.777570
3282.000000	93.778950
3281.000000	93.779078
3280.000000	93.778964
3279.000000	93.783092
3278.000000	93.794155
3277.000000	93.809160
3276.000000	93.822954
3275.000000	93.834280
3274.000000	93.845744
3273.000000	93.859188
3272.000000	93.873318
3271.000000	93.885297
3270.000000	93.892987
3269.000000	93.896373
3268.000000	93.898454
3267.000000	93.903959
3266.000000	93.915557
3265.000000	93.931617
3264.000000	93.948749
3263.000000	93.965488
3262.000000	93.982446
3261.000000	94.000027
3260.000000	94.017601
3259.000000	94.034324
3258.000000	94.049744
3257.000000	94.064324
3256.000000	94.080051
3255.000000	94.099340
3254.000000	94.122230
3253.000000	94.146033
3252.000000	94.168726
3251.000000	94.191149
3250.000000	94.214427
3249.000000	94.236876
3248.000000	94.255692
3247.000000	94.270626
3246.000000	94.283848
3245.000000	94.296374
3244.000000	94.306611
3243.000000	94.312911
3242.000000	94.316094
3241.000000	94.319251
3240.000000	94.325968
3239.000000	94.338744
3238.000000	94.358159
3237.000000	94.382800
3236.000000	94.409816
3235.000000	94.435733
3234.000000	94.457443
3233.000000	94.473584
3232.000000	94.485110
3231.000000	94.493817
3230.000000	94.500318
3229.000000	94.504289
3228.000000	94.506460
3227.000000	94.508953
3226.000000	94.513508
3225.000000	94.520700
3224.000000	94.530858
3223.000000	94.544066
3222.000000	94.558819
3221.000000	94.572438
3220.000000	94.583701
3219.000000	94.593801
3218.000000	94.603989
3217.000000	94.613776
3216.000000	94.622211
3215.000000	94.629463
3214.000000	94.636008
3213.000000	94.641449
3212.000000	94.645340
3211.000000	94.648520
3210.000000	94.652739
3209.000000	94.659344
3208.000000	94.668836
3207.000000	94.681005
3206.000000	94.695081
3205.000000	94.710236
3204.000000	94.726134
3203.000000	94.742440
3202.000000	94.758082
3201.000000	94.771875
3200.000000	94.783668
3199.000000	94.793869
3198.000000	94.802463
3197.000000	94.809924
3196.000000	94.818351
3195.000000	94.829485
3194.000000	94.841897
3193.000000	94.852608
3192.000000	94.861720
3191.000000	94.872978
3190.000000	94.888920
3189.000000	94.907737
3188.000000	94.925877
3187.000000	94.941750
3186.000000	94.955889
3185.000000	94.969366
3184.000000	94.983294
3183.000000	94.998327
3182.000000	95.013536
3181.000000	95.027175
3180.000000	95.039314
3179.000000	95.052249
3178.000000	95.067634
3177.000000	95.084916
3176.000000	95.103320
3175.000000	95.123041
3174.000000	95.143248
3173.000000	95.161182
3172.000000	95.175117
3171.000000	95.186681
3170.000000	95.198492
3169.000000	95.210969
3168.000000	95.223101
3167.000000	95.234928
3166.000000	95.247265
3165.000000	95.260068
3164.000000	95.273091
3163.000000	95.287365
3162.000000	95.304082
3161.000000	95.322373
3160.000000	95.339955
3159.000000	95.355832
3158.000000	95.370905
3157.000000	95.385924
3156.000000	95.400317
3155.000000	95.413425
3154.000000	95.425986
3153.000000	95.439802
3152.000000	95.456014
3151.000000	95.473728
3150.000000	95.490479
3149.000000	95.504556
3148.000000	95.516692
3147.000000	95.528790
3146.000000	95.541112
3145.000000	95.552062
3144.000000	95.560946
3143.000000	95.569586
3142.000000	95.580442
3141.000000	95.594132
3140.000000	95.609287
3139.000000	95.623811
3138.000000	95.635676
3137.000000	95.643814
3136.000000	95.648968
3135.000000	95.653023
3134.000000	95.657033
3133.000000	95.660809
3132.000000	95.664513
3131.000000	95.669132
3130.000000	95.674926
3129.000000	95.681082
3128.000000	95.687736
3127.000000	95.696858
3126.000000	95.709764
3125.000000	95.724536
3124.000000	95.737066
3123.000000	95.744259
3122.000000	95.745857
3121.000000	95.744179
3120.000000	95.742710
3119.000000	95.744027
3118.000000	95.747941
3117.000000	95.752124
3116.000000	95.754824
3115.000000	95.756247
3114.000000	95.757043
3113.000000	95.756895
3112.000000	95.755458
3111.000000	95.753768
3110.000000	95.753687
3109.000000	95.756297
3108.000000	95.760955
3107.000000	95.765274
3106.000000	95.766006
3105.000000	95.761416
3104.000000	95.753439
3103.000000	95.746238
3102.000000	95.741755
3101.000000	95.737705
3100.000000	95.731026
3099.000000	95.722304
3098.000000	95.715481
3097.000000	95.713771
3096.000000	95.716841
3095.000000	95.721407
3094.000000	95.723676
3093.000000	95.721510
3092.000000	95.715153
3091.000000	95.706271
3090.000000	95.696456
3089.000000	95.686962
3088.000000	95.679337
3087.000000	95.674895
3086.000000	95.673102
3085.000000	95.671542
3084.000000	95.668334
3083.000000	95.663943
3082.000000	95.660200
3081.000000	95.658165
3080.000000	95.657337
3079.000000	95.656163
3078.000000	95.652875
3077.000000	95.646530
3076.000000	95.637850
3075.000000	95.628861
3074.000000	95.621700
3073.000000	95.618073
3072.000000	95.619207
3071.000000	95.624920
3070.000000	95.632670
3069.000000	95.638820
3068.000000	95.641447
3067.000000	95.641301
3066.000000	95.640017
3065.000000	95.638493
3064.000000	95.637143
3063.000000	95.636551
3062.000000	95.637524
3061.000000	95.641322
3060.000000	95.649610
3059.000000	95.662690
3058.000000	95.677705
3057.000000	95.690359
3056.000000	95.699075
3055.000000	95.706299
3054.000000	95.715156
3053.000000	95.726161
3052.000000	95.737661
3051.000000	95.748018
3050.000000	95.756698
3049.000000	95.764446
3048.000000	95.773034
3047.000000	95.783847
3046.000000	95.796313
3045.000000	95.808702
3044.000000	95.820498
3043.000000	95.832419
3042.000000	95.844037
3041.000000	95.853473
3040.000000	95.860511
3039.000000	95.868168
3038.000000	95.879626
3037.000000	95.894461
3036.000000	95.909111
3035.000000	95.920340
3034.000000	95.927398
3033.000000	95.931696
3032.000000	95.935486
3031.000000	95.940397
3030.000000	95.946519
3029.000000	95.953271
3028.000000	95.961145
3027.000000	95.971510
3026.000000	95.984186
3025.000000	95.996334
3024.000000	96.004606
3023.000000	96.008058
3022.000000	96.008708
3021.000000	96.009880
3020.000000	96.014001
3019.000000	96.020748
3018.000000	96.026958
3017.000000	96.029226
3016.000000	96.027051
3015.000000	96.022623
3014.000000	96.017605
3013.000000	96.011379
3012.000000	96.002531
3011.000000	95.990432
3010.000000	95.975038
3009.000000	95.956750
3008.000000	95.937300
3007.000000	95.919305
3006.000000	95.903877
3005.000000	95.889347
3004.000000	95.872842
3003.000000	95.852529
3002.000000	95.828281
3001.000000	95.801404
3000.000000	95.774008
2999.000000	95.747341
2998.000000	95.720230
2997.000000	95.690208
2996.000000	95.656339
2995.000000	95.619662
2994.000000	95.580631
2993.000000	95.537940
2992.000000	95.490541
2991.000000	95.438938
2990.000000	95.383663
2989.000000	95.323784
2988.000000	95.258182
2987.000000	95.187115
2986.000000	95.111553
2985.000000	95.032135
2984.000000	94.949429
2983.000000	94.864068
2982.000000	94.775553
2981.000000	94.681731
2980.000000	94.580703
2979.000000	94.472542
2978.000000	94.358624
2977.000000	94.240015
2976.000000	94.116922
2975.000000	93.988927
2974.000000	93.854725
2973.000000	93.712337
2972.000000	93.560429
2971.000000	93.399335
2970.000000	93.231203
2969.000000	93.059662
2968.000000	92.889127
2967.000000	92.723042
2966.000000	92.562588
2965.000000	92.408162
2964.000000	92.261830
2963.000000	92.127551
2962.000000	92.009057
2961.000000	91.909515
2960.000000	91.832935
2959.000000	91.783535
2958.000000	91.763038
2957.000000	91.769280
2956.000000	91.798513
2955.000000	91.847022
2954.000000	91.910391
2953.000000	91.982885
2952.000000	92.058410
2951.000000	92.131295
2950.000000	92.194516
2949.000000	92.239299
2948.000000	92.257599
2947.000000	92.245230
2946.000000	92.202275
2945.000000	92.131636
2944.000000	92.038226
2943.000000	91.926997
2942.000000	91.800147
2941.000000	91.655884
2940.000000	91.491941
2939.000000	91.310129
2938.000000	91.116731
2937.000000	90.919070
2936.000000	90.722144
2935.000000	90.528998
2934.000000	90.343068
2933.000000	90.169637
2932.000000	90.014358
2931.000000	89.879936
2930.000000	89.764698
2929.000000	89.664896
2928.000000	89.579058
2927.000000	89.509833
2926.000000	89.461884
2925.000000	89.438687
2924.000000	89.440696
2923.000000	89.465824
2922.000000	89.510993
2921.000000	89.574332
2920.000000	89.656611
2919.000000	89.760112
2918.000000	89.886369
2917.000000	90.035088
2916.000000	90.204934
2915.000000	90.393712
2914.000000	90.596630
2913.000000	90.805500
2912.000000	91.010917
2911.000000	91.206221
2910.000000	91.389210
2909.000000	91.560680
2908.000000	91.722041
2907.000000	91.874280
2906.000000	92.018920
2905.000000	92.159236
2904.000000	92.299720
2903.000000	92.443368
2902.000000	92.589691
2901.000000	92.736121
2900.000000	92.880549
2899.000000	93.022348
2898.000000	93.160722
2897.000000	93.293963
2896.000000	93.420809
2895.000000	93.541131
2894.000000	93.654702
2893.000000	93.760457
2892.000000	93.857801
2891.000000	93.947646
2890.000000	94.030810
2889.000000	94.105796
2888.000000	94.169030
2887.000000	94.217086
2886.000000	94.248532
2885.000000	94.264102
2884.000000	94.265722
2883.000000	94.254850
2882.000000	94.231024
2881.000000	94.192272
2880.000000	94.137176
2879.000000	94.066492
2878.000000	93.982870
2877.000000	93.890435
2876.000000	93.795255
2875.000000	93.705494
2874.000000	93.629795
2873.000000	93.574190
2872.000000	93.539982
2871.000000	93.523788
2870.000000	93.519263
2869.000000	93.519043
2868.000000	93.515616
2867.000000	93.501457
2866.000000	93.469946
2865.000000	93.417724
2864.000000	93.345795
2863.000000	93.257933
2862.000000	93.158196
2861.000000	93.050756
2860.000000	92.941281
2859.000000	92.836678
2858.000000	92.742857
2857.000000	92.663681
2856.000000	92.602339
2855.000000	92.562533
2854.000000	92.548987
2853.000000	92.567505
2852.000000	92.624700
2851.000000	92.726573
2850.000000	92.876123
2849.000000	93.071953
2848.000000	93.307699
2847.000000	93.571178
2846.000000	93.844610
2845.000000	94.109191
2844.000000	94.351419
2843.000000	94.566328
2842.000000	94.755087
2841.000000	94.920652
2840.000000	95.066198
2839.000000	95.194930
2838.000000	95.309246
2837.000000	95.409915
2836.000000	95.496709
2835.000000	95.569803
2834.000000	95.630724
2833.000000	95.682526
2832.000000	95.729111
2831.000000	95.773338
2830.000000	95.815485
2829.000000	95.854436
2828.000000	95.890013
2827.000000	95.922907
2826.000000	95.952705
2825.000000	95.978049
2824.000000	95.999483
2823.000000	96.020214
2822.000000	96.042942
2821.000000	96.067094
2820.000000	96.090071
2819.000000	96.110189
2818.000000	96.127614
2817.000000	96.143657
2816.000000	96.160068
2815.000000	96.178040
2814.000000	96.197132
2813.000000	96.216186
2812.000000	96.235718
2811.000000	96.257943
2810.000000	96.283565
2809.000000	96.310000
2808.000000	96.334117
2807.000000	96.355492
2806.000000	96.375599
2805.000000	96.394952
2804.000000	96.412661
2803.000000	96.428119
2802.000000	96.441532
2801.000000	96.453148
2800.000000	96.463226
2799.000000	96.472542
2798.000000	96.481912
2797.000000	96.491503
2796.000000	96.501323
2795.000000	96.511623
2794.000000	96.521817
2793.000000	96.529906
2792.000000	96.534550
2791.000000	96.537504
2790.000000	96.542704
2789.000000	96.552826
2788.000000	96.567671
2787.000000	96.585446
2786.000000	96.604216
2785.000000	96.621923
2784.000000	96.636381
2783.000000	96.646326
2782.000000	96.652393
2781.000000	96.656907
2780.000000	96.662665
2779.000000	96.671544
2778.000000	96.683478
2777.000000	96.696568
2776.000000	96.708443
2775.000000	96.717761
2774.000000	96.724582
2773.000000	96.729797
2772.000000	96.734458
2771.000000	96.739284
2770.000000	96.744300
2769.000000	96.748949
2768.000000	96.752658
2767.000000	96.755323
2766.000000	96.757570
2765.000000	96.760726
2764.000000	96.766059
2763.000000	96.773311
2762.000000	96.780353
2761.000000	96.785286
2760.000000	96.788847
2759.000000	96.793680
2758.000000	96.801067
2757.000000	96.809464
2756.000000	96.816619
2755.000000	96.822131
2754.000000	96.827252
2753.000000	96.832994
2752.000000	96.839100
2751.000000	96.844443
2750.000000	96.847886
2749.000000	96.849153
2748.000000	96.849253
2747.000000	96.849638
2746.000000	96.850836
2745.000000	96.852489
2744.000000	96.854736
2743.000000	96.858577
2742.000000	96.864481
2741.000000	96.871465
2740.000000	96.877989
2739.000000	96.882994
2738.000000	96.885733
2737.000000	96.885833
2736.000000	96.884503
2735.000000	96.884830
2734.000000	96.889457
2733.000000	96.897856
2732.000000	96.906637
2731.000000	96.912672
2730.000000	96.915624
2729.000000	96.917736
2728.000000	96.921608
2727.000000	96.928102
2726.000000	96.935956
2725.000000	96.943305
2724.000000	96.949544
2723.000000	96.955402
2722.000000	96.961279
2721.000000	96.966420
2720.000000	96.970306
2719.000000	96.974182
2718.000000	96.980141
2717.000000	96.988499
2716.000000	96.996705
2715.000000	97.001356
2714.000000	97.001373
2713.000000	96.999059
2712.000000	96.998058
2711.000000	97.000426
2710.000000	97.005745
2709.000000	97.012558
2708.000000	97.019799
2707.000000	97.026795
2706.000000	97.032875
2705.000000	97.037648
2704.000000	97.041094
2703.000000	97.043003
2702.000000	97.043131
2701.000000	97.042433
2700.000000	97.043072
2699.000000	97.046068
2698.000000	97.049787
2697.000000	97.052044
2696.000000	97.053014
2695.000000	97.054552
2694.000000	97.057107
2693.000000	97.059097
2692.000000	97.059317
2691.000000	97.058301
2690.000000	97.057030
2689.000000	97.055886
2688.000000	97.055435
2687.000000	97.056930
2686.000000	97.061100
2685.000000	97.066986
2684.000000	97.072391
2683.000000	97.075232
2682.000000	97.074766
2681.000000	97.072416
2680.000000	97.071183
2679.000000	97.073109
2678.000000	97.077244
2677.000000	97.080993
2676.000000	97.083154
2675.000000	97.084437
2674.000000	97.085407
2673.000000	97.085820
2672.000000	97.086177
2671.000000	97.087895
2670.000000	97.091083
2669.000000	97.093579
2668.000000	97.093263
2667.000000	97.090362
2666.000000	97.086701
2665.000000	97.083698
2664.000000	97.081985
2663.000000	97.082141
2662.000000	97.084612
2661.000000	97.089092
2660.000000	97.094481
2659.000000	97.099385
2658.000000	97.102689
2657.000000	97.104271
2656.000000	97.105386
2655.000000	97.107812
2654.000000	97.112512
2653.000000	97.119465
2652.000000	97.128189
2651.000000	97.137410
2650.000000	97.144876
2649.000000	97.149401
2648.000000	97.153188
2647.000000	97.160151
2646.000000	97.171164
2645.000000	97.182511
2644.000000	97.189934
2643.000000	97.192812
2642.000000	97.193593
2641.000000	97.194737
2640.000000	97.197525
2639.000000	97.202589
2638.000000	97.209651
2637.000000	97.216952
2636.000000	97.222312
2635.000000	97.225089
2634.000000	97.226712
2633.000000	97.229294
2632.000000	97.233824
2631.000000	97.239345
2630.000000	97.243971
2629.000000	97.247229
2628.000000	97.251177
2627.000000	97.258345
2626.000000	97.268674
2625.000000	97.279406
2624.000000	97.287764
2623.000000	97.292697
2622.000000	97.294434
2621.000000	97.294025
2620.000000	97.293414
2619.000000	97.294376
2618.000000	97.296951
2617.000000	97.300079
2616.000000	97.303631
2615.000000	97.308264
2614.000000	97.313564
2613.000000	97.318349
2612.000000	97.322857
2611.000000	97.328329
2610.000000	97.333996
2609.000000	97.336958
2608.000000	97.335939
2607.000000	97.333195
2606.000000	97.331682
2605.000000	97.332420
2604.000000	97.335619
2603.000000	97.342072
2602.000000	97.351555
2601.000000	97.361304
2600.000000	97.368075
2599.000000	97.371119
2598.000000	97.372303
2597.000000	97.374255
2596.000000	97.379019
2595.000000	97.386859
2594.000000	97.395117
2593.000000	97.399502
2592.000000	97.398202
2591.000000	97.394232
2590.000000	97.392513
2589.000000	97.394938
2588.000000	97.398801
2587.000000	97.399781
2586.000000	97.396212
2585.000000	97.390836
2584.000000	97.388390
2583.000000	97.390963
2582.000000	97.396349
2581.000000	97.401608
2580.000000	97.406970
2579.000000	97.414442
2578.000000	97.423499
2577.000000	97.430937
2576.000000	97.434808
2575.000000	97.436025
2574.000000	97.435772
2573.000000	97.433997
2572.000000	97.431208
2571.000000	97.429518
2570.000000	97.430706
2569.000000	97.434696
2568.000000	97.440392
2567.000000	97.446508
2566.000000	97.451454
2565.000000	97.454403
2564.000000	97.456934
2563.000000	97.461625
2562.000000	97.468483
2561.000000	97.474378
2560.000000	97.476489
2559.000000	97.475014
2558.000000	97.472592
2557.000000	97.472550
2556.000000	97.476956
2555.000000	97.484132
2554.000000	97.488664
2553.000000	97.486653
2552.000000	97.480641
2551.000000	97.476737
2550.000000	97.477222
2549.000000	97.479185
2548.000000	97.480031
2547.000000	97.480492
2546.000000	97.481845
2545.000000	97.483991
2544.000000	97.487332
2543.000000	97.492817
2542.000000	97.498695
2541.000000	97.500410
2540.000000	97.495354
2539.000000	97.484914
2538.000000	97.471196
2537.000000	97.455233
2536.000000	97.439937
2535.000000	97.430763
2534.000000	97.430319
2533.000000	97.434529
2532.000000	97.436231
2531.000000	97.431124
2530.000000	97.419024
2529.000000	97.402190
2528.000000	97.384478
2527.000000	97.369886
2526.000000	97.359550
2525.000000	97.351453
2524.000000	97.344293
2523.000000	97.339730
2522.000000	97.339565
2521.000000	97.342927
2520.000000	97.347879
2519.000000	97.353837
2518.000000	97.360205
2517.000000	97.364142
2516.000000	97.362099
2515.000000	97.353487
2514.000000	97.342110
2513.000000	97.334338
2512.000000	97.335406
2511.000000	97.345516
2510.000000	97.359174
2509.000000	97.370117
2508.000000	97.377207
2507.000000	97.383851
2506.000000	97.392264
2505.000000	97.401453
2504.000000	97.411111
2503.000000	97.423631
2502.000000	97.440333
2501.000000	97.458453
2500.000000	97.473978
2499.000000	97.485625
2498.000000	97.494560
2497.000000	97.502374
2496.000000	97.510728
2495.000000	97.520981
2494.000000	97.532332
2493.000000	97.542118
2492.000000	97.549593
2491.000000	97.557659
2490.000000	97.569157
2489.000000	97.582855
2488.000000	97.595022
2487.000000	97.603936
2486.000000	97.611072
2485.000000	97.618515
2484.000000	97.626541
2483.000000	97.633883
2482.000000	97.640008
2481.000000	97.647019
2480.000000	97.658191
2479.000000	97.673042
2478.000000	97.684871
2477.000000	97.686264
2476.000000	97.677318
2475.000000	97.666135
2474.000000	97.660457
2473.000000	97.660969
2472.000000	97.663415
2471.000000	97.664652
2470.000000	97.665415
2469.000000	97.669052
2468.000000	97.678781
2467.000000	97.694475
2466.000000	97.711034
2465.000000	97.721219
2464.000000	97.721503
2463.000000	97.714462
2462.000000	97.705459
2461.000000	97.698612
2460.000000	97.695805
2459.000000	97.697119
2458.000000	97.700583
2457.000000	97.702808
2456.000000	97.701375
2455.000000	97.696855
2454.000000	97.692599
2453.000000	97.693051
2452.000000	97.700905
2451.000000	97.714265
2450.000000	97.727144
2449.000000	97.734574
2448.000000	97.736778
2447.000000	97.736955
2446.000000	97.736204
2445.000000	97.733239
2444.000000	97.728189
2443.000000	97.723364
2442.000000	97.720433
2441.000000	97.719557
2440.000000	97.721147
2439.000000	97.725414
2438.000000	97.730014
2437.000000	97.731132
2436.000000	97.727642
2435.000000	97.721996
2434.000000	97.716932
2433.000000	97.713639
2432.000000	97.712834
2431.000000	97.714630
2430.000000	97.717076
2429.000000	97.717728
2428.000000	97.717200
2427.000000	97.718748
2426.000000	97.724001
2425.000000	97.731383
2424.000000	97.738546
2423.000000	97.743778
2422.000000	97.745472
2421.000000	97.743449
2420.000000	97.740834
2419.000000	97.741235
2418.000000	97.743735
2417.000000	97.744051
2416.000000	97.741236
2415.000000	97.739653
2414.000000	97.743203
2413.000000	97.750529
2412.000000	97.757233
2411.000000	97.760377
2410.000000	97.759936
2409.000000	97.758559
2408.000000	97.760884
2407.000000	97.770150
2406.000000	97.783657
2405.000000	97.793301
2404.000000	97.792363
2403.000000	97.781349
2402.000000	97.767294
2401.000000	97.758453
2400.000000	97.758765
2399.000000	97.764988
2398.000000	97.769608
2397.000000	97.768630
2396.000000	97.766067
2395.000000	97.768715
2394.000000	97.777367
2393.000000	97.786225
2392.000000	97.790246
2391.000000	97.789949
2390.000000	97.789007
2389.000000	97.790270
2388.000000	97.794959
2387.000000	97.801913
2386.000000	97.808189
2385.000000	97.812196
2384.000000	97.816482
2383.000000	97.825683
2382.000000	97.840122
2381.000000	97.855582
2380.000000	97.867358
2379.000000	97.871866
2378.000000	97.866010
2377.000000	97.849356
2376.000000	97.827941
2375.000000	97.810836
2374.000000	97.803133
2373.000000	97.804659
2372.000000	97.814749
2371.000000	97.831938
2370.000000	97.850289
2369.000000	97.862886
2368.000000	97.866025
2367.000000	97.859704
2366.000000	97.845802
2365.000000	97.829210
2364.000000	97.815956
2363.000000	97.804121
2362.000000	97.785803
2361.000000	97.762632
2360.000000	97.748643
2359.000000	97.754664
2358.000000	97.776924
2357.000000	97.802194
2356.000000	97.816202
2355.000000	97.808981
2354.000000	97.790643
2353.000000	97.779115
2352.000000	97.779638
2351.000000	97.783217
2350.000000	97.783424
2349.000000	97.779442
2348.000000	97.773727
2347.000000	97.771061
2346.000000	97.770924
2345.000000	97.764128
2344.000000	97.749373
2343.000000	97.739072
2342.000000	97.742315
2341.000000	97.755194
2340.000000	97.766883
2339.000000	97.769943
2338.000000	97.765187
2337.000000	97.757929
2336.000000	97.750120
2335.000000	97.743601
2334.000000	97.743179
2333.000000	97.752815
2332.000000	97.764241
2331.000000	97.768569
2330.000000	97.764318
2329.000000	97.757257
2328.000000	97.745051
2327.000000	97.724114
2326.000000	97.697496
2325.000000	97.677029
2324.000000	97.671744
2323.000000	97.681659
2322.000000	97.696140
2321.000000	97.703583
2320.000000	97.699411
2319.000000	97.690610
2318.000000	97.684720
2317.000000	97.685785
2316.000000	97.692633
2315.000000	97.705850
2314.000000	97.723231
2313.000000	97.741323
2312.000000	97.756211
2311.000000	97.770016
2310.000000	97.785322
2309.000000	97.801808
2308.000000	97.816172
2307.000000	97.827934
2306.000000	97.836882
2305.000000	97.840914
2304.000000	97.837578
2303.000000	97.829338
2302.000000	97.820756
2301.000000	97.814678
2300.000000	97.810900
2299.000000	97.809977
2298.000000	97.810509
2297.000000	97.809126
2296.000000	97.802033
2295.000000	97.791343
2294.000000	97.782672
2293.000000	97.779947
2292.000000	97.781689
2291.000000	97.784598
2290.000000	97.786891
2289.000000	97.788494
2288.000000	97.789017
2287.000000	97.786814
2286.000000	97.781003
2285.000000	97.774360
2284.000000	97.773847
2283.000000	97.784306
2282.000000	97.802808
2281.000000	97.820699
2280.000000	97.831872
2279.000000	97.835342
2278.000000	97.831593
2277.000000	97.822113
2276.000000	97.812607
2275.000000	97.810780
2274.000000	97.818637
2273.000000	97.831807
2272.000000	97.847318
2271.000000	97.867338
2270.000000	97.892715
2269.000000	97.918109
2268.000000	97.936162
2267.000000	97.943246
2266.000000	97.939552
2265.000000	97.928325
2264.000000	97.916278
2263.000000	97.909277
2262.000000	97.905893
2261.000000	97.899655
2260.000000	97.888509
2259.000000	97.876697
2258.000000	97.867552
2257.000000	97.861586
2256.000000	97.862728
2255.000000	97.877327
2254.000000	97.903286
2253.000000	97.928197
2252.000000	97.942701
2251.000000	97.949133
2250.000000	97.953143
2249.000000	97.954624
2248.000000	97.950608
2247.000000	97.940905
2246.000000	97.926494
2245.000000	97.909995
2244.000000	97.900811
2243.000000	97.910980
2242.000000	97.939660
2241.000000	97.968588
2240.000000	97.979273
2239.000000	97.970377
2238.000000	97.954066
2237.000000	97.942406
2236.000000	97.942093
2235.000000	97.955341
2234.000000	97.979133
2233.000000	98.007004
2232.000000	98.034808
2231.000000	98.059903
2230.000000	98.073727
2229.000000	98.065261
2228.000000	98.036897
2227.000000	98.007950
2226.000000	97.996749
2225.000000	98.005719
2224.000000	98.026976
2223.000000	98.052897
2222.000000	98.076342
2221.000000	98.090516
2220.000000	98.096066
2219.000000	98.100160
2218.000000	98.103327
2217.000000	98.097591
2216.000000	98.083655
2215.000000	98.077568
2214.000000	98.089972
2213.000000	98.108875
2212.000000	98.114789
2211.000000	98.106859
2210.000000	98.101626
2209.000000	98.109653
2208.000000	98.124481
2207.000000	98.133364
2206.000000	98.130484
2205.000000	98.118636
2204.000000	98.103924
2203.000000	98.090922
2202.000000	98.083140
2201.000000	98.087459
2200.000000	98.112544
2199.000000	98.156330
2198.000000	98.199577
2197.000000	98.221860
2196.000000	98.223087
2195.000000	98.218324
2194.000000	98.214435
2193.000000	98.206898
2192.000000	98.198387
2191.000000	98.200543
2190.000000	98.212628
2189.000000	98.218571
2188.000000	98.213036
2187.000000	98.212469
2186.000000	98.229187
2185.000000	98.252084
2184.000000	98.267124
2183.000000	98.281681
2182.000000	98.309045
2181.000000	98.339439
2180.000000	98.347792
2179.000000	98.327142
2178.000000	98.298698
2177.000000	98.290014
2176.000000	98.311043
2175.000000	98.347643
2174.000000	98.372153
2173.000000	98.364442
2172.000000	98.328290
2171.000000	98.284534
2170.000000	98.248727
2169.000000	98.220859
2168.000000	98.194709
2167.000000	98.168635
2166.000000	98.146538
2165.000000	98.136072
2164.000000	98.145310
2163.000000	98.172881
2162.000000	98.205907
2161.000000	98.240062
2160.000000	98.294607
2159.000000	98.383916
2158.000000	98.477297
2157.000000	98.525068
2156.000000	98.520604
2155.000000	98.496550
2154.000000	98.471914
2153.000000	98.440488
2152.000000	98.403970
2151.000000	98.382318
2150.000000	98.385794
2149.000000	98.399693
2148.000000	98.406172
2147.000000	98.401721
2146.000000	98.384822
2145.000000	98.346400
2144.000000	98.285775
2143.000000	98.220679
2142.000000	98.169995
2141.000000	98.137210
2140.000000	98.117853
2139.000000	98.112558
2138.000000	98.123276
2137.000000	98.144200
2136.000000	98.165367
2135.000000	98.180972
2134.000000	98.188571
2133.000000	98.185831
2132.000000	98.173390
2131.000000	98.156027
2130.000000	98.137789
2129.000000	98.119818
2128.000000	98.103450
2127.000000	98.090661
2126.000000	98.081156
2125.000000	98.073241
2124.000000	98.066655
2123.000000	98.059833
2122.000000	98.047239
2121.000000	98.026875
2120.000000	98.007999
2119.000000	98.001752
2118.000000	98.005228
2117.000000	98.004856
2116.000000	97.995900
2115.000000	97.987653
2114.000000	97.987142
2113.000000	97.988974
2112.000000	97.985278
2111.000000	97.975641
2110.000000	97.961698
2109.000000	97.941615
2108.000000	97.917039
2107.000000	97.898136
2106.000000	97.894434
2105.000000	97.904904
2104.000000	97.921425
2103.000000	97.937476
2102.000000	97.950136
2101.000000	97.958462
2100.000000	97.963569
2099.000000	97.966808
2098.000000	97.968477
2097.000000	97.972334
2096.000000	97.987657
2095.000000	98.016992
2094.000000	98.044902
2093.000000	98.051784
2092.000000	98.037962
2091.000000	98.020362
2090.000000	98.007129
2089.000000	97.991249
2088.000000	97.970779
2087.000000	97.958328
2086.000000	97.963097
2085.000000	97.977879
2084.000000	97.991769
2083.000000	98.003997
2082.000000	98.016351
2081.000000	98.023155
2080.000000	98.018915
2079.000000	98.006734
2078.000000	97.991527
2077.000000	97.974436
2076.000000	97.961587
2075.000000	97.966426
2074.000000	97.992366
2073.000000	98.023682
2072.000000	98.044319
2071.000000	98.056857
2070.000000	98.071639
2069.000000	98.085836
2068.000000	98.087014
2067.000000	98.072124
2066.000000	98.051945
2065.000000	98.040582
2064.000000	98.046907
2063.000000	98.070940
2062.000000	98.102551
2061.000000	98.127817
2060.000000	98.140933
2059.000000	98.145047
2058.000000	98.141741
2057.000000	98.133079
2056.000000	98.134577
2055.000000	98.165608
2054.000000	98.217216
2053.000000	98.249627
2052.000000	98.237515
2051.000000	98.202640
2050.000000	98.187918
2049.000000	98.209252
2048.000000	98.246077
2047.000000	98.273652
2046.000000	98.285032
2045.000000	98.282511
2044.000000	98.269456
2043.000000	98.253141
2042.000000	98.242760
2041.000000	98.243343
2040.000000	98.255294
2039.000000	98.274429
2038.000000	98.290208
2037.000000	98.294650
2036.000000	98.296347
2035.000000	98.309779
2034.000000	98.327431
2033.000000	98.327564
2032.000000	98.318229
2031.000000	98.340623
2030.000000	98.409598
2029.000000	98.481132
2028.000000	98.502514
2027.000000	98.476817
2026.000000	98.449811
2025.000000	98.450875
2024.000000	98.468582
2023.000000	98.473901
2022.000000	98.450013
2021.000000	98.405197
2020.000000	98.369662
2019.000000	98.370378
2018.000000	98.400285
2017.000000	98.421137
2016.000000	98.405637
2015.000000	98.364086
2014.000000	98.323397
2013.000000	98.302684
2012.000000	98.313796
2011.000000	98.361513
2010.000000	98.430761
2009.000000	98.489776
2008.000000	98.517990
2007.000000	98.519207
2006.000000	98.500026
2005.000000	98.459499
2004.000000	98.406993
2003.000000	98.364328
2002.000000	98.341014
2001.000000	98.323334
2000.000000	98.299117
1999.000000	98.274696
1998.000000	98.262315
1997.000000	98.267036
1996.000000	98.289255
1995.000000	98.324753
1994.000000	98.356378
1993.000000	98.362834
1992.000000	98.345182
1991.000000	98.326870
1990.000000	98.317038
1989.000000	98.298192
1988.000000	98.259896
1987.000000	98.221109
1986.000000	98.205930
1985.000000	98.215319
1984.000000	98.234338
1983.000000	98.250023
1982.000000	98.251930
1981.000000	98.233553
1980.000000	98.211249
1979.000000	98.219995
1978.000000	98.274171
1977.000000	98.346536
1976.000000	98.402007
1975.000000	98.433836
1974.000000	98.449210
1973.000000	98.450453
1972.000000	98.446691
1971.000000	98.454035
1970.000000	98.468133
1969.000000	98.462057
1968.000000	98.426327
1967.000000	98.388286
1966.000000	98.374871
1965.000000	98.381404
1964.000000	98.393945
1963.000000	98.415781
1962.000000	98.452643
1961.000000	98.492136
1960.000000	98.515433
1959.000000	98.514871
1958.000000	98.488699
1957.000000	98.437529
1956.000000	98.377274
1955.000000	98.335767
1954.000000	98.323995
1953.000000	98.327373
1952.000000	98.330726
1951.000000	98.337583
1950.000000	98.353140
1949.000000	98.366753
1948.000000	98.368619
1947.000000	98.365430
1946.000000	98.364768
1945.000000	98.359800
1944.000000	98.344383
1943.000000	98.330995
1942.000000	98.335531
1941.000000	98.354048
1940.000000	98.371230
1939.000000	98.379239
1938.000000	98.376615
1937.000000	98.362485
1936.000000	98.341617
1935.000000	98.325114
1934.000000	98.316950
1933.000000	98.309056
1932.000000	98.294235
1931.000000	98.279204
1930.000000	98.273252
1929.000000	98.274165
1928.000000	98.280142
1927.000000	98.295288
1926.000000	98.321272
1925.000000	98.345644
1924.000000	98.356969
1923.000000	98.363708
1922.000000	98.377083
1921.000000	98.388062
1920.000000	98.378230
1919.000000	98.347367
1918.000000	98.318682
1917.000000	98.309933
1916.000000	98.314571
1915.000000	98.317303
1914.000000	98.312052
1913.000000	98.303000
1912.000000	98.296018
1911.000000	98.294571
1910.000000	98.297430
1909.000000	98.298906
1908.000000	98.296412
1907.000000	98.290815
1906.000000	98.286757
1905.000000	98.285942
1904.000000	98.287938
1903.000000	98.294614
1902.000000	98.303000
1901.000000	98.305721
1900.000000	98.303440
1899.000000	98.305121
1898.000000	98.316947
1897.000000	98.332806
1896.000000	98.342795
1895.000000	98.347909
1894.000000	98.355274
1893.000000	98.365780
1892.000000	98.373989
1891.000000	98.377334
1890.000000	98.378437
1889.000000	98.379213
1888.000000	98.380234
1887.000000	98.383349
1886.000000	98.388209
1885.000000	98.391984
1884.000000	98.393869
1883.000000	98.396204
1882.000000	98.397859
1881.000000	98.393774
1880.000000	98.384452
1879.000000	98.375245
1878.000000	98.369385
1877.000000	98.365718
1876.000000	98.361865
1875.000000	98.360817
1874.000000	98.368287
1873.000000	98.383983
1872.000000	98.402582
1871.000000	98.421549
1870.000000	98.444047
1869.000000	98.471533
1868.000000	98.494353
1867.000000	98.499078
1866.000000	98.480828
1865.000000	98.445529
1864.000000	98.408675
1863.000000	98.386304
1862.000000	98.380498
1861.000000	98.380169
1860.000000	98.378532
1859.000000	98.380290
1858.000000	98.389898
1857.000000	98.402908
1856.000000	98.412923
1855.000000	98.419027
1854.000000	98.422524
1853.000000	98.420579
1852.000000	98.416449
1851.000000	98.413104
1850.000000	98.410227
1849.000000	98.411591
1848.000000	98.423320
1847.000000	98.443298
1846.000000	98.456243
1845.000000	98.452689
1844.000000	98.445282
1843.000000	98.452596
1842.000000	98.468615
1841.000000	98.470588
1840.000000	98.452841
1839.000000	98.430952
1838.000000	98.419866
1837.000000	98.413483
1836.000000	98.402565
1835.000000	98.396699
1834.000000	98.407103
1833.000000	98.425879
1832.000000	98.439159
1831.000000	98.445832
1830.000000	98.459392
1829.000000	98.479925
1828.000000	98.488521
1827.000000	98.475192
1826.000000	98.449868
1825.000000	98.434170
1824.000000	98.435876
1823.000000	98.442358
1822.000000	98.439879
1821.000000	98.428543
1820.000000	98.418889
1819.000000	98.416464
1818.000000	98.418389
1817.000000	98.417890
1816.000000	98.415415
1815.000000	98.419444
1814.000000	98.429764
1813.000000	98.439268
1812.000000	98.441962
1811.000000	98.440315
1810.000000	98.438271
1809.000000	98.428160
1808.000000	98.402680
1807.000000	98.367523
1806.000000	98.333329
1805.000000	98.302936
1804.000000	98.271381
1803.000000	98.236521
1802.000000	98.196769
1801.000000	98.156023
1800.000000	98.118034
1799.000000	98.085292
1798.000000	98.060876
1797.000000	98.046400
1796.000000	98.042366
1795.000000	98.047079
1794.000000	98.057206
1793.000000	98.082006
1792.000000	98.132979
1791.000000	98.199536
1790.000000	98.257678
1789.000000	98.293406
1788.000000	98.308184
1787.000000	98.314464
1786.000000	98.325018
1785.000000	98.342911
1784.000000	98.364826
1783.000000	98.390086
1782.000000	98.409441
1781.000000	98.420676
1780.000000	98.426694
1779.000000	98.430697
1778.000000	98.435963
1777.000000	98.443746
1776.000000	98.459921
1775.000000	98.480026
1774.000000	98.486540
1773.000000	98.475614
1772.000000	98.464723
1771.000000	98.455439
1770.000000	98.422404
1769.000000	98.342928
1768.000000	98.228912
1767.000000	98.129726
1766.000000	98.070894
1765.000000	98.021619
1764.000000	97.933939
1763.000000	97.793189
1762.000000	97.616471
1761.000000	97.425018
1760.000000	97.214873
1759.000000	96.962081
1758.000000	96.628148
1757.000000	96.193713
1756.000000	95.711251
1755.000000	95.254373
1754.000000	94.817493
1753.000000	94.324615
1752.000000	93.724220
1751.000000	93.057785
1750.000000	92.417399
1749.000000	91.825928
1748.000000	91.272219
1747.000000	90.781730
1746.000000	90.365814
1745.000000	90.005535
1744.000000	89.695793
1743.000000	89.462426
1742.000000	89.313419
1741.000000	89.222836
1740.000000	89.191142
1739.000000	89.256478
1738.000000	89.403009
1737.000000	89.567465
1736.000000	89.740111
1735.000000	90.019016
1734.000000	90.498949
1733.000000	91.041916
1732.000000	91.490771
1731.000000	91.879132
1730.000000	92.277586
1729.000000	92.698814
1728.000000	93.121604
1727.000000	93.531482
1726.000000	93.924022
1725.000000	94.304147
1724.000000	94.674039
1723.000000	95.030919
1722.000000	95.358170
1721.000000	95.633822
1720.000000	95.864553
1719.000000	96.094182
1718.000000	96.363131
1717.000000	96.622766
1716.000000	96.792468
1715.000000	96.876322
1714.000000	96.912418
1713.000000	96.921647
1712.000000	96.920560
1711.000000	96.924575
1710.000000	96.933797
1709.000000	96.937920
1708.000000	96.933064
1707.000000	96.914588
1706.000000	96.883174
1705.000000	96.852952
1704.000000	96.841635
1703.000000	96.829523
1702.000000	96.751076
1701.000000	96.572830
1700.000000	96.403172
1699.000000	96.363991
1698.000000	96.359359
1697.000000	96.235386
1696.000000	95.977414
1695.000000	95.721137
1694.000000	95.559768
1693.000000	95.442524
1692.000000	95.308858
1691.000000	95.163630
1690.000000	95.032641
1689.000000	94.928140
1688.000000	94.857354
1687.000000	94.804083
1686.000000	94.719515
1685.000000	94.548293
1684.000000	94.319372
1683.000000	94.133023
1682.000000	93.982911
1681.000000	93.810263
1680.000000	93.616118
1679.000000	93.450199
1678.000000	93.318315
1677.000000	93.166505
1676.000000	92.956277
1675.000000	92.738322
1674.000000	92.585007
1673.000000	92.482036
1672.000000	92.362095
1671.000000	92.192042
1670.000000	91.976911
1669.000000	91.738857
1668.000000	91.518946
1667.000000	91.345846
1666.000000	91.202946
1665.000000	91.046117
1664.000000	90.842163
1663.000000	90.608702
1662.000000	90.388029
1661.000000	90.194641
1660.000000	90.015080
1659.000000	89.844235
1658.000000	89.702081
1657.000000	89.608177
1656.000000	89.549801
1655.000000	89.465925
1654.000000	89.286882
1653.000000	89.024567
1652.000000	88.846146
1651.000000	88.810430
1650.000000	88.819177
1649.000000	88.793298
1648.000000	88.731884
1647.000000	88.666217
1646.000000	88.628186
1645.000000	88.611334
1644.000000	88.606484
1643.000000	88.614016
1642.000000	88.631272
1641.000000	88.662687
1640.000000	88.721445
1639.000000	88.807829
1638.000000	88.901592
1637.000000	88.968886
1636.000000	89.003657
1635.000000	89.027110
1634.000000	89.064345
1633.000000	89.113767
1632.000000	89.161231
1631.000000	89.213780
1630.000000	89.286568
1629.000000	89.387774
1628.000000	89.517038
1627.000000	89.665467
1626.000000	89.814401
1625.000000	89.954180
1624.000000	90.095211
1623.000000	90.256189
1622.000000	90.430417
1621.000000	90.599315
1620.000000	90.758548
1619.000000	90.909735
1618.000000	91.062532
1617.000000	91.234493
1616.000000	91.423600
1615.000000	91.595579
1614.000000	91.730344
1613.000000	91.838344
1612.000000	91.946380
1611.000000	92.075701
1610.000000	92.219915
1609.000000	92.361093
1608.000000	92.491975
1607.000000	92.613942
1606.000000	92.721651
1605.000000	92.815944
1604.000000	92.905465
1603.000000	92.988913
1602.000000	93.057402
1601.000000	93.109105
1600.000000	93.153373
1599.000000	93.197446
1598.000000	93.240118
1597.000000	93.280434
1596.000000	93.319659
1595.000000	93.354926
1594.000000	93.379817
1593.000000	93.395468
1592.000000	93.409517
1591.000000	93.422383
1590.000000	93.424955
1589.000000	93.413359
1588.000000	93.394103
1587.000000	93.371570
1586.000000	93.342975
1585.000000	93.305548
1584.000000	93.267042
1583.000000	93.225425
1582.000000	93.174360
1581.000000	93.126438
1580.000000	93.103256
1579.000000	93.099017
1578.000000	93.081330
1577.000000	93.026365
1576.000000	92.946999
1575.000000	92.878510
1574.000000	92.828431
1573.000000	92.781537
1572.000000	92.722029
1571.000000	92.640552
1570.000000	92.540747
1569.000000	92.441431
1568.000000	92.362783
1567.000000	92.288798
1566.000000	92.191209
1565.000000	92.072043
1564.000000	91.976865
1563.000000	91.934408
1562.000000	91.921080
1561.000000	91.882327
1560.000000	91.760500
1559.000000	91.534299
1558.000000	91.286764
1557.000000	91.093343
1556.000000	90.920940
1555.000000	90.716735
1554.000000	90.496151
1553.000000	90.309538
1552.000000	90.164325
1551.000000	90.017357
1550.000000	89.850279
1549.000000	89.686181
1548.000000	89.555800
1547.000000	89.453576
1546.000000	89.358775
1545.000000	89.275626
1544.000000	89.226304
1543.000000	89.208591
1542.000000	89.191052
1541.000000	89.133933
1540.000000	89.028593
1539.000000	88.914449
1538.000000	88.840112
1537.000000	88.811675
1536.000000	88.797299
1535.000000	88.782383
1534.000000	88.771788
1533.000000	88.779462
1532.000000	88.799767
1531.000000	88.818561
1530.000000	88.832181
1529.000000	88.841247
1528.000000	88.853964
1527.000000	88.879740
1526.000000	88.917818
1525.000000	88.964869
1524.000000	89.014308
1523.000000	89.048682
1522.000000	89.052897
1521.000000	89.032066
1520.000000	89.015206
1519.000000	89.009608
1518.000000	88.988280
1517.000000	88.940996
1516.000000	88.894630
1515.000000	88.876124
1514.000000	88.875025
1513.000000	88.879057
1512.000000	88.906446
1511.000000	88.987252
1510.000000	89.111715
1509.000000	89.237823
1508.000000	89.333727
1507.000000	89.396750
1506.000000	89.393387
1505.000000	89.335712
1504.000000	89.293140
1503.000000	89.269388
1502.000000	89.251239
1501.000000	89.235633
1500.000000	89.229756
1499.000000	89.238790
1498.000000	89.245729
1497.000000	89.221439
1496.000000	89.167977
1495.000000	89.127399
1494.000000	89.110981
1493.000000	89.092882
1492.000000	89.057976
1491.000000	89.018709
1490.000000	88.979110
1489.000000	88.910870
1488.000000	88.800076
1487.000000	88.670629
1486.000000	88.539056
1485.000000	88.399722
1484.000000	88.256824
1483.000000	88.109757
1482.000000	87.947774
1481.000000	87.764377
1480.000000	87.573355
1479.000000	87.386346
1478.000000	87.190743
1477.000000	86.975613
1476.000000	86.757090
1475.000000	86.549887
1474.000000	86.305361
1473.000000	85.958051
1472.000000	85.538922
1471.000000	85.153369
1470.000000	84.830684
1469.000000	84.539517
1468.000000	84.268086
1467.000000	84.025672
1466.000000	83.803051
1465.000000	83.586428
1464.000000	83.395240
1463.000000	83.250284
1462.000000	83.139147
1461.000000	83.036893
1460.000000	82.935685
1459.000000	82.817871
1458.000000	82.626752
1457.000000	82.329446
1456.000000	82.042530
1455.000000	81.865378
1454.000000	81.741526
1453.000000	81.610103
1452.000000	81.479420
1451.000000	81.375774
1450.000000	81.290099
1449.000000	81.193629
1448.000000	81.086778
1447.000000	80.995262
1446.000000	80.913216
1445.000000	80.823690
1444.000000	80.725412
1443.000000	80.622482
1442.000000	80.514664
1441.000000	80.403379
1440.000000	80.297650
1439.000000	80.189499
1438.000000	80.047373
1437.000000	79.853233
1436.000000	79.661418
1435.000000	79.535908
1434.000000	79.454249
1433.000000	79.369605
1432.000000	79.276756
1431.000000	79.187238
1430.000000	79.084305
1429.000000	78.939200
1428.000000	78.763573
1427.000000	78.595851
1426.000000	78.443533
1425.000000	78.307419
1424.000000	78.213378
1423.000000	78.174682
1422.000000	78.155170
1421.000000	78.110497
1420.000000	78.043067
1419.000000	77.990590
1418.000000	77.959639
1417.000000	77.929546
1416.000000	77.911164
1415.000000	77.926959
1414.000000	77.977380
1413.000000	78.054562
1412.000000	78.163235
1411.000000	78.307091
1410.000000	78.469766
1409.000000	78.633366
1408.000000	78.801000
1407.000000	78.984395
1406.000000	79.177354
1405.000000	79.369769
1404.000000	79.560711
1403.000000	79.740829
1402.000000	79.892138
1401.000000	80.012373
1400.000000	80.126267
1399.000000	80.253957
1398.000000	80.380270
1397.000000	80.485469
1396.000000	80.580649
1395.000000	80.686756
1394.000000	80.799767
1393.000000	80.911791
1392.000000	81.031261
1391.000000	81.163638
1390.000000	81.303964
1389.000000	81.453842
1388.000000	81.625716
1387.000000	81.817159
1386.000000	81.997958
1385.000000	82.151684
1384.000000	82.293757
1383.000000	82.440384
1382.000000	82.594241
1381.000000	82.755655
1380.000000	82.934958
1379.000000	83.139738
1378.000000	83.363201
1377.000000	83.598400
1376.000000	83.851197
1375.000000	84.123780
1374.000000	84.392523
1373.000000	84.628557
1372.000000	84.829567
1371.000000	85.009180
1370.000000	85.175463
1369.000000	85.337869
1368.000000	85.504601
1367.000000	85.669835
1366.000000	85.823209
1365.000000	85.968966
1364.000000	86.120187
1363.000000	86.272543
1362.000000	86.401417
1361.000000	86.496959
1360.000000	86.574518
1359.000000	86.646577
1358.000000	86.714889
1357.000000	86.785246
1356.000000	86.866151
1355.000000	86.954914
1354.000000	87.041347
1353.000000	87.124424
1352.000000	87.209444
1351.000000	87.295614
1350.000000	87.374544
1349.000000	87.444678
1348.000000	87.507451
1347.000000	87.555233
1346.000000	87.578455
1345.000000	87.581032
1344.000000	87.575463
1343.000000	87.564977
1342.000000	87.543470
1341.000000	87.508342
1340.000000	87.460946
1339.000000	87.399131
1338.000000	87.325358
1337.000000	87.257742
1336.000000	87.216588
1335.000000	87.207241
1334.000000	87.225512
1333.000000	87.272010
1332.000000	87.348518
1331.000000	87.446113
1330.000000	87.550205
1329.000000	87.655736
1328.000000	87.765036
1327.000000	87.874528
1326.000000	87.975888
1325.000000	88.068202
1324.000000	88.155458
1323.000000	88.236249
1322.000000	88.308356
1321.000000	88.378209
1320.000000	88.454113
1319.000000	88.534004
1318.000000	88.611396
1317.000000	88.688740
1316.000000	88.772870
1315.000000	88.863232
1314.000000	88.955832
1313.000000	89.051844
1312.000000	89.151306
1311.000000	89.246666
1310.000000	89.333522
1309.000000	89.419915
1308.000000	89.513670
1307.000000	89.610127
1306.000000	89.701871
1305.000000	89.792183
1304.000000	89.885898
1303.000000	89.977751
1302.000000	90.063017
1301.000000	90.149784
1300.000000	90.246893
1299.000000	90.348136
1298.000000	90.442056
1297.000000	90.527914
1296.000000	90.609181
1295.000000	90.679901
1294.000000	90.732797
1293.000000	90.772505
1292.000000	90.807550
1291.000000	90.837340
1290.000000	90.858117
1289.000000	90.873852
1288.000000	90.889379
1287.000000	90.901649
1286.000000	90.908829
1285.000000	90.918127
1284.000000	90.933839
1283.000000	90.948476
1282.000000	90.956010
1281.000000	90.962375
1280.000000	90.970505
1279.000000	90.967302
1278.000000	90.939449
1277.000000	90.890947
1276.000000	90.832142
1275.000000	90.760537
1274.000000	90.667081
1273.000000	90.551587
1272.000000	90.417905
1271.000000	90.263039
1270.000000	90.083054
1269.000000	89.883599
1268.000000	89.673237
1267.000000	89.452572
1266.000000	89.220710
1265.000000	88.984192
1264.000000	88.750466
1263.000000	88.519721
1262.000000	88.291876
1261.000000	88.073843
1260.000000	87.870482
1259.000000	87.676258
1258.000000	87.486670
1257.000000	87.312875
1256.000000	87.173511
1255.000000	87.077618
1254.000000	87.021723
1253.000000	86.996060
1252.000000	86.986108
1251.000000	86.972812
1250.000000	86.943584
1249.000000	86.900809
1248.000000	86.852321
1247.000000	86.799313
1246.000000	86.740763
1245.000000	86.682288
1244.000000	86.631083
1243.000000	86.587831
1242.000000	86.552916
1241.000000	86.534276
1240.000000	86.539716
1239.000000	86.567556
1238.000000	86.613023
1237.000000	86.679131
1236.000000	86.770134
1235.000000	86.880612
1234.000000	87.002637
1233.000000	87.137104
1232.000000	87.288855
1231.000000	87.456297
1230.000000	87.637771
1229.000000	87.842560
1228.000000	88.080631
1227.000000	88.347316
1226.000000	88.628695
1225.000000	88.916013
1224.000000	89.203196
1223.000000	89.477229
1222.000000	89.726214
1221.000000	89.950927
1220.000000	90.156261
1219.000000	90.337607
1218.000000	90.489798
1217.000000	90.620222
1216.000000	90.739388
1215.000000	90.846674
1214.000000	90.936312
1213.000000	91.010854
1212.000000	91.074539
1211.000000	91.121831
1210.000000	91.146436
1209.000000	91.153091
1208.000000	91.149792
1207.000000	91.136050
1206.000000	91.109987
1205.000000	91.078854
1204.000000	91.049981
1203.000000	91.020247
1202.000000	90.985049
1201.000000	90.949196
1200.000000	90.918356
1199.000000	90.887914
1198.000000	90.851286
1197.000000	90.810861
1196.000000	90.770344
1195.000000	90.725336
1194.000000	90.671648
1193.000000	90.614274
1192.000000	90.558087
1191.000000	90.498331
1190.000000	90.430233
1189.000000	90.357783
1188.000000	90.283017
1187.000000	90.196867
1186.000000	90.091199
1185.000000	89.971079
1184.000000	89.843681
1183.000000	89.705082
1182.000000	89.549360
1181.000000	89.381029
1180.000000	89.207856
1179.000000	89.029224
1178.000000	88.843290
1177.000000	88.656932
1176.000000	88.476909
1175.000000	88.299731
1174.000000	88.120652
1173.000000	87.945457
1172.000000	87.782531
1171.000000	87.630521
1170.000000	87.483605
1169.000000	87.342686
1168.000000	87.212000
1167.000000	87.090753
1166.000000	86.979341
1165.000000	86.886879
1164.000000	86.822891
1163.000000	86.787567
1162.000000	86.777534
1161.000000	86.796783
1160.000000	86.850959
1159.000000	86.937702
1158.000000	87.053877
1157.000000	87.203232
1156.000000	87.389004
1155.000000	87.604496
1154.000000	87.842359
1153.000000	88.106993
1152.000000	88.403374
1151.000000	88.722786
1150.000000	89.051140
1149.000000	89.384453
1148.000000	89.724591
1147.000000	90.067476
1146.000000	90.409039
1145.000000	90.752644
1144.000000	91.097550
1143.000000	91.429731
1142.000000	91.737753
1141.000000	92.026514
1140.000000	92.302302
1139.000000	92.557962
1138.000000	92.784942
1137.000000	92.988091
1136.000000	93.173131
1135.000000	93.332718
1134.000000	93.460652
1133.000000	93.564368
1132.000000	93.651336
1131.000000	93.715879
1130.000000	93.753165
1129.000000	93.773423
1128.000000	93.787167
1127.000000	93.791292
1126.000000	93.781355
1125.000000	93.762543
1124.000000	93.737692
1123.000000	93.698972
1122.000000	93.643721
1121.000000	93.581568
1120.000000	93.512590
1119.000000	93.417253
1118.000000	93.279270
1117.000000	93.102940
1116.000000	92.896080
1115.000000	92.654929
1114.000000	92.381959
1113.000000	92.100527
1112.000000	91.838299
1111.000000	91.609928
1110.000000	91.426770
1109.000000	91.304139
1108.000000	91.245404
1107.000000	91.232687
1106.000000	91.245383
1105.000000	91.276278
1104.000000	91.317209
1103.000000	91.348550
1102.000000	91.356822
1101.000000	91.346300
1100.000000	91.320895
1099.000000	91.270571
1098.000000	91.191791
1097.000000	91.101381
1096.000000	91.016469
1095.000000	90.937701
1094.000000	90.865958
1093.000000	90.817262
1092.000000	90.806742
1091.000000	90.833615
1090.000000	90.895992
1089.000000	91.000385
1088.000000	91.142223
1087.000000	91.298204
1086.000000	91.453812
1085.000000	91.621971
1084.000000	91.815680
1083.000000	92.021897
1082.000000	92.220818
1081.000000	92.410420
1080.000000	92.592883
1079.000000	92.756863
1078.000000	92.895883
1077.000000	93.024513
1076.000000	93.155869
1075.000000	93.280051
1074.000000	93.384185
1073.000000	93.474540
1072.000000	93.558241
1071.000000	93.624449
1070.000000	93.662543
1069.000000	93.680828
1068.000000	93.688662
1067.000000	93.679735
1066.000000	93.652181
1065.000000	93.624171
1064.000000	93.609862
1063.000000	93.600225
1062.000000	93.585509
1061.000000	93.576635
1060.000000	93.584934
1059.000000	93.601541
1058.000000	93.616458
1057.000000	93.638217
1056.000000	93.674863
1055.000000	93.715332
1054.000000	93.750769
1053.000000	93.794127
1052.000000	93.857761
1051.000000	93.928781
1050.000000	93.988862
1049.000000	94.039787
1048.000000	94.088907
1047.000000	94.130219
1046.000000	94.159404
1045.000000	94.185730
1044.000000	94.209686
1043.000000	94.212104
1042.000000	94.182753
1041.000000	94.138643
1040.000000	94.094681
1039.000000	94.038720
1038.000000	93.956126
1037.000000	93.857301
1036.000000	93.760542
1035.000000	93.668287
1034.000000	93.579518
1033.000000	93.504390
1032.000000	93.446429
1031.000000	93.390852
1030.000000	93.330729
1029.000000	93.284996
1028.000000	93.270512
1027.000000	93.276364
1026.000000	93.286364
1025.000000	93.304976
1024.000000	93.340558
1023.000000	93.382660
1022.000000	93.419324
1021.000000	93.458357
1020.000000	93.509079
1019.000000	93.562309
1018.000000	93.608817
1017.000000	93.659451
1016.000000	93.725557
1015.000000	93.798783
1014.000000	93.870535
1013.000000	93.951980
1012.000000	94.053299
1011.000000	94.162982
1010.000000	94.267773
1009.000000	94.374264
1008.000000	94.489812
1007.000000	94.601967
1006.000000	94.698283
1005.000000	94.786650
1004.000000	94.875313
1003.000000	94.952176
1002.000000	95.006842
1001.000000	95.053194
1000.000000	95.108361
999.000000	95.165651
998.000000	95.210153
997.000000	95.244212
996.000000	95.276144
995.000000	95.301295
994.000000	95.314430
993.000000	95.325224
992.000000	95.342023
991.000000	95.356475
990.000000	95.361369
989.000000	95.366232
988.000000	95.377223
987.000000	95.381492
986.000000	95.369551
985.000000	95.354531
984.000000	95.349203
983.000000	95.342848
982.000000	95.321300
981.000000	95.291182
980.000000	95.264418
979.000000	95.235233
978.000000	95.193143
977.000000	95.142490
976.000000	95.090986
975.000000	95.034947
974.000000	94.973760
973.000000	94.921560
972.000000	94.887122
971.000000	94.858900
970.000000	94.826993
969.000000	94.802280
968.000000	94.796899
967.000000	94.804043
966.000000	94.814924
965.000000	94.837917
964.000000	94.881241
963.000000	94.934541
962.000000	94.985131
961.000000	95.037601
960.000000	95.099763
959.000000	95.166038
958.000000	95.231783
957.000000	95.306790
956.000000	95.398618
955.000000	95.499053
954.000000	95.601639
953.000000	95.713174
952.000000	95.833273
951.000000	95.943236
950.000000	96.032651
949.000000	96.115784
948.000000	96.205630
947.000000	96.292750
946.000000	96.366726
945.000000	96.435382
944.000000	96.505169
943.000000	96.565185
942.000000	96.609223
941.000000	96.651315
940.000000	96.700263
939.000000	96.742816
938.000000	96.770548
937.000000	96.801138
936.000000	96.851429
935.000000	96.911979
934.000000	96.967681
933.000000	97.021925
932.000000	97.079876
931.000000	97.129723
930.000000	97.162128
929.000000	97.188166
928.000000	97.219646
927.000000	97.251694
926.000000	97.282240
925.000000	97.324660
924.000000	97.383127
923.000000	97.438195
922.000000	97.477242
921.000000	97.515461
920.000000	97.567797
919.000000	97.623807
918.000000	97.670693
917.000000	97.717516
916.000000	97.774656
915.000000	97.832722
914.000000	97.881825
913.000000	97.930040
912.000000	97.982678
911.000000	98.027755
910.000000	98.061111
909.000000	98.101517
908.000000	98.159373
907.000000	98.215748
906.000000	98.253184
905.000000	98.281346
904.000000	98.311434
903.000000	98.331864
902.000000	98.333931
901.000000	98.335475
900.000000	98.355510
899.000000	98.387106
898.000000	98.417391
897.000000	98.449060
896.000000	98.482591
895.000000	98.502956
894.000000	98.505557
893.000000	98.509107
892.000000	98.520496
891.000000	98.512432
890.000000	98.450436
889.000000	98.309223
888.000000	98.044345
887.000000	97.589303
886.000000	96.923834
885.000000	96.120972
884.000000	95.291286
883.000000	94.495087
882.000000	93.716027
881.000000	92.893852
880.000000	91.965470
879.000000	90.912835
878.000000	89.803530
877.000000	88.772360
876.000000	87.944270
875.000000	87.391564
874.000000	87.170369
873.000000	87.341946
872.000000	87.927715
871.000000	88.854619
870.000000	89.978489
869.000000	91.152059
868.000000	92.253180
867.000000	93.194075
866.000000	93.948360
865.000000	94.556704
864.000000	95.070210
863.000000	95.504059
862.000000	95.858874
861.000000	96.154683
860.000000	96.412283
859.000000	96.628740
858.000000	96.803465
857.000000	96.959183
856.000000	97.109491
855.000000	97.235776
854.000000	97.323670
853.000000	97.389451
852.000000	97.437161
851.000000	97.427898
850.000000	97.338362
849.000000	97.223267
848.000000	97.175561
847.000000	97.236167
846.000000	97.373782
845.000000	97.534263
844.000000	97.675439
843.000000	97.772783
842.000000	97.828763
841.000000	97.869762
840.000000	97.911774
839.000000	97.942583
838.000000	97.951815
837.000000	97.953550
836.000000	97.959042
835.000000	97.956452
834.000000	97.940313
833.000000	97.932497
832.000000	97.947680
831.000000	97.967715
830.000000	97.977760
829.000000	97.998947
828.000000	98.053981
827.000000	98.126778
826.000000	98.189052
825.000000	98.240067
824.000000	98.288285
823.000000	98.322240
822.000000	98.334338
821.000000	98.344632
820.000000	98.369766
819.000000	98.395617
818.000000	98.406805
817.000000	98.414475
816.000000	98.430244
815.000000	98.442478
814.000000	98.443102
813.000000	98.449022
812.000000	98.471427
811.000000	98.492325
810.000000	98.495347
809.000000	98.490858
808.000000	98.487408
807.000000	98.470649
806.000000	98.434887
805.000000	98.402721
804.000000	98.387805
803.000000	98.370993
802.000000	98.338486
801.000000	98.308645
800.000000	98.294576
799.000000	98.275354
798.000000	98.233190
797.000000	98.185048
796.000000	98.149474
795.000000	98.116233
794.000000	98.076189
793.000000	98.046290
792.000000	98.036581
791.000000	98.025880
790.000000	97.997592
789.000000	97.966969
788.000000	97.947223
787.000000	97.923160
786.000000	97.885082
785.000000	97.854244
784.000000	97.846576
783.000000	97.843560
782.000000	97.826093
781.000000	97.804804
780.000000	97.790127
779.000000	97.766008
778.000000	97.722002
777.000000	97.679929
776.000000	97.659755
775.000000	97.648051
774.000000	97.626445
773.000000	97.601602
772.000000	97.581823
771.000000	97.555521
770.000000	97.518037
769.000000	97.488375
768.000000	97.474263
767.000000	97.452761
766.000000	97.410243
765.000000	97.367814
764.000000	97.342042
763.000000	97.315513
762.000000	97.273071
761.000000	97.230506
760.000000	97.199176
759.000000	97.158381
758.000000	97.093809
757.000000	97.028347
756.000000	96.983745
755.000000	96.945960
754.000000	96.899908
753.000000	96.864387
752.000000	96.858001
751.000000	96.862163
750.000000	96.851134
749.000000	96.831467
748.000000	96.820375
747.000000	96.813425
746.000000	96.802637
745.000000	96.798013
744.000000	96.802774
743.000000	96.797132
742.000000	96.773345
741.000000	96.755142
740.000000	96.755808
739.000000	96.749124
738.000000	96.709735
737.000000	96.648761
736.000000	96.583587
735.000000	96.506622
734.000000	96.412608
733.000000	96.321474
732.000000	96.245852
731.000000	96.169856
730.000000	96.087308
729.000000	96.022975
728.000000	95.990626
727.000000	95.966839
726.000000	95.929891
725.000000	95.891470
724.000000	95.861471
723.000000	95.817842
722.000000	95.738084
721.000000	95.627152
720.000000	95.486830
719.000000	95.289477
718.000000	95.003265
717.000000	94.603265
716.000000	94.047789
715.000000	93.316021
714.000000	92.515997
713.000000	91.893788
712.000000	91.664685
711.000000	91.841997
710.000000	92.260055
709.000000	92.722701
708.000000	93.098619
707.000000	93.336459
706.000000	93.455965
705.000000	93.518238
704.000000	93.563859
703.000000	93.582487
702.000000	93.559781
701.000000	93.518486
700.000000	93.481328
699.000000	93.439808
698.000000	93.388189
697.000000	93.352608
696.000000	93.350184
695.000000	93.352468
694.000000	93.334170
693.000000	93.318040
692.000000	93.329551
691.000000	93.352588
690.000000	93.365102
689.000000	93.379565
688.000000	93.406688
687.000000	93.415742
686.000000	93.386629
685.000000	93.352412
684.000000	93.343627
683.000000	93.340396
682.000000	93.322009
681.000000	93.312754
680.000000	93.332426
679.000000	93.354229
678.000000	93.357908
677.000000	93.366799
676.000000	93.402982
675.000000	93.444170
674.000000	93.473055
673.000000	93.518782
672.000000	93.607534
671.000000	93.723898
670.000000	93.857783
669.000000	94.028708
668.000000	94.170191
667.000000	94.171622
666.000000	94.125705
665.000000	94.089379
664.000000	94.074474
663.000000	94.079180
662.000000	94.091281
661.000000	94.108770
660.000000	94.128610
659.000000	94.132232
658.000000	94.113487
657.000000	94.089492
656.000000	94.074354
655.000000	94.051107
654.000000	93.997973
653.000000	93.924201
652.000000	93.851806
651.000000	93.777628
650.000000	93.686836
649.000000	93.584005
648.000000	93.481471
647.000000	93.372399
646.000000	93.242908
645.000000	93.102795
644.000000	92.969575
643.000000	92.838260
642.000000	92.700556
641.000000	92.569208
640.000000	92.457833
639.000000	92.359112
638.000000	92.265950
637.000000	92.193393
636.000000	92.156169
635.000000	92.141887
634.000000	92.138548
633.000000	92.162046
632.000000	92.220498
631.000000	92.278431
630.000000	92.295579
629.000000	92.280392
628.000000	92.269311
627.000000	92.274074
626.000000	92.278844
625.000000	92.275634
624.000000	92.262251
623.000000	92.225230
622.000000	92.160801
621.000000	92.092727
620.000000	92.037802
619.000000	91.978179
618.000000	91.896385
617.000000	91.810616
616.000000	91.742830
615.000000	91.683245
614.000000	91.620725
613.000000	91.572293
612.000000	91.550811
611.000000	91.539061
610.000000	91.530954
609.000000	91.558227
608.000000	91.640069
607.000000	91.743960
606.000000	91.836394
605.000000	91.940075
604.000000	92.092537
603.000000	92.285952
602.000000	92.495457
601.000000	92.724329
600.000000	92.970990
599.000000	93.196429
598.000000	93.374732
597.000000	93.535685
596.000000	93.709251
595.000000	93.875262
594.000000	94.009632
593.000000	94.132259
592.000000	94.259398
591.000000	94.358875
590.000000	94.408339
589.000000	94.443683
588.000000	94.496983
587.000000	94.542506
586.000000	94.554487
585.000000	94.563535
584.000000	94.602140
583.000000	94.644295
582.000000	94.657198
581.000000	94.660745
580.000000	94.682425
579.000000	94.704610
578.000000	94.710161
577.000000	94.725353
576.000000	94.765107
575.000000	94.793337
574.000000	94.793188
573.000000	94.812336
572.000000	94.880173
571.000000	94.948959
570.000000	94.969960
569.000000	94.970899
568.000000	94.992362
567.000000	95.011990
566.000000	95.000659
565.000000	94.987069
564.000000	94.998083
563.000000	95.001318
562.000000	94.973134
561.000000	94.957951
560.000000	94.992031
559.000000	95.031299
558.000000	95.027455
557.000000	95.011699
556.000000	95.030325
555.000000	95.058051
554.000000	95.052270
553.000000	95.034605
552.000000	95.042419
551.000000	95.057742
550.000000	95.054985
549.000000	95.064436
548.000000	95.114059
547.000000	95.165893
546.000000	95.179835
545.000000	95.185256
544.000000	95.216818
543.000000	95.243997
542.000000	95.232592
541.000000	95.212539
540.000000	95.218695
539.000000	95.227966
538.000000	95.218544
537.000000	95.224189
536.000000	95.264110
535.000000	95.287197
534.000000	95.256967
533.000000	95.220179
532.000000	95.221338
531.000000	95.224485
530.000000	95.194257
529.000000	95.174803
528.000000	95.212052
527.000000	95.269233
526.000000	95.292055
525.000000	95.300851
524.000000	95.330402
523.000000	95.349940
522.000000	95.328422
521.000000	95.303547
520.000000	95.316426
519.000000	95.341401
518.000000	95.350926
517.000000	95.383168
516.000000	95.459831
515.000000	95.524808
514.000000	95.543816
513.000000	95.566915
512.000000	95.628027
511.000000	95.672482
510.000000	95.660029
509.000000	95.651863
508.000000	95.708418
507.000000	95.781854
506.000000	95.803265
505.000000	95.798433
504.000000	95.817967
503.000000	95.839969
502.000000	95.832729
501.000000	95.836984
500.000000	95.889922
499.000000	95.956067
498.000000	96.010882
497.000000	96.092348
496.000000	96.202146
495.000000	96.252467
494.000000	96.195014
493.000000	96.113038
492.000000	96.094784
491.000000	96.110218
490.000000	96.106065
489.000000	96.117070
488.000000	96.178298
487.000000	96.233630
486.000000	96.232866
485.000000	96.232103
484.000000	96.296291
483.000000	96.387141
482.000000	96.455704
481.000000	96.536605
480.000000	96.648913
479.000000	96.716102
478.000000	96.690213
477.000000	96.657458
476.000000	96.710744
475.000000	96.816840
474.000000	96.908484
473.000000	97.002352
472.000000	97.113934
471.000000	97.168212
470.000000	97.135872
469.000000	97.110836
468.000000	97.153040
467.000000	97.191747
466.000000	97.170699
465.000000	97.165625
464.000000	97.242802
463.000000	97.342756
462.000000	97.412113
461.000000	97.519163
460.000000	97.717710
459.000000	97.918582
458.000000	98.018581
457.000000	98.074155
456.000000	98.165819
455.000000	98.232918
454.000000	98.235187
453.000000	98.260899
452.000000	98.368168
451.000000	98.465427
450.000000	98.493403
