PE IR       SUBTECH     SPECTRUM    ASCII       PEDS        4.00        
   -1
3C-YYX-C017_1.ASC
23/09/07
11:25:06.00
23/09/07
11:30:09.00
uco
Sample 017 By uco Date Thursday, September 07 2023
450.000000
#HDR
-1
-1
#GR
cm-1
%T
1.0
0.0
4000.000000
-1.000000
3551
8
98.447110
76.225514
#DATA
4000.000000	98.373284
3999.000000	98.371770
3998.000000	98.372993
3997.000000	98.374096
3996.000000	98.376641
3995.000000	98.378872
3994.000000	98.379052
3993.000000	98.376971
3992.000000	98.373758
3991.000000	98.370585
3990.000000	98.367848
3989.000000	98.365548
3988.000000	98.363937
3987.000000	98.363329
3986.000000	98.363352
3985.000000	98.363012
3984.000000	98.361771
3983.000000	98.360268
3982.000000	98.359539
3981.000000	98.359665
3980.000000	98.359626
3979.000000	98.358461
3978.000000	98.356361
3977.000000	98.354585
3976.000000	98.354468
3975.000000	98.356465
3974.000000	98.359794
3973.000000	98.362813
3972.000000	98.363916
3971.000000	98.362522
3970.000000	98.359493
3969.000000	98.356562
3968.000000	98.355139
3967.000000	98.355391
3966.000000	98.356401
3965.000000	98.357179
3964.000000	98.357469
3963.000000	98.357388
3962.000000	98.356568
3961.000000	98.354263
3960.000000	98.350296
3959.000000	98.345533
3958.000000	98.341122
3957.000000	98.337385
3956.000000	98.333937
3955.000000	98.330539
3954.000000	98.327501
3953.000000	98.325365
3952.000000	98.324459
3951.000000	98.324867
3950.000000	98.326310
3949.000000	98.328068
3948.000000	98.329368
3947.000000	98.329912
3946.000000	98.330023
3945.000000	98.330253
3944.000000	98.331182
3943.000000	98.333351
3942.000000	98.336628
3941.000000	98.340326
3940.000000	98.343490
3939.000000	98.344589
3938.000000	98.341871
3937.000000	98.334604
3936.000000	98.324643
3935.000000	98.316376
3934.000000	98.314594
3933.000000	98.321874
3932.000000	98.336238
3931.000000	98.351388
3930.000000	98.360168
3929.000000	98.358978
3928.000000	98.350108
3927.000000	98.340065
3926.000000	98.335551
3925.000000	98.338843
3924.000000	98.345960
3923.000000	98.350510
3922.000000	98.349092
3921.000000	98.342284
3920.000000	98.332836
3919.000000	98.323992
3918.000000	98.318760
3917.000000	98.319015
3916.000000	98.324311
3915.000000	98.331814
3914.000000	98.337452
3913.000000	98.338105
3912.000000	98.333193
3911.000000	98.325094
3910.000000	98.317445
3909.000000	98.312340
3908.000000	98.309701
3907.000000	98.308277
3906.000000	98.307107
3905.000000	98.306281
3904.000000	98.306484
3903.000000	98.308505
3902.000000	98.312931
3901.000000	98.319012
3900.000000	98.324686
3899.000000	98.327669
3898.000000	98.327093
3897.000000	98.324170
3896.000000	98.320322
3895.000000	98.316216
3894.000000	98.312946
3893.000000	98.312886
3892.000000	98.317822
3891.000000	98.325395
3890.000000	98.330920
3889.000000	98.332537
3888.000000	98.330817
3887.000000	98.326700
3886.000000	98.321176
3885.000000	98.314284
3884.000000	98.306768
3883.000000	98.301576
3882.000000	98.301571
3881.000000	98.306665
3880.000000	98.312422
3879.000000	98.313847
3878.000000	98.311246
3877.000000	98.308289
3876.000000	98.308172
3875.000000	98.312491
3874.000000	98.318997
3873.000000	98.322245
3872.000000	98.319070
3871.000000	98.312100
3870.000000	98.306552
3869.000000	98.304568
3868.000000	98.305319
3867.000000	98.307144
3866.000000	98.307818
3865.000000	98.306588
3864.000000	98.305502
3863.000000	98.307242
3862.000000	98.311535
3861.000000	98.315215
3860.000000	98.316126
3859.000000	98.314307
3858.000000	98.310204
3857.000000	98.301883
3856.000000	98.286516
3855.000000	98.266285
3854.000000	98.252800
3853.000000	98.254402
3852.000000	98.264142
3851.000000	98.274455
3850.000000	98.283227
3849.000000	98.289435
3848.000000	98.293372
3847.000000	98.295948
3846.000000	98.296994
3845.000000	98.295106
3844.000000	98.290315
3843.000000	98.286129
3842.000000	98.287081
3841.000000	98.294934
3840.000000	98.307448
3839.000000	98.319288
3838.000000	98.325371
3837.000000	98.324585
3836.000000	98.320418
3835.000000	98.317152
3834.000000	98.316236
3833.000000	98.316779
3832.000000	98.317524
3831.000000	98.317192
3830.000000	98.315007
3829.000000	98.310959
3828.000000	98.305972
3827.000000	98.301427
3826.000000	98.297582
3825.000000	98.293676
3824.000000	98.289954
3823.000000	98.289281
3822.000000	98.295216
3821.000000	98.304655
3820.000000	98.308171
3819.000000	98.304224
3818.000000	98.299652
3817.000000	98.299304
3816.000000	98.303773
3815.000000	98.309589
3814.000000	98.313860
3813.000000	98.316576
3812.000000	98.317614
3811.000000	98.316749
3810.000000	98.314694
3809.000000	98.312817
3808.000000	98.312181
3807.000000	98.312086
3806.000000	98.310103
3805.000000	98.306183
3804.000000	98.302993
3803.000000	98.303630
3802.000000	98.309430
3801.000000	98.315540
3800.000000	98.316048
3799.000000	98.314247
3798.000000	98.315620
3797.000000	98.320289
3796.000000	98.324362
3795.000000	98.324484
3794.000000	98.321244
3793.000000	98.317697
3792.000000	98.316374
3791.000000	98.318216
3790.000000	98.322412
3789.000000	98.327037
3788.000000	98.331082
3787.000000	98.334844
3786.000000	98.338038
3785.000000	98.338806
3784.000000	98.335630
3783.000000	98.329769
3782.000000	98.324565
3781.000000	98.322756
3780.000000	98.324785
3779.000000	98.328178
3778.000000	98.329378
3777.000000	98.327514
3776.000000	98.324552
3775.000000	98.322392
3774.000000	98.320879
3773.000000	98.318406
3772.000000	98.314229
3771.000000	98.309971
3770.000000	98.308005
3769.000000	98.308871
3768.000000	98.312810
3767.000000	98.320513
3766.000000	98.330622
3765.000000	98.338842
3764.000000	98.341359
3763.000000	98.338071
3762.000000	98.331216
3761.000000	98.323163
3760.000000	98.316121
3759.000000	98.311550
3758.000000	98.309220
3757.000000	98.307677
3756.000000	98.305805
3755.000000	98.302995
3754.000000	98.298645
3753.000000	98.293089
3752.000000	98.288527
3751.000000	98.285784
3750.000000	98.281164
3749.000000	98.274654
3748.000000	98.274826
3747.000000	98.289206
3746.000000	98.317120
3745.000000	98.347182
3744.000000	98.361295
3743.000000	98.356701
3742.000000	98.347943
3741.000000	98.342414
3740.000000	98.337585
3739.000000	98.331106
3738.000000	98.324964
3737.000000	98.324476
3736.000000	98.335265
3735.000000	98.356758
3734.000000	98.379043
3733.000000	98.392433
3732.000000	98.395338
3731.000000	98.391356
3730.000000	98.383482
3729.000000	98.372287
3728.000000	98.359272
3727.000000	98.348639
3726.000000	98.343925
3725.000000	98.344897
3724.000000	98.349774
3723.000000	98.357681
3722.000000	98.366271
3721.000000	98.372018
3720.000000	98.373714
3719.000000	98.372777
3718.000000	98.370381
3717.000000	98.366064
3716.000000	98.360050
3715.000000	98.353948
3714.000000	98.347481
3713.000000	98.338702
3712.000000	98.328804
3711.000000	98.323234
3710.000000	98.324866
3709.000000	98.330980
3708.000000	98.338649
3707.000000	98.347103
3706.000000	98.356358
3705.000000	98.366403
3704.000000	98.377069
3703.000000	98.386747
3702.000000	98.391556
3701.000000	98.388209
3700.000000	98.379086
3699.000000	98.370062
3698.000000	98.363570
3697.000000	98.356985
3696.000000	98.346593
3695.000000	98.331558
3694.000000	98.314441
3693.000000	98.300728
3692.000000	98.297595
3691.000000	98.310428
3690.000000	98.334671
3689.000000	98.353591
3688.000000	98.354129
3687.000000	98.341771
3686.000000	98.329111
3685.000000	98.320628
3684.000000	98.314188
3683.000000	98.307135
3682.000000	98.298670
3681.000000	98.288280
3680.000000	98.275153
3679.000000	98.259237
3678.000000	98.242718
3677.000000	98.232192
3676.000000	98.235528
3675.000000	98.247247
3674.000000	98.252003
3673.000000	98.247130
3672.000000	98.238562
3671.000000	98.232041
3670.000000	98.230019
3669.000000	98.227111
3668.000000	98.219283
3667.000000	98.211105
3666.000000	98.206802
3665.000000	98.206100
3664.000000	98.206617
3663.000000	98.205958
3662.000000	98.202672
3661.000000	98.196762
3660.000000	98.190047
3659.000000	98.184353
3658.000000	98.179029
3657.000000	98.171514
3656.000000	98.160706
3655.000000	98.149585
3654.000000	98.141707
3653.000000	98.136222
3652.000000	98.129056
3651.000000	98.117690
3650.000000	98.103692
3649.000000	98.090989
3648.000000	98.082263
3647.000000	98.076578
3646.000000	98.070937
3645.000000	98.064029
3644.000000	98.057834
3643.000000	98.055472
3642.000000	98.057332
3641.000000	98.059599
3640.000000	98.058316
3639.000000	98.053231
3638.000000	98.045733
3637.000000	98.035700
3636.000000	98.022458
3635.000000	98.007504
3634.000000	97.993743
3633.000000	97.982061
3632.000000	97.970338
3631.000000	97.956340
3630.000000	97.941800
3629.000000	97.931862
3628.000000	97.926643
3627.000000	97.922216
3626.000000	97.917009
3625.000000	97.909307
3624.000000	97.900045
3623.000000	97.894141
3622.000000	97.895302
3621.000000	97.901018
3620.000000	97.902824
3619.000000	97.892222
3618.000000	97.868561
3617.000000	97.839853
3616.000000	97.814750
3615.000000	97.796097
3614.000000	97.780651
3613.000000	97.763093
3612.000000	97.742347
3611.000000	97.722561
3610.000000	97.706473
3609.000000	97.693691
3608.000000	97.685003
3607.000000	97.682734
3606.000000	97.686548
3605.000000	97.691716
3604.000000	97.693490
3603.000000	97.690585
3602.000000	97.684677
3601.000000	97.677640
3600.000000	97.669559
3599.000000	97.658714
3598.000000	97.642533
3597.000000	97.619929
3596.000000	97.593807
3595.000000	97.570685
3594.000000	97.554359
3593.000000	97.542625
3592.000000	97.531061
3591.000000	97.518241
3590.000000	97.505294
3589.000000	97.493860
3588.000000	97.484195
3587.000000	97.474142
3586.000000	97.461431
3585.000000	97.447330
3584.000000	97.435147
3583.000000	97.425758
3582.000000	97.416511
3581.000000	97.403813
3580.000000	97.386914
3579.000000	97.369317
3578.000000	97.355100
3577.000000	97.345266
3576.000000	97.337386
3575.000000	97.327650
3574.000000	97.312239
3573.000000	97.289262
3572.000000	97.260996
3571.000000	97.232873
3570.000000	97.209279
3569.000000	97.191262
3568.000000	97.178398
3567.000000	97.170239
3566.000000	97.164227
3565.000000	97.156042
3564.000000	97.143841
3563.000000	97.128654
3562.000000	97.112115
3561.000000	97.095237
3560.000000	97.078611
3559.000000	97.062359
3558.000000	97.045564
3557.000000	97.026675
3556.000000	97.005507
3555.000000	96.984070
3554.000000	96.964885
3553.000000	96.948677
3552.000000	96.934353
3551.000000	96.920584
3550.000000	96.906604
3549.000000	96.892272
3548.000000	96.878567
3547.000000	96.867485
3546.000000	96.859909
3545.000000	96.853937
3544.000000	96.846342
3543.000000	96.834745
3542.000000	96.817828
3541.000000	96.795933
3540.000000	96.772354
3539.000000	96.751794
3538.000000	96.736036
3537.000000	96.722197
3536.000000	96.706432
3535.000000	96.688270
3534.000000	96.669771
3533.000000	96.652493
3532.000000	96.636905
3531.000000	96.623455
3530.000000	96.612325
3529.000000	96.602886
3528.000000	96.594622
3527.000000	96.587533
3526.000000	96.580336
3525.000000	96.569858
3524.000000	96.553885
3523.000000	96.533841
3522.000000	96.513450
3521.000000	96.495499
3520.000000	96.480687
3519.000000	96.468176
3518.000000	96.455914
3517.000000	96.441561
3516.000000	96.424336
3515.000000	96.405587
3514.000000	96.387033
3513.000000	96.369627
3512.000000	96.354377
3511.000000	96.342543
3510.000000	96.333756
3509.000000	96.325434
3508.000000	96.315573
3507.000000	96.304837
3506.000000	96.294507
3505.000000	96.283750
3504.000000	96.270388
3503.000000	96.253593
3502.000000	96.234875
3501.000000	96.216942
3500.000000	96.201993
3499.000000	96.190308
3498.000000	96.179844
3497.000000	96.168039
3496.000000	96.154294
3495.000000	96.139742
3494.000000	96.124763
3493.000000	96.108636
3492.000000	96.091908
3491.000000	96.076714
3490.000000	96.063873
3489.000000	96.051596
3488.000000	96.038123
3487.000000	96.023769
3486.000000	96.009161
3485.000000	95.993382
3484.000000	95.975585
3483.000000	95.957278
3482.000000	95.941361
3481.000000	95.929311
3480.000000	95.920481
3479.000000	95.913240
3478.000000	95.905790
3477.000000	95.896723
3476.000000	95.886049
3475.000000	95.875220
3474.000000	95.865458
3473.000000	95.856456
3472.000000	95.846707
3471.000000	95.834354
3470.000000	95.818252
3469.000000	95.799737
3468.000000	95.782962
3467.000000	95.771189
3466.000000	95.762702
3465.000000	95.752773
3464.000000	95.739826
3463.000000	95.727149
3462.000000	95.717575
3461.000000	95.709239
3460.000000	95.698325
3459.000000	95.683914
3458.000000	95.668228
3457.000000	95.653512
3456.000000	95.640527
3455.000000	95.629157
3454.000000	95.618846
3453.000000	95.609110
3452.000000	95.600344
3451.000000	95.593762
3450.000000	95.589961
3449.000000	95.588103
3448.000000	95.586431
3447.000000	95.582554
3446.000000	95.573603
3445.000000	95.558216
3444.000000	95.538638
3443.000000	95.519497
3442.000000	95.504262
3441.000000	95.493715
3440.000000	95.487450
3439.000000	95.484524
3438.000000	95.482151
3437.000000	95.476270
3436.000000	95.464909
3435.000000	95.449602
3434.000000	95.432877
3433.000000	95.416261
3432.000000	95.401168
3431.000000	95.389190
3430.000000	95.379881
3429.000000	95.370203
3428.000000	95.358013
3427.000000	95.344521
3426.000000	95.332029
3425.000000	95.320847
3424.000000	95.309862
3423.000000	95.298559
3422.000000	95.286740
3421.000000	95.273640
3420.000000	95.259135
3419.000000	95.244916
3418.000000	95.232774
3417.000000	95.222473
3416.000000	95.212491
3415.000000	95.202106
3414.000000	95.191789
3413.000000	95.182111
3412.000000	95.172846
3411.000000	95.162457
3410.000000	95.148640
3409.000000	95.130999
3408.000000	95.113395
3407.000000	95.101252
3406.000000	95.095547
3405.000000	95.091228
3404.000000	95.082693
3403.000000	95.069292
3402.000000	95.054373
3401.000000	95.041014
3400.000000	95.029899
3399.000000	95.019500
3398.000000	95.006756
3397.000000	94.989279
3396.000000	94.968611
3395.000000	94.949971
3394.000000	94.937229
3393.000000	94.929153
3392.000000	94.921566
3391.000000	94.911726
3390.000000	94.899340
3389.000000	94.885171
3388.000000	94.870914
3387.000000	94.859352
3386.000000	94.852164
3385.000000	94.847423
3384.000000	94.840707
3383.000000	94.828768
3382.000000	94.811624
3381.000000	94.791986
3380.000000	94.773478
3379.000000	94.758419
3378.000000	94.746169
3377.000000	94.733987
3376.000000	94.719836
3375.000000	94.703582
3374.000000	94.685567
3373.000000	94.665818
3372.000000	94.645450
3371.000000	94.627093
3370.000000	94.612425
3369.000000	94.600137
3368.000000	94.587344
3367.000000	94.572243
3366.000000	94.554766
3365.000000	94.535889
3364.000000	94.517379
3363.000000	94.501062
3362.000000	94.487005
3361.000000	94.472885
3360.000000	94.455982
3359.000000	94.435333
3358.000000	94.411747
3357.000000	94.386687
3356.000000	94.361762
3355.000000	94.338346
3354.000000	94.316899
3353.000000	94.297022
3352.000000	94.278326
3351.000000	94.260418
3350.000000	94.242195
3349.000000	94.222398
3348.000000	94.200970
3347.000000	94.178734
3346.000000	94.155758
3345.000000	94.131554
3344.000000	94.107033
3343.000000	94.084583
3342.000000	94.065435
3341.000000	94.048313
3340.000000	94.031248
3339.000000	94.013481
3338.000000	93.995205
3337.000000	93.976754
3336.000000	93.958441
3335.000000	93.940007
3334.000000	93.919959
3333.000000	93.896798
3332.000000	93.871339
3331.000000	93.846513
3330.000000	93.824557
3329.000000	93.805443
3328.000000	93.787896
3327.000000	93.770457
3326.000000	93.751597
3325.000000	93.730657
3324.000000	93.709176
3323.000000	93.689778
3322.000000	93.673292
3321.000000	93.658347
3320.000000	93.643560
3319.000000	93.628440
3318.000000	93.612270
3317.000000	93.594230
3316.000000	93.574985
3315.000000	93.556302
3314.000000	93.538735
3313.000000	93.521628
3312.000000	93.505363
3311.000000	93.491241
3310.000000	93.478843
3309.000000	93.465891
3308.000000	93.451474
3307.000000	93.436822
3306.000000	93.422163
3305.000000	93.405543
3304.000000	93.386063
3303.000000	93.365976
3302.000000	93.348128
3301.000000	93.333111
3300.000000	93.320243
3299.000000	93.309322
3298.000000	93.299749
3297.000000	93.289845
3296.000000	93.278652
3295.000000	93.267137
3294.000000	93.256232
3293.000000	93.245105
3292.000000	93.232832
3291.000000	93.220466
3290.000000	93.210108
3289.000000	93.202837
3288.000000	93.198569
3287.000000	93.196747
3286.000000	93.196054
3285.000000	93.194623
3284.000000	93.191529
3283.000000	93.187472
3282.000000	93.183736
3281.000000	93.181665
3280.000000	93.183420
3279.000000	93.190958
3278.000000	93.203341
3277.000000	93.216757
3276.000000	93.228507
3275.000000	93.239768
3274.000000	93.253139
3273.000000	93.269061
3272.000000	93.285616
3271.000000	93.300530
3270.000000	93.312350
3269.000000	93.321085
3268.000000	93.328821
3267.000000	93.338454
3266.000000	93.350878
3265.000000	93.364562
3264.000000	93.378639
3263.000000	93.394464
3262.000000	93.413112
3261.000000	93.433123
3260.000000	93.452427
3259.000000	93.471252
3258.000000	93.491574
3257.000000	93.514617
3256.000000	93.540090
3255.000000	93.566995
3254.000000	93.594016
3253.000000	93.619988
3252.000000	93.644929
3251.000000	93.669710
3250.000000	93.693707
3249.000000	93.714041
3248.000000	93.728589
3247.000000	93.738881
3246.000000	93.748819
3245.000000	93.760766
3244.000000	93.773834
3243.000000	93.785754
3242.000000	93.795376
3241.000000	93.803616
3240.000000	93.812824
3239.000000	93.825324
3238.000000	93.842271
3237.000000	93.863516
3236.000000	93.887864
3235.000000	93.912979
3234.000000	93.935853
3233.000000	93.954629
3232.000000	93.969652
3231.000000	93.981831
3230.000000	93.990741
3229.000000	93.995913
3228.000000	93.999368
3227.000000	94.004625
3226.000000	94.013082
3225.000000	94.023336
3224.000000	94.034068
3223.000000	94.045774
3222.000000	94.059313
3221.000000	94.074664
3220.000000	94.091374
3219.000000	94.108298
3218.000000	94.122610
3217.000000	94.131358
3216.000000	94.134860
3215.000000	94.137046
3214.000000	94.141469
3213.000000	94.148442
3212.000000	94.156620
3211.000000	94.165645
3210.000000	94.176221
3209.000000	94.188663
3208.000000	94.202332
3207.000000	94.215748
3206.000000	94.227252
3205.000000	94.236638
3204.000000	94.246041
3203.000000	94.257668
3202.000000	94.270698
3201.000000	94.282109
3200.000000	94.290564
3199.000000	94.297849
3198.000000	94.306433
3197.000000	94.317617
3196.000000	94.331909
3195.000000	94.348898
3194.000000	94.366469
3193.000000	94.382397
3192.000000	94.397321
3191.000000	94.414033
3190.000000	94.433392
3189.000000	94.453199
3188.000000	94.471530
3187.000000	94.488656
3186.000000	94.505146
3185.000000	94.520733
3184.000000	94.536105
3183.000000	94.553072
3182.000000	94.571493
3181.000000	94.588329
3180.000000	94.601361
3179.000000	94.611929
3178.000000	94.622825
3177.000000	94.635497
3176.000000	94.650796
3175.000000	94.669925
3174.000000	94.692408
3173.000000	94.714732
3172.000000	94.733154
3171.000000	94.747113
3170.000000	94.758588
3169.000000	94.769701
3168.000000	94.782236
3167.000000	94.797771
3166.000000	94.816224
3165.000000	94.835222
3164.000000	94.852679
3163.000000	94.869154
3162.000000	94.886608
3161.000000	94.905950
3160.000000	94.927004
3159.000000	94.949378
3158.000000	94.971634
3157.000000	94.990825
3156.000000	95.004891
3155.000000	95.015212
3154.000000	95.025356
3153.000000	95.037807
3152.000000	95.052717
3151.000000	95.068934
3150.000000	95.084981
3149.000000	95.099883
3148.000000	95.114184
3147.000000	95.129487
3146.000000	95.145958
3145.000000	95.161311
3144.000000	95.173460
3143.000000	95.183404
3142.000000	95.194145
3141.000000	95.207331
3140.000000	95.221928
3139.000000	95.235552
3138.000000	95.246038
3137.000000	95.252594
3136.000000	95.256379
3135.000000	95.259787
3134.000000	95.264478
3133.000000	95.270717
3132.000000	95.278684
3131.000000	95.288986
3130.000000	95.301017
3129.000000	95.312276
3128.000000	95.320699
3127.000000	95.327137
3126.000000	95.334532
3125.000000	95.345032
3124.000000	95.358379
3123.000000	95.372040
3122.000000	95.382287
3121.000000	95.386545
3120.000000	95.386015
3119.000000	95.385204
3118.000000	95.387690
3117.000000	95.393053
3116.000000	95.398610
3115.000000	95.403044
3114.000000	95.406871
3113.000000	95.410194
3112.000000	95.411799
3111.000000	95.410643
3110.000000	95.407213
3109.000000	95.403215
3108.000000	95.400140
3107.000000	95.397904
3106.000000	95.394717
3105.000000	95.388932
3104.000000	95.381399
3103.000000	95.375095
3102.000000	95.371803
3101.000000	95.370024
3100.000000	95.367183
3099.000000	95.363124
3098.000000	95.360095
3097.000000	95.359549
3096.000000	95.360193
3095.000000	95.359355
3094.000000	95.355527
3093.000000	95.349263
3092.000000	95.342121
3091.000000	95.335380
3090.000000	95.329817
3089.000000	95.326156
3088.000000	95.324600
3087.000000	95.323605
3086.000000	95.320138
3085.000000	95.312387
3084.000000	95.301932
3083.000000	95.292169
3082.000000	95.284938
3081.000000	95.279782
3080.000000	95.275985
3079.000000	95.273552
3078.000000	95.272014
3077.000000	95.270076
3076.000000	95.267088
3075.000000	95.263798
3074.000000	95.261142
3073.000000	95.259389
3072.000000	95.258836
3071.000000	95.260227
3070.000000	95.263982
3069.000000	95.269626
3068.000000	95.276174
3067.000000	95.282183
3066.000000	95.285636
3065.000000	95.285245
3064.000000	95.282259
3063.000000	95.279928
3062.000000	95.280939
3061.000000	95.286154
3060.000000	95.295254
3059.000000	95.306871
3058.000000	95.318201
3057.000000	95.326744
3056.000000	95.333203
3055.000000	95.341183
3054.000000	95.353230
3053.000000	95.368369
3052.000000	95.383843
3051.000000	95.397733
3050.000000	95.409535
3049.000000	95.419914
3048.000000	95.430528
3047.000000	95.442640
3046.000000	95.455273
3045.000000	95.466246
3044.000000	95.475683
3043.000000	95.486590
3042.000000	95.500891
3041.000000	95.516285
3040.000000	95.528578
3039.000000	95.536300
3038.000000	95.542093
3037.000000	95.550141
3036.000000	95.562826
3035.000000	95.578863
3034.000000	95.593966
3033.000000	95.604371
3032.000000	95.610283
3031.000000	95.615114
3030.000000	95.621189
3029.000000	95.627834
3028.000000	95.633981
3027.000000	95.640574
3026.000000	95.649134
3025.000000	95.659410
3024.000000	95.669823
3023.000000	95.679339
3022.000000	95.687814
3021.000000	95.695282
3020.000000	95.701926
3019.000000	95.707917
3018.000000	95.712453
3017.000000	95.713723
3016.000000	95.710831
3015.000000	95.705149
3014.000000	95.698936
3013.000000	95.693092
3012.000000	95.686615
3011.000000	95.677479
3010.000000	95.663829
3009.000000	95.645492
3008.000000	95.625132
3007.000000	95.606917
3006.000000	95.593058
3005.000000	95.581887
3004.000000	95.569552
3003.000000	95.553145
3002.000000	95.532201
3001.000000	95.508238
3000.000000	95.483133
2999.000000	95.457049
2998.000000	95.427777
2997.000000	95.393114
2996.000000	95.353804
2995.000000	95.312777
2994.000000	95.271184
2993.000000	95.227006
2992.000000	95.178135
2991.000000	95.124907
2990.000000	95.068534
2989.000000	95.008327
2988.000000	94.942089
2987.000000	94.868597
2986.000000	94.788710
2985.000000	94.704588
2984.000000	94.618129
2983.000000	94.529442
2982.000000	94.436353
2981.000000	94.335985
2980.000000	94.227590
2979.000000	94.113176
2978.000000	93.995412
2977.000000	93.875586
2976.000000	93.753091
2975.000000	93.625725
2974.000000	93.490306
2973.000000	93.344663
2972.000000	93.189486
2971.000000	93.027132
2970.000000	92.859109
2969.000000	92.686330
2968.000000	92.511821
2967.000000	92.340618
2966.000000	92.176111
2965.000000	92.018707
2964.000000	91.869075
2963.000000	91.731292
2962.000000	91.611128
2961.000000	91.513020
2960.000000	91.439833
2959.000000	91.393849
2958.000000	91.376255
2957.000000	91.385573
2956.000000	91.418522
2955.000000	91.471348
2954.000000	91.539646
2953.000000	91.617376
2952.000000	91.697128
2951.000000	91.771637
2950.000000	91.833662
2949.000000	91.875900
2948.000000	91.892143
2947.000000	91.879455
2946.000000	91.838612
2945.000000	91.772273
2944.000000	91.683151
2943.000000	91.572756
2942.000000	91.441762
2941.000000	91.291143
2940.000000	91.123479
2939.000000	90.942629
2938.000000	90.752229
2937.000000	90.555915
2936.000000	90.358774
2935.000000	90.167824
2934.000000	89.989640
2933.000000	89.827798
2932.000000	89.682619
2931.000000	89.552582
2930.000000	89.436109
2929.000000	89.332964
2928.000000	89.245491
2927.000000	89.177805
2926.000000	89.132974
2925.000000	89.111021
2924.000000	89.109996
2923.000000	89.128958
2922.000000	89.168810
2921.000000	89.230382
2920.000000	89.312920
2919.000000	89.414910
2918.000000	89.536532
2917.000000	89.680102
2916.000000	89.847638
2915.000000	90.037410
2914.000000	90.242330
2913.000000	90.451895
2912.000000	90.656083
2911.000000	90.848884
2910.000000	91.029216
2909.000000	91.199264
2908.000000	91.361941
2907.000000	91.519071
2906.000000	91.671565
2905.000000	91.820652
2904.000000	91.968397
2903.000000	92.116491
2902.000000	92.265017
2901.000000	92.413147
2900.000000	92.560187
2899.000000	92.705763
2898.000000	92.848461
2897.000000	92.985525
2896.000000	93.114516
2895.000000	93.234888
2894.000000	93.347797
2893.000000	93.454547
2892.000000	93.555143
2891.000000	93.648117
2890.000000	93.731686
2889.000000	93.805164
2888.000000	93.868710
2887.000000	93.921201
2886.000000	93.959305
2885.000000	93.979586
2884.000000	93.981321
2883.000000	93.966314
2882.000000	93.936368
2881.000000	93.892172
2880.000000	93.834109
2879.000000	93.762953
2878.000000	93.679902
2877.000000	93.587928
2876.000000	93.493354
2875.000000	93.404692
2874.000000	93.329375
2873.000000	93.271763
2872.000000	93.233863
2871.000000	93.215591
2870.000000	93.213181
2869.000000	93.218279
2868.000000	93.220173
2867.000000	93.209463
2866.000000	93.180489
2865.000000	93.132031
2864.000000	93.066227
2863.000000	92.986387
2862.000000	92.895179
2861.000000	92.795397
2860.000000	92.692065
2859.000000	92.592325
2858.000000	92.502565
2857.000000	92.426719
2856.000000	92.367836
2855.000000	92.329802
2854.000000	92.317406
2853.000000	92.335456
2852.000000	92.389028
2851.000000	92.484096
2850.000000	92.626021
2849.000000	92.816218
2848.000000	93.049068
2847.000000	93.311184
2846.000000	93.583888
2845.000000	93.848882
2844.000000	94.093399
2843.000000	94.312179
2842.000000	94.505401
2841.000000	94.675060
2840.000000	94.823146
2839.000000	94.951212
2838.000000	95.060762
2837.000000	95.154022
2836.000000	95.234192
2835.000000	95.304399
2834.000000	95.366687
2833.000000	95.422568
2832.000000	95.474074
2831.000000	95.522895
2830.000000	95.568549
2829.000000	95.609116
2828.000000	95.644014
2827.000000	95.674862
2826.000000	95.703361
2825.000000	95.729711
2824.000000	95.753743
2823.000000	95.776218
2822.000000	95.798173
2821.000000	95.819774
2820.000000	95.840443
2819.000000	95.859587
2818.000000	95.876877
2817.000000	95.892565
2816.000000	95.907835
2815.000000	95.924225
2814.000000	95.942636
2813.000000	95.963438
2812.000000	95.986931
2811.000000	96.012542
2810.000000	96.038129
2809.000000	96.061918
2808.000000	96.085037
2807.000000	96.110051
2806.000000	96.136666
2805.000000	96.161029
2804.000000	96.180050
2803.000000	96.194478
2802.000000	96.206671
2801.000000	96.217503
2800.000000	96.227078
2799.000000	96.236768
2798.000000	96.248305
2797.000000	96.261467
2796.000000	96.274309
2795.000000	96.285425
2794.000000	96.294822
2793.000000	96.303128
2792.000000	96.311153
2791.000000	96.320001
2790.000000	96.330639
2789.000000	96.343360
2788.000000	96.358035
2787.000000	96.374341
2786.000000	96.391286
2785.000000	96.407217
2784.000000	96.420981
2783.000000	96.432615
2782.000000	96.442565
2781.000000	96.451056
2780.000000	96.458682
2779.000000	96.466604
2778.000000	96.475281
2777.000000	96.483707
2776.000000	96.490709
2775.000000	96.496433
2774.000000	96.501888
2773.000000	96.507762
2772.000000	96.514391
2771.000000	96.522145
2770.000000	96.530918
2769.000000	96.539685
2768.000000	96.547350
2767.000000	96.553673
2766.000000	96.558984
2765.000000	96.563533
2764.000000	96.567717
2763.000000	96.572337
2762.000000	96.577860
2761.000000	96.583673
2760.000000	96.588611
2759.000000	96.592096
2758.000000	96.594629
2757.000000	96.597510
2756.000000	96.602136
2755.000000	96.608902
2754.000000	96.616622
2753.000000	96.623538
2752.000000	96.628999
2751.000000	96.633415
2750.000000	96.636703
2749.000000	96.638005
2748.000000	96.637373
2747.000000	96.636544
2746.000000	96.637330
2745.000000	96.640102
2744.000000	96.644468
2743.000000	96.650458
2742.000000	96.658088
2741.000000	96.666285
2740.000000	96.673123
2739.000000	96.677057
2738.000000	96.677777
2737.000000	96.676547
2736.000000	96.676028
2735.000000	96.678906
2734.000000	96.685831
2733.000000	96.694902
2732.000000	96.703514
2731.000000	96.710362
2730.000000	96.715653
2729.000000	96.720309
2728.000000	96.725461
2727.000000	96.731968
2726.000000	96.739687
2725.000000	96.747600
2724.000000	96.755112
2723.000000	96.762664
2722.000000	96.770562
2721.000000	96.777807
2720.000000	96.782856
2719.000000	96.785333
2718.000000	96.786569
2717.000000	96.788581
2716.000000	96.792663
2715.000000	96.798588
2714.000000	96.804904
2713.000000	96.810148
2712.000000	96.813885
2711.000000	96.816579
2710.000000	96.818912
2709.000000	96.821581
2708.000000	96.825184
2707.000000	96.829559
2706.000000	96.833686
2705.000000	96.837096
2704.000000	96.840802
2703.000000	96.845753
2702.000000	96.850909
2701.000000	96.854331
2700.000000	96.855894
2699.000000	96.857276
2698.000000	96.859332
2697.000000	96.861276
2696.000000	96.862725
2695.000000	96.864653
2694.000000	96.867565
2693.000000	96.870291
2692.000000	96.871569
2691.000000	96.871684
2690.000000	96.871687
2689.000000	96.872064
2688.000000	96.872913
2687.000000	96.874431
2686.000000	96.876424
2685.000000	96.878160
2684.000000	96.879362
2683.000000	96.880613
2682.000000	96.882384
2681.000000	96.884708
2680.000000	96.888095
2679.000000	96.893389
2678.000000	96.899931
2677.000000	96.905238
2676.000000	96.907593
2675.000000	96.907943
2674.000000	96.908168
2673.000000	96.908460
2672.000000	96.907693
2671.000000	96.905679
2670.000000	96.903751
2669.000000	96.903325
2668.000000	96.904748
2667.000000	96.907304
2666.000000	96.909631
2665.000000	96.910457
2664.000000	96.909705
2663.000000	96.908764
2662.000000	96.909145
2661.000000	96.910980
2660.000000	96.913056
2659.000000	96.913973
2658.000000	96.913193
2657.000000	96.911620
2656.000000	96.911453
2655.000000	96.914696
2654.000000	96.921270
2653.000000	96.929186
2652.000000	96.936918
2651.000000	96.944920
2650.000000	96.954335
2649.000000	96.965122
2648.000000	96.976301
2647.000000	96.987278
2646.000000	96.997810
2645.000000	97.006880
2644.000000	97.012723
2643.000000	97.014401
2642.000000	97.013160
2641.000000	97.012051
2640.000000	97.014018
2639.000000	97.020021
2638.000000	97.028828
2637.000000	97.038548
2636.000000	97.047855
2635.000000	97.055514
2634.000000	97.059883
2633.000000	97.060359
2632.000000	97.059026
2631.000000	97.059418
2630.000000	97.063470
2629.000000	97.070693
2628.000000	97.080064
2627.000000	97.091154
2626.000000	97.103230
2625.000000	97.114718
2624.000000	97.124070
2623.000000	97.130204
2622.000000	97.132259
2621.000000	97.130413
2620.000000	97.127012
2619.000000	97.125304
2618.000000	97.126766
2617.000000	97.131006
2616.000000	97.137959
2615.000000	97.147821
2614.000000	97.158685
2613.000000	97.166860
2612.000000	97.170727
2611.000000	97.172219
2610.000000	97.173460
2609.000000	97.174223
2608.000000	97.173976
2607.000000	97.174166
2606.000000	97.176390
2605.000000	97.180006
2604.000000	97.183701
2603.000000	97.187939
2602.000000	97.193436
2601.000000	97.198046
2600.000000	97.198049
2599.000000	97.192994
2598.000000	97.187681
2597.000000	97.188524
2596.000000	97.198331
2595.000000	97.214306
2594.000000	97.230066
2593.000000	97.239644
2592.000000	97.240942
2591.000000	97.236532
2590.000000	97.231387
2589.000000	97.229364
2588.000000	97.230949
2587.000000	97.233838
2586.000000	97.235803
2585.000000	97.236952
2584.000000	97.238798
2583.000000	97.241349
2582.000000	97.242765
2581.000000	97.242419
2580.000000	97.242339
2579.000000	97.244113
2578.000000	97.246192
2577.000000	97.246669
2576.000000	97.247245
2575.000000	97.251478
2574.000000	97.259363
2573.000000	97.266499
2572.000000	97.268879
2571.000000	97.266625
2570.000000	97.263359
2569.000000	97.264051
2568.000000	97.272656
2567.000000	97.288588
2566.000000	97.305180
2565.000000	97.314483
2564.000000	97.314633
2563.000000	97.310603
2562.000000	97.307675
2561.000000	97.306704
2560.000000	97.305815
2559.000000	97.303996
2558.000000	97.302019
2557.000000	97.301803
2556.000000	97.305240
2555.000000	97.311796
2554.000000	97.317621
2553.000000	97.319502
2552.000000	97.319211
2551.000000	97.320855
2550.000000	97.324321
2549.000000	97.325342
2548.000000	97.322379
2547.000000	97.319148
2546.000000	97.318943
2545.000000	97.320440
2544.000000	97.321075
2543.000000	97.320909
2542.000000	97.320335
2541.000000	97.316906
2540.000000	97.307739
2539.000000	97.293860
2538.000000	97.279998
2537.000000	97.271002
2536.000000	97.269320
2535.000000	97.273987
2534.000000	97.280553
2533.000000	97.283692
2532.000000	97.281400
2531.000000	97.275598
2530.000000	97.267989
2529.000000	97.257572
2528.000000	97.243343
2527.000000	97.227197
2526.000000	97.212442
2525.000000	97.201000
2524.000000	97.193417
2523.000000	97.189847
2522.000000	97.189423
2521.000000	97.189944
2520.000000	97.189681
2519.000000	97.188717
2518.000000	97.187565
2517.000000	97.185628
2516.000000	97.182277
2515.000000	97.178615
2514.000000	97.177286
2513.000000	97.180638
2512.000000	97.188975
2511.000000	97.199889
2510.000000	97.209635
2509.000000	97.216384
2508.000000	97.221878
2507.000000	97.228977
2506.000000	97.238626
2505.000000	97.250641
2504.000000	97.265916
2503.000000	97.284972
2502.000000	97.305150
2501.000000	97.322523
2500.000000	97.336453
2499.000000	97.349291
2498.000000	97.361428
2497.000000	97.370237
2496.000000	97.374327
2495.000000	97.375697
2494.000000	97.376861
2493.000000	97.378989
2492.000000	97.383961
2491.000000	97.394574
2490.000000	97.410595
2489.000000	97.427183
2488.000000	97.439834
2487.000000	97.449334
2486.000000	97.459950
2485.000000	97.474019
2484.000000	97.489781
2483.000000	97.503597
2482.000000	97.513097
2481.000000	97.518742
2480.000000	97.523107
2479.000000	97.527806
2478.000000	97.531032
2477.000000	97.529528
2476.000000	97.523108
2475.000000	97.516076
2474.000000	97.513727
2473.000000	97.518145
2472.000000	97.527012
2471.000000	97.535426
2470.000000	97.539813
2469.000000	97.541600
2468.000000	97.546038
2467.000000	97.555469
2466.000000	97.565104
2465.000000	97.568216
2464.000000	97.564969
2463.000000	97.562800
2462.000000	97.567924
2461.000000	97.579136
2460.000000	97.589902
2459.000000	97.593968
2458.000000	97.588746
2457.000000	97.576373
2456.000000	97.562313
2455.000000	97.551262
2454.000000	97.544246
2453.000000	97.541176
2452.000000	97.544531
2451.000000	97.556883
2450.000000	97.575038
2449.000000	97.590595
2448.000000	97.597540
2447.000000	97.596832
2446.000000	97.593404
2445.000000	97.591622
2444.000000	97.593839
2443.000000	97.599690
2442.000000	97.605559
2441.000000	97.607305
2440.000000	97.604870
2439.000000	97.602282
2438.000000	97.602779
2437.000000	97.605899
2436.000000	97.609274
2435.000000	97.610672
2434.000000	97.608306
2433.000000	97.602090
2432.000000	97.595290
2431.000000	97.592346
2430.000000	97.594472
2429.000000	97.599262
2428.000000	97.604329
2427.000000	97.609076
2426.000000	97.613404
2425.000000	97.617623
2424.000000	97.623216
2423.000000	97.630488
2422.000000	97.635506
2421.000000	97.632995
2420.000000	97.622868
2419.000000	97.611033
2418.000000	97.603196
2417.000000	97.600362
2416.000000	97.600628
2415.000000	97.602451
2414.000000	97.605539
2413.000000	97.610710
2412.000000	97.619090
2411.000000	97.629618
2410.000000	97.638356
2409.000000	97.642683
2408.000000	97.645077
2407.000000	97.649403
2406.000000	97.654611
2405.000000	97.656132
2404.000000	97.652987
2403.000000	97.649223
2402.000000	97.648103
2401.000000	97.648980
2400.000000	97.650254
2399.000000	97.651476
2398.000000	97.651736
2397.000000	97.649471
2396.000000	97.645123
2395.000000	97.641463
2394.000000	97.640646
2393.000000	97.643134
2392.000000	97.648774
2391.000000	97.656286
2390.000000	97.662270
2389.000000	97.664322
2388.000000	97.665541
2387.000000	97.671280
2386.000000	97.682553
2385.000000	97.695206
2384.000000	97.705638
2383.000000	97.714837
2382.000000	97.724645
2381.000000	97.735660
2380.000000	97.747018
2379.000000	97.755078
2378.000000	97.753724
2377.000000	97.740246
2376.000000	97.721390
2375.000000	97.707693
2374.000000	97.703346
2373.000000	97.705802
2372.000000	97.714417
2371.000000	97.730656
2370.000000	97.751115
2369.000000	97.769344
2368.000000	97.780506
2367.000000	97.781416
2366.000000	97.768100
2365.000000	97.741572
2364.000000	97.713248
2363.000000	97.693779
2362.000000	97.682971
2361.000000	97.676802
2360.000000	97.675405
2359.000000	97.680564
2358.000000	97.691311
2357.000000	97.703741
2356.000000	97.711262
2355.000000	97.705652
2354.000000	97.697113
2353.000000	97.700484
2352.000000	97.713189
2351.000000	97.718425
2350.000000	97.708736
2349.000000	97.688604
2348.000000	97.667671
2347.000000	97.658203
2346.000000	97.664523
2345.000000	97.672820
2344.000000	97.670131
2343.000000	97.662223
2342.000000	97.661536
2341.000000	97.669806
2340.000000	97.677823
2339.000000	97.675943
2338.000000	97.663160
2337.000000	97.646722
2336.000000	97.632014
2335.000000	97.623640
2334.000000	97.626484
2333.000000	97.642626
2332.000000	97.658888
2331.000000	97.663541
2330.000000	97.655787
2329.000000	97.646164
2328.000000	97.633996
2327.000000	97.614046
2326.000000	97.585841
2325.000000	97.560075
2324.000000	97.547828
2323.000000	97.553276
2322.000000	97.567923
2321.000000	97.578402
2320.000000	97.576051
2319.000000	97.567350
2318.000000	97.562428
2317.000000	97.568439
2316.000000	97.582893
2315.000000	97.603125
2314.000000	97.623784
2313.000000	97.641974
2312.000000	97.656078
2311.000000	97.671057
2310.000000	97.689870
2309.000000	97.710542
2308.000000	97.726836
2307.000000	97.737029
2306.000000	97.742129
2305.000000	97.743365
2304.000000	97.740747
2303.000000	97.736102
2302.000000	97.729998
2301.000000	97.722153
2300.000000	97.712891
2299.000000	97.706134
2298.000000	97.701656
2297.000000	97.695080
2296.000000	97.682301
2295.000000	97.667761
2294.000000	97.658079
2293.000000	97.655017
2292.000000	97.654939
2291.000000	97.656215
2290.000000	97.659952
2289.000000	97.665456
2288.000000	97.669054
2287.000000	97.667542
2286.000000	97.660461
2285.000000	97.649159
2284.000000	97.638342
2283.000000	97.635480
2282.000000	97.646288
2281.000000	97.668897
2280.000000	97.695201
2279.000000	97.716233
2278.000000	97.726356
2277.000000	97.725838
2276.000000	97.721305
2275.000000	97.721251
2274.000000	97.728343
2273.000000	97.738714
2272.000000	97.748733
2271.000000	97.758891
2270.000000	97.769149
2269.000000	97.776383
2268.000000	97.779467
2267.000000	97.782569
2266.000000	97.789168
2265.000000	97.796661
2264.000000	97.800294
2263.000000	97.798864
2262.000000	97.793704
2261.000000	97.785589
2260.000000	97.775769
2259.000000	97.766233
2258.000000	97.757491
2257.000000	97.749831
2256.000000	97.747929
2255.000000	97.757725
2254.000000	97.776577
2253.000000	97.793526
2252.000000	97.802009
2251.000000	97.805693
2250.000000	97.808699
2249.000000	97.808967
2248.000000	97.804710
2247.000000	97.800066
2246.000000	97.798280
2245.000000	97.797548
2244.000000	97.798332
2243.000000	97.807154
2242.000000	97.826728
2241.000000	97.848977
2240.000000	97.863515
2239.000000	97.867324
2238.000000	97.862153
2237.000000	97.851280
2236.000000	97.843863
2235.000000	97.852265
2234.000000	97.877168
2233.000000	97.903270
2232.000000	97.916877
2231.000000	97.919287
2230.000000	97.915824
2229.000000	97.903339
2228.000000	97.880232
2227.000000	97.859178
2226.000000	97.856337
2225.000000	97.872438
2224.000000	97.895218
2223.000000	97.915441
2222.000000	97.929808
2221.000000	97.933605
2220.000000	97.923707
2219.000000	97.907813
2218.000000	97.900391
2217.000000	97.909229
2216.000000	97.930750
2215.000000	97.955224
2214.000000	97.971686
2213.000000	97.973717
2212.000000	97.968429
2211.000000	97.974055
2210.000000	97.999993
2209.000000	98.033354
2208.000000	98.053476
2207.000000	98.055493
2206.000000	98.050947
2205.000000	98.048513
2204.000000	98.043784
2203.000000	98.027833
2202.000000	98.000218
2201.000000	97.973165
2200.000000	97.963450
2199.000000	97.976212
2198.000000	97.997019
2197.000000	98.007511
2196.000000	98.010635
2195.000000	98.029103
2194.000000	98.073536
2193.000000	98.122987
2192.000000	98.145304
2191.000000	98.129755
2190.000000	98.091909
2189.000000	98.057152
2188.000000	98.047019
2187.000000	98.070626
2186.000000	98.117715
2185.000000	98.165305
2184.000000	98.199666
2183.000000	98.225344
2182.000000	98.244590
2181.000000	98.240836
2180.000000	98.198239
2179.000000	98.129551
2178.000000	98.069777
2177.000000	98.045982
2176.000000	98.060813
2175.000000	98.097866
2174.000000	98.131890
2173.000000	98.138525
2172.000000	98.109938
2171.000000	98.065725
2170.000000	98.041021
2169.000000	98.057261
2168.000000	98.101285
2167.000000	98.134799
2166.000000	98.128952
2165.000000	98.093093
2164.000000	98.066506
2163.000000	98.074675
2162.000000	98.103169
2161.000000	98.127039
2160.000000	98.156510
2159.000000	98.227327
2158.000000	98.336661
2157.000000	98.424137
2156.000000	98.437597
2155.000000	98.385602
2154.000000	98.315937
2153.000000	98.270253
2152.000000	98.261647
2151.000000	98.275716
2150.000000	98.286873
2149.000000	98.281036
2148.000000	98.265736
2147.000000	98.252826
2146.000000	98.235899
2145.000000	98.196883
2144.000000	98.133485
2143.000000	98.065959
2142.000000	98.016927
2141.000000	97.995738
2140.000000	97.999794
2139.000000	98.018604
2138.000000	98.036003
2137.000000	98.040539
2136.000000	98.037673
2135.000000	98.042512
2134.000000	98.058661
2133.000000	98.074118
2132.000000	98.077971
2131.000000	98.071016
2130.000000	98.059764
2129.000000	98.050389
2128.000000	98.048044
2127.000000	98.051606
2126.000000	98.048900
2125.000000	98.027724
2124.000000	97.993075
2123.000000	97.963350
2122.000000	97.948508
2121.000000	97.942018
2120.000000	97.935652
2119.000000	97.930119
2118.000000	97.926907
2117.000000	97.920832
2116.000000	97.907067
2115.000000	97.887662
2114.000000	97.866011
2113.000000	97.843218
2112.000000	97.824307
2111.000000	97.818412
2110.000000	97.825687
2109.000000	97.832377
2108.000000	97.826986
2107.000000	97.815818
2106.000000	97.814454
2105.000000	97.828723
2104.000000	97.851030
2103.000000	97.870859
2102.000000	97.882019
2101.000000	97.882975
2100.000000	97.876971
2099.000000	97.870222
2098.000000	97.867472
2097.000000	97.870099
2096.000000	97.878842
2095.000000	97.892803
2094.000000	97.905606
2093.000000	97.910032
2092.000000	97.907500
2091.000000	97.905328
2090.000000	97.904493
2089.000000	97.899016
2088.000000	97.888748
2087.000000	97.882619
2086.000000	97.885375
2085.000000	97.890735
2084.000000	97.892049
2083.000000	97.891337
2082.000000	97.892938
2081.000000	97.896518
2080.000000	97.901284
2079.000000	97.908507
2078.000000	97.915494
2077.000000	97.914902
2076.000000	97.905752
2075.000000	97.896678
2074.000000	97.893587
2073.000000	97.894909
2072.000000	97.901550
2071.000000	97.919691
2070.000000	97.945964
2069.000000	97.961701
2068.000000	97.953780
2067.000000	97.933206
2066.000000	97.923374
2065.000000	97.934961
2064.000000	97.957934
2063.000000	97.973616
2062.000000	97.969698
2061.000000	97.950069
2060.000000	97.935378
2059.000000	97.944873
2058.000000	97.974334
2057.000000	98.002262
2056.000000	98.019068
2055.000000	98.034991
2054.000000	98.053724
2053.000000	98.059247
2052.000000	98.041603
2051.000000	98.018546
2050.000000	98.015043
2049.000000	98.030746
2048.000000	98.045323
2047.000000	98.053671
2046.000000	98.072860
2045.000000	98.111329
2044.000000	98.151059
2043.000000	98.166801
2042.000000	98.152883
2041.000000	98.129079
2040.000000	98.122411
2039.000000	98.140021
2038.000000	98.162996
2037.000000	98.173235
2036.000000	98.181820
2035.000000	98.214434
2034.000000	98.269015
2033.000000	98.312956
2032.000000	98.329343
2031.000000	98.337440
2030.000000	98.352947
2029.000000	98.357743
2028.000000	98.327092
2027.000000	98.269895
2026.000000	98.222255
2025.000000	98.215073
2024.000000	98.250960
2023.000000	98.300969
2022.000000	98.322836
2021.000000	98.300661
2020.000000	98.272472
2019.000000	98.294195
2018.000000	98.368652
2017.000000	98.430985
2016.000000	98.420713
2015.000000	98.347749
2014.000000	98.268719
2013.000000	98.229317
2012.000000	98.241887
2011.000000	98.291883
2010.000000	98.349199
2009.000000	98.387095
2008.000000	98.403487
2007.000000	98.414106
2006.000000	98.419252
2005.000000	98.402904
2004.000000	98.366204
2003.000000	98.333447
2002.000000	98.317606
2001.000000	98.300928
2000.000000	98.264169
1999.000000	98.211272
1998.000000	98.161711
1997.000000	98.134263
1996.000000	98.140808
1995.000000	98.178875
1994.000000	98.224315
1993.000000	98.246446
1992.000000	98.240290
1991.000000	98.229224
1990.000000	98.226195
1989.000000	98.215788
1988.000000	98.184440
1987.000000	98.145952
1986.000000	98.124588
1985.000000	98.129192
1984.000000	98.151468
1983.000000	98.172385
1982.000000	98.166139
1981.000000	98.119914
1980.000000	98.066335
1979.000000	98.065621
1978.000000	98.139593
1977.000000	98.238516
1976.000000	98.295937
1975.000000	98.296852
1974.000000	98.269313
1973.000000	98.243481
1972.000000	98.239176
1971.000000	98.262398
1970.000000	98.294070
1969.000000	98.302341
1968.000000	98.281501
1967.000000	98.262566
1966.000000	98.273072
1965.000000	98.307634
1964.000000	98.348496
1963.000000	98.389192
1962.000000	98.424057
1961.000000	98.439307
1960.000000	98.428833
1959.000000	98.400684
1958.000000	98.360566
1957.000000	98.309071
1956.000000	98.259436
1955.000000	98.233440
1954.000000	98.231540
1953.000000	98.231526
1952.000000	98.222257
1951.000000	98.222190
1950.000000	98.246654
1949.000000	98.279151
1948.000000	98.295245
1947.000000	98.293298
1946.000000	98.283874
1945.000000	98.266510
1944.000000	98.237025
1943.000000	98.207018
1942.000000	98.193959
1941.000000	98.198171
1940.000000	98.206515
1939.000000	98.210939
1938.000000	98.210582
1937.000000	98.204963
1936.000000	98.195922
1935.000000	98.190579
1934.000000	98.192652
1933.000000	98.195816
1932.000000	98.189237
1931.000000	98.173378
1930.000000	98.155847
1929.000000	98.141458
1928.000000	98.138234
1927.000000	98.152054
1926.000000	98.182360
1925.000000	98.214796
1924.000000	98.240164
1923.000000	98.266473
1922.000000	98.297310
1921.000000	98.315509
1920.000000	98.301579
1919.000000	98.259489
1918.000000	98.216792
1917.000000	98.192523
1916.000000	98.182745
1915.000000	98.176428
1914.000000	98.171649
1913.000000	98.174536
1912.000000	98.188417
1911.000000	98.210886
1910.000000	98.232734
1909.000000	98.242101
1908.000000	98.236317
1907.000000	98.219564
1906.000000	98.201736
1905.000000	98.186690
1904.000000	98.176686
1903.000000	98.176956
1902.000000	98.184305
1901.000000	98.188332
1900.000000	98.188381
1899.000000	98.192715
1898.000000	98.205883
1897.000000	98.217555
1896.000000	98.217669
1895.000000	98.214526
1894.000000	98.222170
1893.000000	98.239060
1892.000000	98.251606
1891.000000	98.254317
1890.000000	98.255467
1889.000000	98.262758
1888.000000	98.273672
1887.000000	98.280833
1886.000000	98.278187
1885.000000	98.265984
1884.000000	98.252336
1883.000000	98.246878
1882.000000	98.247674
1881.000000	98.244737
1880.000000	98.237342
1879.000000	98.233805
1878.000000	98.240398
1877.000000	98.252729
1876.000000	98.259607
1875.000000	98.260810
1874.000000	98.268414
1873.000000	98.288641
1872.000000	98.313745
1871.000000	98.332414
1870.000000	98.343575
1869.000000	98.355606
1868.000000	98.370978
1867.000000	98.379810
1866.000000	98.369271
1865.000000	98.336798
1864.000000	98.296779
1863.000000	98.269856
1862.000000	98.263229
1861.000000	98.267839
1860.000000	98.275118
1859.000000	98.285329
1858.000000	98.298584
1857.000000	98.308243
1856.000000	98.308668
1855.000000	98.302713
1854.000000	98.297194
1853.000000	98.293813
1852.000000	98.298771
1851.000000	98.308966
1850.000000	98.318997
1849.000000	98.333939
1848.000000	98.361569
1847.000000	98.392265
1846.000000	98.398824
1845.000000	98.372266
1844.000000	98.343314
1843.000000	98.345955
1842.000000	98.367313
1841.000000	98.369659
1840.000000	98.344680
1839.000000	98.315803
1838.000000	98.304966
1837.000000	98.302395
1836.000000	98.294739
1835.000000	98.295121
1834.000000	98.319579
1833.000000	98.356882
1832.000000	98.382064
1831.000000	98.382779
1830.000000	98.378716
1829.000000	98.390231
1828.000000	98.406212
1827.000000	98.402532
1826.000000	98.376278
1825.000000	98.351907
1824.000000	98.345795
1823.000000	98.347016
1822.000000	98.337723
1821.000000	98.318646
1820.000000	98.304774
1819.000000	98.302636
1818.000000	98.307605
1817.000000	98.309754
1816.000000	98.309225
1815.000000	98.314916
1814.000000	98.324733
1813.000000	98.331892
1812.000000	98.331167
1811.000000	98.327286
1810.000000	98.324144
1809.000000	98.310315
1808.000000	98.278124
1807.000000	98.237717
1806.000000	98.202963
1805.000000	98.175014
1804.000000	98.145979
1803.000000	98.113428
1802.000000	98.074485
1801.000000	98.033563
1800.000000	97.992660
1799.000000	97.956995
1798.000000	97.934871
1797.000000	97.930509
1796.000000	97.940987
1795.000000	97.956321
1794.000000	97.965239
1793.000000	97.979049
1792.000000	98.017087
1791.000000	98.077157
1790.000000	98.137100
1789.000000	98.178602
1788.000000	98.198513
1787.000000	98.207248
1786.000000	98.218294
1785.000000	98.238643
1784.000000	98.268671
1783.000000	98.303194
1782.000000	98.320290
1781.000000	98.320511
1780.000000	98.316879
1779.000000	98.319792
1778.000000	98.330256
1777.000000	98.348783
1776.000000	98.384257
1775.000000	98.423291
1774.000000	98.432434
1773.000000	98.407381
1772.000000	98.384680
1771.000000	98.377070
1770.000000	98.347300
1769.000000	98.256384
1768.000000	98.122603
1767.000000	98.016143
1766.000000	97.967812
1765.000000	97.933419
1764.000000	97.849522
1763.000000	97.699668
1762.000000	97.511401
1761.000000	97.321787
1760.000000	97.126647
1759.000000	96.888884
1758.000000	96.554696
1757.000000	96.108825
1756.000000	95.623655
1755.000000	95.178784
1754.000000	94.753770
1753.000000	94.258497
1752.000000	93.645110
1751.000000	92.967803
1750.000000	92.323225
1749.000000	91.722695
1748.000000	91.153065
1747.000000	90.647577
1746.000000	90.220607
1745.000000	89.852384
1744.000000	89.536780
1743.000000	89.302552
1742.000000	89.152691
1741.000000	89.047220
1740.000000	88.985922
1739.000000	89.035556
1738.000000	89.197871
1737.000000	89.388076
1736.000000	89.562200
1735.000000	89.811185
1734.000000	90.261627
1733.000000	90.807913
1732.000000	91.278413
1731.000000	91.675839
1730.000000	92.065635
1729.000000	92.476613
1728.000000	92.902076
1727.000000	93.323840
1726.000000	93.727455
1725.000000	94.115535
1724.000000	94.490540
1723.000000	94.858231
1722.000000	95.207917
1721.000000	95.510588
1720.000000	95.757847
1719.000000	95.986780
1718.000000	96.249186
1717.000000	96.508760
1716.000000	96.682722
1715.000000	96.767249
1714.000000	96.798238
1713.000000	96.797510
1712.000000	96.783587
1711.000000	96.776142
1710.000000	96.780380
1709.000000	96.790023
1708.000000	96.795874
1707.000000	96.777525
1706.000000	96.733583
1705.000000	96.696108
1704.000000	96.696846
1703.000000	96.696674
1702.000000	96.599010
1701.000000	96.372782
1700.000000	96.170942
1699.000000	96.134126
1698.000000	96.125003
1697.000000	95.950017
1696.000000	95.616648
1695.000000	95.321331
1694.000000	95.165905
1693.000000	95.058393
1692.000000	94.913871
1691.000000	94.745441
1690.000000	94.596109
1689.000000	94.486610
1688.000000	94.420831
1687.000000	94.364017
1686.000000	94.254943
1685.000000	94.041658
1684.000000	93.783433
1683.000000	93.598305
1682.000000	93.451550
1681.000000	93.257601
1680.000000	93.032034
1679.000000	92.845505
1678.000000	92.701118
1677.000000	92.528760
1676.000000	92.290714
1675.000000	92.059712
1674.000000	91.913038
1673.000000	91.818410
1672.000000	91.689000
1671.000000	91.494826
1670.000000	91.253150
1669.000000	90.992618
1668.000000	90.752567
1667.000000	90.558603
1666.000000	90.391790
1665.000000	90.207049
1664.000000	89.975120
1663.000000	89.725804
1662.000000	89.499421
1661.000000	89.297225
1660.000000	89.097447
1659.000000	88.901207
1658.000000	88.742293
1657.000000	88.645019
1656.000000	88.578823
1655.000000	88.460865
1654.000000	88.237118
1653.000000	87.967911
1652.000000	87.812515
1651.000000	87.796948
1650.000000	87.803040
1649.000000	87.754047
1648.000000	87.665501
1647.000000	87.592262
1646.000000	87.563224
1645.000000	87.548715
1644.000000	87.532667
1643.000000	87.523584
1642.000000	87.524463
1641.000000	87.547598
1640.000000	87.609884
1639.000000	87.703631
1638.000000	87.799680
1637.000000	87.869610
1636.000000	87.931432
1635.000000	88.000397
1634.000000	88.067433
1633.000000	88.114543
1632.000000	88.139280
1631.000000	88.168329
1630.000000	88.229951
1629.000000	88.335379
1628.000000	88.480131
1627.000000	88.648239
1626.000000	88.812268
1625.000000	88.962255
1624.000000	89.117268
1623.000000	89.304180
1622.000000	89.506560
1621.000000	89.692569
1620.000000	89.853833
1619.000000	89.994587
1618.000000	90.136764
1617.000000	90.316312
1616.000000	90.535114
1615.000000	90.738192
1614.000000	90.886860
1613.000000	90.990771
1612.000000	91.092247
1611.000000	91.227094
1610.000000	91.386422
1609.000000	91.542927
1608.000000	91.688368
1607.000000	91.827815
1606.000000	91.950172
1605.000000	92.051710
1604.000000	92.143409
1603.000000	92.229861
1602.000000	92.305646
1601.000000	92.367089
1600.000000	92.420629
1599.000000	92.471777
1598.000000	92.518921
1597.000000	92.562660
1596.000000	92.607467
1595.000000	92.652993
1594.000000	92.689844
1593.000000	92.712799
1592.000000	92.726814
1591.000000	92.736115
1590.000000	92.736761
1589.000000	92.726346
1588.000000	92.708358
1587.000000	92.683608
1586.000000	92.648358
1585.000000	92.602472
1584.000000	92.560165
1583.000000	92.517207
1582.000000	92.464364
1581.000000	92.417959
1580.000000	92.403610
1579.000000	92.405469
1578.000000	92.378478
1577.000000	92.301204
1576.000000	92.208230
1575.000000	92.149263
1574.000000	92.117397
1573.000000	92.078589
1572.000000	92.013006
1571.000000	91.921712
1570.000000	91.818394
1569.000000	91.717648
1568.000000	91.632108
1567.000000	91.539140
1566.000000	91.414175
1565.000000	91.273455
1564.000000	91.177701
1563.000000	91.146500
1562.000000	91.133868
1561.000000	91.071584
1560.000000	90.924245
1559.000000	90.710325
1558.000000	90.497890
1557.000000	90.311243
1556.000000	90.109198
1555.000000	89.863232
1554.000000	89.608956
1553.000000	89.402245
1552.000000	89.236824
1551.000000	89.062516
1550.000000	88.873115
1549.000000	88.698293
1548.000000	88.562939
1547.000000	88.450890
1546.000000	88.342675
1545.000000	88.250925
1544.000000	88.200146
1543.000000	88.178363
1542.000000	88.148997
1541.000000	88.077134
1540.000000	87.970958
1539.000000	87.868976
1538.000000	87.803420
1537.000000	87.769293
1536.000000	87.734369
1535.000000	87.694347
1534.000000	87.673771
1533.000000	87.692774
1532.000000	87.720915
1531.000000	87.731890
1530.000000	87.733601
1529.000000	87.739071
1528.000000	87.758408
1527.000000	87.797363
1526.000000	87.852108
1525.000000	87.915658
1524.000000	87.969889
1523.000000	87.990687
1522.000000	87.977234
1521.000000	87.956281
1520.000000	87.951338
1519.000000	87.946278
1518.000000	87.907064
1517.000000	87.838959
1516.000000	87.783538
1515.000000	87.763502
1514.000000	87.757430
1513.000000	87.757926
1512.000000	87.793945
1511.000000	87.898618
1510.000000	88.049794
1509.000000	88.191711
1508.000000	88.289628
1507.000000	88.353687
1506.000000	88.357067
1505.000000	88.305114
1504.000000	88.261452
1503.000000	88.230166
1502.000000	88.203327
1501.000000	88.186813
1500.000000	88.192215
1499.000000	88.215422
1498.000000	88.228991
1497.000000	88.203632
1496.000000	88.149361
1495.000000	88.115972
1494.000000	88.111141
1493.000000	88.101905
1492.000000	88.071435
1491.000000	88.039140
1490.000000	88.013138
1489.000000	87.957250
1488.000000	87.845635
1487.000000	87.704177
1486.000000	87.556819
1485.000000	87.399945
1484.000000	87.239833
1483.000000	87.074583
1482.000000	86.898585
1481.000000	86.710689
1480.000000	86.523883
1479.000000	86.342398
1478.000000	86.150277
1477.000000	85.938609
1476.000000	85.723536
1475.000000	85.514339
1474.000000	85.253324
1473.000000	84.879171
1472.000000	84.436803
1471.000000	84.038288
1470.000000	83.705884
1469.000000	83.402287
1468.000000	83.116019
1467.000000	82.859003
1466.000000	82.620958
1465.000000	82.389749
1464.000000	82.188156
1463.000000	82.036135
1462.000000	81.920922
1461.000000	81.817468
1460.000000	81.716663
1459.000000	81.592501
1458.000000	81.380695
1457.000000	81.053324
1456.000000	80.743564
1455.000000	80.550626
1454.000000	80.403830
1453.000000	80.242287
1452.000000	80.085088
1451.000000	79.967350
1450.000000	79.875301
1449.000000	79.770597
1448.000000	79.651124
1447.000000	79.547284
1446.000000	79.452097
1445.000000	79.350220
1444.000000	79.240565
1443.000000	79.127112
1442.000000	79.010924
1441.000000	78.895405
1440.000000	78.787728
1439.000000	78.670764
1438.000000	78.506854
1437.000000	78.283346
1436.000000	78.073403
1435.000000	77.946439
1434.000000	77.867507
1433.000000	77.780463
1432.000000	77.682156
1431.000000	77.586850
1430.000000	77.475882
1429.000000	77.318986
1428.000000	77.132718
1427.000000	76.959451
1426.000000	76.800940
1425.000000	76.657320
1424.000000	76.560139
1423.000000	76.524421
1422.000000	76.506046
1421.000000	76.453369
1420.000000	76.373917
1419.000000	76.315982
1418.000000	76.286451
1417.000000	76.254260
1416.000000	76.225514
1415.000000	76.226788
1414.000000	76.263757
1413.000000	76.330646
1412.000000	76.432846
1411.000000	76.575459
1410.000000	76.743421
1409.000000	76.917988
1408.000000	77.101120
1407.000000	77.304413
1406.000000	77.516636
1405.000000	77.723671
1404.000000	77.925531
1403.000000	78.115686
1402.000000	78.275692
1401.000000	78.401715
1400.000000	78.522409
1399.000000	78.664152
1398.000000	78.811172
1397.000000	78.935897
1396.000000	79.045560
1395.000000	79.163808
1394.000000	79.288159
1393.000000	79.411235
1392.000000	79.541828
1391.000000	79.685897
1390.000000	79.837854
1389.000000	79.998717
1388.000000	80.182663
1387.000000	80.390687
1386.000000	80.591013
1385.000000	80.762427
1384.000000	80.919097
1383.000000	81.080498
1382.000000	81.252798
1381.000000	81.434715
1380.000000	81.633664
1379.000000	81.856717
1378.000000	82.098453
1377.000000	82.352975
1376.000000	82.627236
1375.000000	82.923737
1374.000000	83.215725
1373.000000	83.470150
1372.000000	83.683601
1371.000000	83.872807
1370.000000	84.048466
1369.000000	84.222177
1368.000000	84.402392
1367.000000	84.581846
1366.000000	84.748597
1365.000000	84.906499
1364.000000	85.069184
1363.000000	85.232742
1362.000000	85.372036
1361.000000	85.476043
1360.000000	85.560047
1359.000000	85.637929
1358.000000	85.712395
1357.000000	85.788691
1356.000000	85.873975
1355.000000	85.965564
1354.000000	86.055588
1353.000000	86.145271
1352.000000	86.238891
1351.000000	86.333720
1350.000000	86.419355
1349.000000	86.495047
1348.000000	86.562469
1347.000000	86.612603
1346.000000	86.635041
1345.000000	86.636344
1344.000000	86.632760
1343.000000	86.628040
1342.000000	86.612940
1341.000000	86.581726
1340.000000	86.534829
1339.000000	86.469985
1338.000000	86.388670
1337.000000	86.308663
1336.000000	86.252595
1335.000000	86.230038
1334.000000	86.240261
1333.000000	86.284711
1332.000000	86.363624
1331.000000	86.465945
1330.000000	86.575772
1329.000000	86.687671
1328.000000	86.803336
1327.000000	86.918737
1326.000000	87.026367
1325.000000	87.127922
1324.000000	87.228329
1323.000000	87.323382
1322.000000	87.407233
1321.000000	87.485675
1320.000000	87.568515
1319.000000	87.654126
1318.000000	87.735634
1317.000000	87.816669
1316.000000	87.905948
1315.000000	88.002423
1314.000000	88.099719
1313.000000	88.198208
1312.000000	88.299542
1311.000000	88.397553
1310.000000	88.487777
1309.000000	88.578543
1308.000000	88.678600
1307.000000	88.783330
1306.000000	88.883812
1305.000000	88.982814
1304.000000	89.085944
1303.000000	89.187757
1302.000000	89.281441
1301.000000	89.373631
1300.000000	89.474398
1299.000000	89.580283
1298.000000	89.681737
1297.000000	89.777819
1296.000000	89.869751
1295.000000	89.948422
1294.000000	90.005233
1293.000000	90.046831
1292.000000	90.084637
1291.000000	90.118247
1290.000000	90.141856
1289.000000	90.158952
1288.000000	90.176232
1287.000000	90.191294
1286.000000	90.199921
1285.000000	90.207138
1284.000000	90.218513
1283.000000	90.229647
1282.000000	90.235685
1281.000000	90.241084
1280.000000	90.247473
1279.000000	90.242397
1278.000000	90.214016
1277.000000	90.166232
1276.000000	90.107139
1275.000000	90.031701
1274.000000	89.930709
1273.000000	89.806705
1272.000000	89.666574
1271.000000	89.507718
1270.000000	89.323937
1269.000000	89.118416
1268.000000	88.898681
1267.000000	88.665371
1266.000000	88.418593
1265.000000	88.166868
1264.000000	87.919247
1263.000000	87.675270
1262.000000	87.432509
1261.000000	87.196877
1260.000000	86.975431
1259.000000	86.766234
1258.000000	86.566946
1257.000000	86.388363
1256.000000	86.246726
1255.000000	86.147864
1254.000000	86.086684
1253.000000	86.055245
1252.000000	86.042704
1251.000000	86.031164
1250.000000	86.005082
1249.000000	85.963046
1248.000000	85.911910
1247.000000	85.854292
1246.000000	85.790689
1245.000000	85.727696
1244.000000	85.673361
1243.000000	85.628535
1242.000000	85.592754
1241.000000	85.573568
1240.000000	85.579936
1239.000000	85.611273
1238.000000	85.661961
1237.000000	85.733741
1236.000000	85.831746
1235.000000	85.952497
1234.000000	86.087331
1233.000000	86.233216
1232.000000	86.392129
1231.000000	86.563992
1230.000000	86.751224
1229.000000	86.965650
1228.000000	87.216991
1227.000000	87.499650
1226.000000	87.799437
1225.000000	88.106926
1224.000000	88.414117
1223.000000	88.706309
1222.000000	88.972086
1221.000000	89.213938
1220.000000	89.436916
1219.000000	89.634493
1218.000000	89.800275
1217.000000	89.942698
1216.000000	90.073386
1215.000000	90.190586
1214.000000	90.286644
1213.000000	90.364795
1212.000000	90.432386
1211.000000	90.485837
1210.000000	90.517430
1209.000000	90.528577
1208.000000	90.525070
1207.000000	90.506796
1206.000000	90.474304
1205.000000	90.437560
1204.000000	90.404968
1203.000000	90.372391
1202.000000	90.333626
1201.000000	90.293090
1200.000000	90.257450
1199.000000	90.223395
1198.000000	90.185410
1197.000000	90.146877
1196.000000	90.112221
1195.000000	90.076724
1194.000000	90.034536
1193.000000	89.988119
1192.000000	89.939728
1191.000000	89.883047
1190.000000	89.814099
1189.000000	89.739892
1188.000000	89.665367
1187.000000	89.581960
1186.000000	89.479810
1185.000000	89.362237
1184.000000	89.236148
1183.000000	89.098667
1182.000000	88.945317
1181.000000	88.781389
1180.000000	88.613788
1179.000000	88.439315
1178.000000	88.253302
1177.000000	88.061542
1176.000000	87.872357
1175.000000	87.686002
1174.000000	87.501651
1173.000000	87.326142
1172.000000	87.164805
1171.000000	87.012203
1170.000000	86.862025
1169.000000	86.718553
1168.000000	86.588562
1167.000000	86.469762
1166.000000	86.359712
1165.000000	86.267349
1164.000000	86.204112
1163.000000	86.171184
1162.000000	86.165020
1161.000000	86.189977
1160.000000	86.251808
1159.000000	86.345955
1158.000000	86.466659
1157.000000	86.619028
1156.000000	86.811560
1155.000000	87.040703
1154.000000	87.295838
1153.000000	87.574882
1152.000000	87.879844
1151.000000	88.205375
1150.000000	88.543783
1149.000000	88.894709
1148.000000	89.257678
1147.000000	89.622286
1146.000000	89.979217
1145.000000	90.330712
1144.000000	90.677684
1143.000000	91.008173
1142.000000	91.313449
1141.000000	91.602278
1140.000000	91.883488
1139.000000	92.148361
1138.000000	92.383996
1137.000000	92.592059
1136.000000	92.777357
1135.000000	92.932356
1134.000000	93.051659
1133.000000	93.146264
1132.000000	93.228531
1131.000000	93.294414
1130.000000	93.335604
1129.000000	93.357221
1128.000000	93.367198
1127.000000	93.363298
1126.000000	93.344192
1125.000000	93.318753
1124.000000	93.291543
1123.000000	93.252486
1122.000000	93.194492
1121.000000	93.125149
1120.000000	93.046856
1119.000000	92.944349
1118.000000	92.804665
1117.000000	92.633141
1116.000000	92.435155
1115.000000	92.200761
1114.000000	91.926714
1113.000000	91.636961
1112.000000	91.365274
1111.000000	91.130408
1110.000000	90.941853
1109.000000	90.811939
1108.000000	90.744587
1107.000000	90.723316
1106.000000	90.726101
1105.000000	90.744960
1104.000000	90.776116
1103.000000	90.805396
1102.000000	90.817870
1101.000000	90.810325
1100.000000	90.782154
1099.000000	90.725300
1098.000000	90.639250
1097.000000	90.540439
1096.000000	90.445364
1095.000000	90.357645
1094.000000	90.282293
1093.000000	90.235869
1092.000000	90.229936
1091.000000	90.258885
1090.000000	90.317437
1089.000000	90.412549
1088.000000	90.545106
1087.000000	90.698575
1086.000000	90.859420
1085.000000	91.033870
1084.000000	91.227511
1083.000000	91.426326
1082.000000	91.615103
1081.000000	91.796636
1080.000000	91.976203
1079.000000	92.144307
1078.000000	92.293224
1077.000000	92.431974
1076.000000	92.568531
1075.000000	92.694439
1074.000000	92.802952
1073.000000	92.902572
1072.000000	92.995616
1071.000000	93.065782
1070.000000	93.102986
1069.000000	93.120547
1068.000000	93.131452
1067.000000	93.129280
1066.000000	93.109943
1065.000000	93.089091
1064.000000	93.079256
1063.000000	93.072089
1062.000000	93.060603
1061.000000	93.057360
1060.000000	93.071713
1059.000000	93.091306
1058.000000	93.105212
1057.000000	93.124163
1056.000000	93.158842
1055.000000	93.199775
1054.000000	93.239184
1053.000000	93.289913
1052.000000	93.361256
1051.000000	93.435904
1050.000000	93.495026
1049.000000	93.545844
1048.000000	93.601638
1047.000000	93.655905
1046.000000	93.697557
1045.000000	93.729881
1044.000000	93.753597
1043.000000	93.754438
1042.000000	93.725952
1041.000000	93.684300
1040.000000	93.641032
1039.000000	93.582792
1038.000000	93.497665
1037.000000	93.399478
1036.000000	93.305988
1035.000000	93.214595
1034.000000	93.119552
1033.000000	93.032003
1032.000000	92.962114
1031.000000	92.901361
1030.000000	92.843141
1029.000000	92.801920
1028.000000	92.791358
1027.000000	92.801681
1026.000000	92.818358
1025.000000	92.843299
1024.000000	92.879810
1023.000000	92.916342
1022.000000	92.946416
1021.000000	92.984677
1020.000000	93.041917
1019.000000	93.104524
1018.000000	93.158636
1017.000000	93.215512
1016.000000	93.290890
1015.000000	93.378589
1014.000000	93.465500
1013.000000	93.554749
1012.000000	93.653201
1011.000000	93.754522
1010.000000	93.853712
1009.000000	93.960829
1008.000000	94.081077
1007.000000	94.199587
1006.000000	94.303802
1005.000000	94.401475
1004.000000	94.499630
1003.000000	94.586161
1002.000000	94.651796
1001.000000	94.708683
1000.000000	94.768891
999.000000	94.823623
998.000000	94.862959
997.000000	94.895588
996.000000	94.929563
995.000000	94.954853
994.000000	94.964270
993.000000	94.971948
992.000000	94.990719
991.000000	95.010782
990.000000	95.019652
989.000000	95.024682
988.000000	95.035864
987.000000	95.045552
986.000000	95.043268
985.000000	95.033215
984.000000	95.019759
983.000000	94.995015
982.000000	94.958061
981.000000	94.925817
980.000000	94.907303
979.000000	94.886264
978.000000	94.846693
977.000000	94.795182
976.000000	94.741952
975.000000	94.681211
974.000000	94.609213
973.000000	94.540487
972.000000	94.487570
971.000000	94.443717
970.000000	94.402796
969.000000	94.376052
968.000000	94.372305
967.000000	94.381891
966.000000	94.397348
965.000000	94.429185
964.000000	94.482755
963.000000	94.542232
962.000000	94.594855
961.000000	94.651264
960.000000	94.722397
959.000000	94.798122
958.000000	94.868303
957.000000	94.943715
956.000000	95.036957
955.000000	95.142182
954.000000	95.251987
953.000000	95.372831
952.000000	95.505515
951.000000	95.631654
950.000000	95.738984
949.000000	95.838249
948.000000	95.938253
947.000000	96.027304
946.000000	96.097885
945.000000	96.164438
944.000000	96.237664
943.000000	96.305647
942.000000	96.359804
941.000000	96.414042
940.000000	96.476839
939.000000	96.531725
938.000000	96.567014
937.000000	96.600848
936.000000	96.652418
935.000000	96.712725
934.000000	96.765760
933.000000	96.815049
932.000000	96.866602
931.000000	96.909564
930.000000	96.937725
929.000000	96.967243
928.000000	97.011225
927.000000	97.058589
926.000000	97.099445
925.000000	97.145767
924.000000	97.205728
923.000000	97.262033
922.000000	97.300448
921.000000	97.335446
920.000000	97.384293
919.000000	97.439291
918.000000	97.489212
917.000000	97.544340
916.000000	97.614691
915.000000	97.686662
914.000000	97.745019
913.000000	97.797315
912.000000	97.853107
911.000000	97.902880
910.000000	97.940003
909.000000	97.980338
908.000000	98.035571
907.000000	98.090482
906.000000	98.129827
905.000000	98.163425
904.000000	98.201861
903.000000	98.232036
902.000000	98.242703
901.000000	98.249863
900.000000	98.272736
899.000000	98.305661
898.000000	98.336986
897.000000	98.370708
896.000000	98.408321
895.000000	98.433809
894.000000	98.439281
893.000000	98.440436
892.000000	98.443685
891.000000	98.423251
890.000000	98.345800
889.000000	98.184934
888.000000	97.892710
887.000000	97.398680
886.000000	96.681992
885.000000	95.820532
884.000000	94.932304
883.000000	94.082373
882.000000	93.254292
881.000000	92.384957
880.000000	91.407413
879.000000	90.298222
878.000000	89.119772
877.000000	88.008236
876.000000	87.101045
875.000000	86.489468
874.000000	86.244366
873.000000	86.430828
872.000000	87.064893
871.000000	88.062686
870.000000	89.266324
869.000000	90.516284
868.000000	91.685062
867.000000	92.687690
866.000000	93.502333
865.000000	94.168226
864.000000	94.728862
863.000000	95.193628
862.000000	95.566182
861.000000	95.876607
860.000000	96.154061
859.000000	96.395762
858.000000	96.594295
857.000000	96.764845
856.000000	96.918868
855.000000	97.043153
854.000000	97.132855
853.000000	97.209977
852.000000	97.274326
851.000000	97.276027
850.000000	97.185048
849.000000	97.060753
848.000000	97.007335
847.000000	97.072364
846.000000	97.221347
845.000000	97.392072
844.000000	97.537322
843.000000	97.633912
842.000000	97.689652
841.000000	97.735419
840.000000	97.787100
839.000000	97.827397
838.000000	97.839811
837.000000	97.836500
836.000000	97.832279
835.000000	97.820403
834.000000	97.797516
833.000000	97.784939
832.000000	97.798539
831.000000	97.824465
830.000000	97.849882
829.000000	97.889812
828.000000	97.956114
827.000000	98.028087
826.000000	98.083811
825.000000	98.131377
824.000000	98.180300
823.000000	98.214817
822.000000	98.227611
821.000000	98.244298
820.000000	98.283170
819.000000	98.324146
818.000000	98.345836
817.000000	98.359622
816.000000	98.379898
815.000000	98.394711
814.000000	98.393989
813.000000	98.395012
812.000000	98.410280
811.000000	98.420615
810.000000	98.408189
809.000000	98.386435
808.000000	98.370382
807.000000	98.349721
806.000000	98.317876
805.000000	98.294134
804.000000	98.288626
803.000000	98.278805
802.000000	98.248721
801.000000	98.216865
800.000000	98.197110
799.000000	98.168840
798.000000	98.117303
797.000000	98.067202
796.000000	98.043207
795.000000	98.030738
794.000000	98.007709
793.000000	97.981691
792.000000	97.964380
791.000000	97.942490
790.000000	97.905297
789.000000	97.869636
788.000000	97.847687
787.000000	97.821287
786.000000	97.777101
785.000000	97.735896
784.000000	97.717698
783.000000	97.708186
782.000000	97.687818
781.000000	97.664079
780.000000	97.646936
779.000000	97.622874
778.000000	97.582180
777.000000	97.543306
776.000000	97.522428
775.000000	97.506391
774.000000	97.480805
773.000000	97.455702
772.000000	97.438653
771.000000	97.414232
770.000000	97.375841
769.000000	97.346400
768.000000	97.340592
767.000000	97.336954
766.000000	97.312977
765.000000	97.276713
764.000000	97.239456
763.000000	97.190843
762.000000	97.127764
761.000000	97.072890
760.000000	97.036641
759.000000	96.994082
758.000000	96.927693
757.000000	96.859126
756.000000	96.810969
755.000000	96.772312
754.000000	96.731341
753.000000	96.706192
752.000000	96.710058
751.000000	96.718900
750.000000	96.706277
749.000000	96.681741
748.000000	96.664629
747.000000	96.650687
746.000000	96.633406
745.000000	96.626486
744.000000	96.634314
743.000000	96.631619
742.000000	96.602473
741.000000	96.568552
740.000000	96.550754
739.000000	96.533803
738.000000	96.497279
737.000000	96.448519
736.000000	96.397737
735.000000	96.332974
734.000000	96.248028
733.000000	96.161799
732.000000	96.085003
731.000000	96.002591
730.000000	95.913261
729.000000	95.844661
728.000000	95.806566
727.000000	95.769847
726.000000	95.714588
725.000000	95.661957
724.000000	95.628110
723.000000	95.586495
722.000000	95.505343
721.000000	95.386361
720.000000	95.234713
719.000000	95.023621
718.000000	94.715771
717.000000	94.281260
716.000000	93.680782
715.000000	92.901103
714.000000	92.057720
713.000000	91.403383
712.000000	91.160015
711.000000	91.343469
710.000000	91.782333
709.000000	92.270278
708.000000	92.669226
707.000000	92.925593
706.000000	93.054947
705.000000	93.111775
704.000000	93.137041
703.000000	93.132513
702.000000	93.099117
701.000000	93.065709
700.000000	93.048577
699.000000	93.026811
698.000000	92.983849
697.000000	92.941804
696.000000	92.923343
695.000000	92.911324
694.000000	92.889965
693.000000	92.884428
692.000000	92.915259
691.000000	92.957046
690.000000	92.975509
689.000000	92.973448
688.000000	92.966323
687.000000	92.946052
686.000000	92.916499
685.000000	92.913012
684.000000	92.942702
683.000000	92.958381
682.000000	92.931695
681.000000	92.899616
680.000000	92.898463
679.000000	92.908982
678.000000	92.909371
677.000000	92.916731
676.000000	92.949250
675.000000	92.986805
674.000000	93.018463
673.000000	93.075962
672.000000	93.180979
671.000000	93.315268
670.000000	93.475908
669.000000	93.693011
668.000000	93.877904
667.000000	93.882185
666.000000	93.812914
665.000000	93.744804
664.000000	93.699540
663.000000	93.681905
662.000000	93.682159
661.000000	93.699387
660.000000	93.732008
659.000000	93.757800
658.000000	93.756189
657.000000	93.728025
656.000000	93.688737
655.000000	93.638770
654.000000	93.567668
653.000000	93.478735
652.000000	93.386671
651.000000	93.293497
650.000000	93.192635
649.000000	93.085218
648.000000	92.975802
647.000000	92.860328
646.000000	92.733002
645.000000	92.601756
644.000000	92.472506
643.000000	92.333725
642.000000	92.183090
641.000000	92.041903
640.000000	91.922816
639.000000	91.810856
638.000000	91.697223
637.000000	91.608200
636.000000	91.575337
635.000000	91.590587
634.000000	91.624861
633.000000	91.671123
632.000000	91.732566
631.000000	91.789358
630.000000	91.815642
629.000000	91.814969
628.000000	91.807134
627.000000	91.795192
626.000000	91.770209
625.000000	91.738789
624.000000	91.708554
623.000000	91.664993
622.000000	91.595501
621.000000	91.516882
620.000000	91.448483
619.000000	91.380371
618.000000	91.297539
617.000000	91.214249
616.000000	91.152595
615.000000	91.108833
614.000000	91.070152
613.000000	91.038540
612.000000	91.014674
611.000000	90.988497
610.000000	90.971311
609.000000	90.999932
608.000000	91.082192
607.000000	91.175518
606.000000	91.249905
605.000000	91.339366
604.000000	91.490807
603.000000	91.701188
602.000000	91.944743
601.000000	92.215047
600.000000	92.495310
599.000000	92.737130
598.000000	92.918381
597.000000	93.079236
596.000000	93.255992
595.000000	93.429305
594.000000	93.574574
593.000000	93.711228
592.000000	93.851894
591.000000	93.957083
590.000000	94.000574
589.000000	94.025614
588.000000	94.079473
587.000000	94.144377
586.000000	94.184192
585.000000	94.210732
584.000000	94.252996
583.000000	94.301377
582.000000	94.334458
581.000000	94.360369
580.000000	94.388471
579.000000	94.403592
578.000000	94.407298
577.000000	94.432688
576.000000	94.481062
575.000000	94.502147
574.000000	94.480104
573.000000	94.470214
572.000000	94.506520
571.000000	94.549322
570.000000	94.563959
569.000000	94.585434
568.000000	94.646498
567.000000	94.711159
566.000000	94.741144
565.000000	94.758668
564.000000	94.781981
563.000000	94.772056
562.000000	94.707883
561.000000	94.646186
560.000000	94.640857
559.000000	94.664468
558.000000	94.671264
557.000000	94.673069
556.000000	94.693883
555.000000	94.712301
554.000000	94.711733
553.000000	94.723449
552.000000	94.761320
551.000000	94.781180
550.000000	94.761832
549.000000	94.756329
548.000000	94.798543
547.000000	94.837066
546.000000	94.824999
545.000000	94.801136
544.000000	94.810189
543.000000	94.824972
542.000000	94.816342
541.000000	94.818752
540.000000	94.854708
539.000000	94.870919
538.000000	94.823249
537.000000	94.755897
536.000000	94.727197
535.000000	94.726190
534.000000	94.730337
533.000000	94.764146
532.000000	94.828480
531.000000	94.852337
530.000000	94.797868
529.000000	94.736541
528.000000	94.744783
527.000000	94.798201
526.000000	94.835008
525.000000	94.858499
524.000000	94.891249
523.000000	94.905148
522.000000	94.885639
521.000000	94.888093
520.000000	94.953023
519.000000	95.026664
518.000000	95.044909
517.000000	95.038343
516.000000	95.060349
515.000000	95.091724
514.000000	95.107234
513.000000	95.143541
512.000000	95.225407
511.000000	95.302148
510.000000	95.334070
509.000000	95.367396
508.000000	95.444953
507.000000	95.517119
506.000000	95.526228
505.000000	95.506210
504.000000	95.512544
503.000000	95.536332
502.000000	95.559540
501.000000	95.611177
500.000000	95.692780
499.000000	95.743075
498.000000	95.739054
497.000000	95.740845
496.000000	95.782017
495.000000	95.806866
494.000000	95.782969
493.000000	95.773961
492.000000	95.821355
491.000000	95.862687
490.000000	95.853680
489.000000	95.856762
488.000000	95.917659
487.000000	95.972677
486.000000	95.965336
485.000000	95.953434
484.000000	96.003947
483.000000	96.079313
482.000000	96.135137
481.000000	96.208504
480.000000	96.311726
479.000000	96.360316
478.000000	96.307286
477.000000	96.247497
476.000000	96.283834
475.000000	96.393025
474.000000	96.517431
473.000000	96.671381
472.000000	96.844568
471.000000	96.931829
470.000000	96.903623
469.000000	96.876562
468.000000	96.923782
467.000000	96.966660
466.000000	96.937060
465.000000	96.917298
464.000000	96.996658
463.000000	97.132001
462.000000	97.259282
461.000000	97.420170
460.000000	97.655069
459.000000	97.878347
458.000000	97.985349
457.000000	98.019195
456.000000	98.064940
455.000000	98.091193
454.000000	98.076911
453.000000	98.106090
452.000000	98.229797
451.000000	98.362460
450.000000	98.447110
