PE IR       SUBTECH     SPECTRUM    ASCII       PEDS        4.00        
   -1
3C-YYX-C012_1.ASC
23/09/07
11:21:02.00
23/09/07
11:30:09.00
uco
Sample 012 By uco Date Thursday, September 07 2023
450.000000
#HDR
-1
-1
#GR
cm-1
%T
1.0
0.0
4000.000000
-1.000000
3551
8
98.629475
78.706374
#DATA
4000.000000	98.559015
3999.000000	98.556301
3998.000000	98.552130
3997.000000	98.548248
3996.000000	98.546184
3995.000000	98.546517
3994.000000	98.548654
3993.000000	98.551103
3992.000000	98.552273
3991.000000	98.551300
3990.000000	98.548409
3989.000000	98.544624
3988.000000	98.541203
3987.000000	98.539021
3986.000000	98.538180
3985.000000	98.538125
3984.000000	98.538237
3983.000000	98.538449
3982.000000	98.539288
3981.000000	98.541268
3980.000000	98.544166
3979.000000	98.546827
3978.000000	98.547788
3977.000000	98.546268
3976.000000	98.542802
3975.000000	98.539142
3974.000000	98.537274
3973.000000	98.538217
3972.000000	98.541364
3971.000000	98.544837
3970.000000	98.546675
3969.000000	98.545936
3968.000000	98.543221
3967.000000	98.540215
3966.000000	98.538479
3965.000000	98.538475
3964.000000	98.539394
3963.000000	98.539878
3962.000000	98.539087
3961.000000	98.537166
3960.000000	98.534699
3959.000000	98.532036
3958.000000	98.529139
3957.000000	98.525954
3956.000000	98.522887
3955.000000	98.520677
3954.000000	98.519728
3953.000000	98.519572
3952.000000	98.519166
3951.000000	98.518001
3950.000000	98.516868
3949.000000	98.517395
3948.000000	98.520370
3947.000000	98.524447
3946.000000	98.527059
3945.000000	98.526505
3944.000000	98.523319
3943.000000	98.519846
3942.000000	98.518059
3941.000000	98.518237
3940.000000	98.519407
3939.000000	98.520447
3938.000000	98.520641
3937.000000	98.519523
3936.000000	98.517160
3935.000000	98.514665
3934.000000	98.514181
3933.000000	98.517954
3932.000000	98.526194
3931.000000	98.535942
3930.000000	98.542700
3929.000000	98.543891
3928.000000	98.540651
3927.000000	98.536072
3926.000000	98.532628
3925.000000	98.530807
3924.000000	98.529702
3923.000000	98.528658
3922.000000	98.527623
3921.000000	98.525804
3920.000000	98.521358
3919.000000	98.513530
3918.000000	98.505213
3917.000000	98.501525
3916.000000	98.504567
3915.000000	98.511074
3914.000000	98.515648
3913.000000	98.515504
3912.000000	98.511572
3911.000000	98.507044
3910.000000	98.504855
3909.000000	98.505783
3908.000000	98.508348
3907.000000	98.509920
3906.000000	98.508821
3905.000000	98.506468
3904.000000	98.507151
3903.000000	98.514144
3902.000000	98.525640
3901.000000	98.535660
3900.000000	98.539557
3899.000000	98.537122
3898.000000	98.531422
3897.000000	98.525876
3896.000000	98.522171
3895.000000	98.520814
3894.000000	98.522254
3893.000000	98.526964
3892.000000	98.534135
3891.000000	98.540860
3890.000000	98.543874
3889.000000	98.542161
3888.000000	98.536739
3887.000000	98.529983
3886.000000	98.525032
3885.000000	98.523590
3884.000000	98.525092
3883.000000	98.527980
3882.000000	98.530650
3881.000000	98.531524
3880.000000	98.529353
3879.000000	98.524598
3878.000000	98.519777
3877.000000	98.517258
3876.000000	98.517900
3875.000000	98.521160
3874.000000	98.524816
3873.000000	98.525749
3872.000000	98.522454
3871.000000	98.516990
3870.000000	98.513390
3869.000000	98.513405
3868.000000	98.514989
3867.000000	98.515125
3866.000000	98.513374
3865.000000	98.512419
3864.000000	98.515095
3863.000000	98.520993
3862.000000	98.526180
3861.000000	98.526971
3860.000000	98.523295
3859.000000	98.517573
3858.000000	98.511855
3857.000000	98.506332
3856.000000	98.500762
3855.000000	98.495318
3854.000000	98.488901
3853.000000	98.482196
3852.000000	98.479552
3851.000000	98.482930
3850.000000	98.489988
3849.000000	98.498216
3848.000000	98.506053
3847.000000	98.512366
3846.000000	98.516321
3845.000000	98.518248
3844.000000	98.519835
3843.000000	98.522535
3842.000000	98.525153
3841.000000	98.524934
3840.000000	98.520510
3839.000000	98.513418
3838.000000	98.507273
3837.000000	98.505419
3836.000000	98.508636
3835.000000	98.514502
3834.000000	98.518927
3833.000000	98.519395
3832.000000	98.516847
3831.000000	98.513958
3830.000000	98.512313
3829.000000	98.511005
3828.000000	98.508249
3827.000000	98.503989
3826.000000	98.499863
3825.000000	98.497020
3824.000000	98.495021
3823.000000	98.493840
3822.000000	98.494599
3821.000000	98.497894
3820.000000	98.501380
3819.000000	98.501633
3818.000000	98.498050
3817.000000	98.492627
3816.000000	98.488212
3815.000000	98.485589
3814.000000	98.484181
3813.000000	98.483888
3812.000000	98.485327
3811.000000	98.489382
3810.000000	98.495615
3809.000000	98.501740
3808.000000	98.505331
3807.000000	98.506270
3806.000000	98.506896
3805.000000	98.509211
3804.000000	98.512758
3803.000000	98.517165
3802.000000	98.523118
3801.000000	98.529137
3800.000000	98.531363
3799.000000	98.528392
3798.000000	98.521285
3797.000000	98.513123
3796.000000	98.507832
3795.000000	98.507083
3794.000000	98.509544
3793.000000	98.513003
3792.000000	98.516041
3791.000000	98.518133
3790.000000	98.519118
3789.000000	98.519009
3788.000000	98.518551
3787.000000	98.518758
3786.000000	98.519845
3785.000000	98.520639
3784.000000	98.519484
3783.000000	98.516089
3782.000000	98.512258
3781.000000	98.510524
3780.000000	98.511848
3779.000000	98.514575
3778.000000	98.515784
3777.000000	98.514505
3776.000000	98.512376
3775.000000	98.511641
3774.000000	98.512865
3773.000000	98.514561
3772.000000	98.514955
3771.000000	98.514107
3770.000000	98.513635
3769.000000	98.514323
3768.000000	98.515707
3767.000000	98.517263
3766.000000	98.519224
3765.000000	98.521659
3764.000000	98.523385
3763.000000	98.522774
3762.000000	98.519454
3761.000000	98.514639
3760.000000	98.509790
3759.000000	98.505884
3758.000000	98.503732
3757.000000	98.504349
3756.000000	98.508152
3755.000000	98.514519
3754.000000	98.522185
3753.000000	98.529008
3752.000000	98.531174
3751.000000	98.525438
3750.000000	98.514257
3749.000000	98.504993
3748.000000	98.502156
3747.000000	98.504478
3746.000000	98.509701
3745.000000	98.516364
3744.000000	98.521638
3743.000000	98.524466
3742.000000	98.525983
3741.000000	98.525144
3740.000000	98.521349
3739.000000	98.516705
3738.000000	98.514346
3737.000000	98.516837
3736.000000	98.526693
3735.000000	98.543928
3734.000000	98.561978
3733.000000	98.572507
3732.000000	98.573456
3731.000000	98.568714
3730.000000	98.562300
3729.000000	98.555407
3728.000000	98.548446
3727.000000	98.542043
3726.000000	98.535322
3725.000000	98.526362
3724.000000	98.516229
3723.000000	98.509759
3722.000000	98.510285
3721.000000	98.516329
3720.000000	98.523762
3719.000000	98.530001
3718.000000	98.535516
3717.000000	98.541698
3716.000000	98.548814
3715.000000	98.555635
3714.000000	98.559209
3713.000000	98.556394
3712.000000	98.547411
3711.000000	98.537850
3710.000000	98.532768
3709.000000	98.531579
3708.000000	98.532051
3707.000000	98.533936
3706.000000	98.538201
3705.000000	98.545369
3704.000000	98.554200
3703.000000	98.561220
3702.000000	98.563043
3701.000000	98.560044
3700.000000	98.556246
3699.000000	98.554173
3698.000000	98.552401
3697.000000	98.548194
3696.000000	98.540803
3695.000000	98.532274
3694.000000	98.526057
3693.000000	98.525910
3692.000000	98.534467
3691.000000	98.550907
3690.000000	98.567279
3689.000000	98.571017
3688.000000	98.557834
3687.000000	98.537375
3686.000000	98.520370
3685.000000	98.509070
3684.000000	98.501007
3683.000000	98.494398
3682.000000	98.489271
3681.000000	98.485331
3680.000000	98.480864
3679.000000	98.473633
3678.000000	98.463722
3677.000000	98.456382
3676.000000	98.458940
3675.000000	98.469464
3674.000000	98.475369
3673.000000	98.469720
3672.000000	98.455149
3671.000000	98.439868
3670.000000	98.431773
3669.000000	98.430584
3668.000000	98.429826
3667.000000	98.426026
3666.000000	98.419982
3665.000000	98.414080
3664.000000	98.409872
3663.000000	98.407232
3662.000000	98.404810
3661.000000	98.401313
3660.000000	98.396836
3659.000000	98.392464
3658.000000	98.388877
3657.000000	98.385702
3656.000000	98.382714
3655.000000	98.381246
3654.000000	98.382265
3653.000000	98.383649
3652.000000	98.380952
3651.000000	98.370493
3650.000000	98.353727
3649.000000	98.338560
3648.000000	98.330112
3647.000000	98.324558
3646.000000	98.317263
3645.000000	98.308458
3644.000000	98.300680
3643.000000	98.295678
3642.000000	98.293384
3641.000000	98.292324
3640.000000	98.291354
3639.000000	98.290581
3638.000000	98.289948
3637.000000	98.287896
3636.000000	98.282374
3635.000000	98.273347
3634.000000	98.263389
3633.000000	98.254920
3632.000000	98.247489
3631.000000	98.238920
3630.000000	98.228473
3629.000000	98.218894
3628.000000	98.213018
3627.000000	98.209206
3626.000000	98.204196
3625.000000	98.196278
3624.000000	98.187523
3623.000000	98.182237
3622.000000	98.182708
3621.000000	98.185910
3620.000000	98.183542
3619.000000	98.168111
3618.000000	98.141717
3617.000000	98.114659
3616.000000	98.095280
3615.000000	98.084828
3614.000000	98.078999
3613.000000	98.072108
3612.000000	98.061795
3611.000000	98.049652
3610.000000	98.037232
3609.000000	98.025002
3608.000000	98.014184
3607.000000	98.006675
3606.000000	98.003004
3605.000000	98.001621
3604.000000	98.000820
3603.000000	97.999223
3602.000000	97.995370
3601.000000	97.988181
3600.000000	97.977969
3599.000000	97.966398
3598.000000	97.954866
3597.000000	97.943078
3596.000000	97.929855
3595.000000	97.915687
3594.000000	97.902786
3593.000000	97.892922
3592.000000	97.885584
3591.000000	97.879149
3590.000000	97.872138
3589.000000	97.863716
3588.000000	97.853473
3587.000000	97.841935
3586.000000	97.830203
3585.000000	97.819155
3584.000000	97.808794
3583.000000	97.797768
3582.000000	97.784469
3581.000000	97.768888
3580.000000	97.753105
3579.000000	97.739941
3578.000000	97.730557
3577.000000	97.723876
3576.000000	97.717551
3575.000000	97.709493
3574.000000	97.698194
3573.000000	97.683019
3572.000000	97.665139
3571.000000	97.647463
3570.000000	97.632579
3569.000000	97.620424
3568.000000	97.608599
3567.000000	97.595665
3566.000000	97.582954
3565.000000	97.571919
3564.000000	97.562194
3563.000000	97.552410
3562.000000	97.541629
3561.000000	97.529782
3560.000000	97.516935
3559.000000	97.502584
3558.000000	97.486444
3557.000000	97.469582
3556.000000	97.454091
3555.000000	97.441296
3554.000000	97.430393
3553.000000	97.418946
3552.000000	97.405280
3551.000000	97.390266
3550.000000	97.376557
3549.000000	97.366312
3548.000000	97.359659
3547.000000	97.354781
3546.000000	97.349340
3545.000000	97.342073
3544.000000	97.332837
3543.000000	97.321338
3542.000000	97.306521
3541.000000	97.288034
3540.000000	97.267984
3539.000000	97.250184
3538.000000	97.237065
3537.000000	97.227304
3536.000000	97.216903
3535.000000	97.202762
3534.000000	97.184869
3533.000000	97.165852
3532.000000	97.149266
3531.000000	97.137931
3530.000000	97.132230
3529.000000	97.129498
3528.000000	97.125943
3527.000000	97.119702
3526.000000	97.111761
3525.000000	97.103941
3524.000000	97.096587
3523.000000	97.088224
3522.000000	97.076954
3521.000000	97.061998
3520.000000	97.044374
3519.000000	97.026444
3518.000000	97.010607
3517.000000	96.997823
3516.000000	96.987086
3515.000000	96.976640
3514.000000	96.965381
3513.000000	96.953333
3512.000000	96.941190
3511.000000	96.929663
3510.000000	96.918792
3509.000000	96.907799
3508.000000	96.895985
3507.000000	96.883991
3506.000000	96.873616
3505.000000	96.865802
3504.000000	96.859132
3503.000000	96.851031
3502.000000	96.840679
3501.000000	96.829727
3500.000000	96.819733
3499.000000	96.810252
3498.000000	96.800171
3497.000000	96.789940
3496.000000	96.780793
3495.000000	96.771901
3494.000000	96.760114
3493.000000	96.743672
3492.000000	96.725168
3491.000000	96.709654
3490.000000	96.699941
3489.000000	96.694254
3488.000000	96.688341
3487.000000	96.679232
3486.000000	96.666967
3485.000000	96.653360
3484.000000	96.639971
3483.000000	96.627434
3482.000000	96.615980
3481.000000	96.605733
3480.000000	96.596251
3479.000000	96.586417
3478.000000	96.575631
3477.000000	96.564841
3476.000000	96.555736
3475.000000	96.548808
3474.000000	96.542822
3473.000000	96.536181
3472.000000	96.527829
3471.000000	96.516895
3470.000000	96.502980
3469.000000	96.487559
3468.000000	96.473749
3467.000000	96.463378
3466.000000	96.455138
3465.000000	96.446981
3464.000000	96.439333
3463.000000	96.434196
3462.000000	96.431244
3461.000000	96.426754
3460.000000	96.416926
3459.000000	96.401181
3458.000000	96.381933
3457.000000	96.362437
3456.000000	96.345543
3455.000000	96.333216
3454.000000	96.325827
3453.000000	96.322204
3452.000000	96.320824
3451.000000	96.321086
3450.000000	96.323000
3449.000000	96.325681
3448.000000	96.326495
3447.000000	96.322122
3446.000000	96.310959
3445.000000	96.294591
3444.000000	96.276691
3443.000000	96.260638
3442.000000	96.248218
3441.000000	96.239848
3440.000000	96.234977
3439.000000	96.231772
3438.000000	96.227357
3437.000000	96.219720
3436.000000	96.209516
3435.000000	96.199135
3434.000000	96.189925
3433.000000	96.181249
3432.000000	96.172117
3431.000000	96.162777
3430.000000	96.154274
3429.000000	96.147308
3428.000000	96.141912
3427.000000	96.137504
3426.000000	96.132867
3425.000000	96.126742
3424.000000	96.118857
3423.000000	96.109756
3422.000000	96.099314
3421.000000	96.086433
3420.000000	96.071048
3419.000000	96.055658
3418.000000	96.043528
3417.000000	96.035484
3416.000000	96.029207
3415.000000	96.021682
3414.000000	96.011974
3413.000000	96.001618
3412.000000	95.992630
3411.000000	95.985312
3410.000000	95.978069
3409.000000	95.969415
3408.000000	95.959952
3407.000000	95.951795
3406.000000	95.945971
3405.000000	95.940826
3404.000000	95.933397
3403.000000	95.922292
3402.000000	95.909117
3401.000000	95.897162
3400.000000	95.888434
3399.000000	95.881617
3398.000000	95.872930
3397.000000	95.859610
3396.000000	95.842663
3395.000000	95.825811
3394.000000	95.811812
3393.000000	95.800362
3392.000000	95.789483
3391.000000	95.778166
3390.000000	95.767245
3389.000000	95.758216
3388.000000	95.751785
3387.000000	95.747273
3386.000000	95.742944
3385.000000	95.736815
3384.000000	95.727372
3383.000000	95.713960
3382.000000	95.697235
3381.000000	95.679682
3380.000000	95.664931
3379.000000	95.655210
3378.000000	95.649125
3377.000000	95.642598
3376.000000	95.632278
3375.000000	95.617840
3374.000000	95.601372
3373.000000	95.585501
3372.000000	95.572057
3371.000000	95.561280
3370.000000	95.551427
3369.000000	95.539755
3368.000000	95.524794
3367.000000	95.507700
3366.000000	95.491044
3365.000000	95.476520
3364.000000	95.464098
3363.000000	95.452900
3362.000000	95.442106
3361.000000	95.430901
3360.000000	95.418024
3359.000000	95.401959
3358.000000	95.381946
3357.000000	95.358901
3356.000000	95.335122
3355.000000	95.312843
3354.000000	95.293068
3353.000000	95.275651
3352.000000	95.259951
3351.000000	95.245091
3350.000000	95.230264
3349.000000	95.215495
3348.000000	95.201729
3347.000000	95.189344
3346.000000	95.176842
3345.000000	95.161889
3344.000000	95.143717
3343.000000	95.123915
3342.000000	95.104717
3341.000000	95.087157
3340.000000	95.070947
3339.000000	95.055382
3338.000000	95.039931
3337.000000	95.024243
3336.000000	95.007791
3335.000000	94.989631
3334.000000	94.968985
3333.000000	94.946559
3332.000000	94.924914
3331.000000	94.906821
3330.000000	94.893166
3329.000000	94.882679
3328.000000	94.873154
3327.000000	94.862347
3326.000000	94.848511
3325.000000	94.831485
3324.000000	94.813261
3323.000000	94.796291
3322.000000	94.780969
3321.000000	94.765702
3320.000000	94.749344
3319.000000	94.732405
3318.000000	94.715781
3317.000000	94.699662
3316.000000	94.684350
3315.000000	94.671027
3314.000000	94.660568
3313.000000	94.652013
3312.000000	94.642927
3311.000000	94.631144
3310.000000	94.616075
3309.000000	94.598950
3308.000000	94.582127
3307.000000	94.567553
3306.000000	94.555349
3305.000000	94.544030
3304.000000	94.532082
3303.000000	94.518991
3302.000000	94.505017
3301.000000	94.490977
3300.000000	94.478436
3299.000000	94.468969
3298.000000	94.462474
3297.000000	94.456785
3296.000000	94.449520
3295.000000	94.440096
3294.000000	94.429701
3293.000000	94.419971
3292.000000	94.412085
3291.000000	94.406405
3290.000000	94.402298
3289.000000	94.398521
3288.000000	94.394286
3287.000000	94.389851
3286.000000	94.386013
3285.000000	94.383309
3284.000000	94.381517
3283.000000	94.379462
3282.000000	94.375694
3281.000000	94.370532
3280.000000	94.367615
3279.000000	94.371755
3278.000000	94.384198
3277.000000	94.400553
3276.000000	94.414382
3275.000000	94.422809
3274.000000	94.427968
3273.000000	94.433811
3272.000000	94.442362
3271.000000	94.452574
3270.000000	94.461753
3269.000000	94.468065
3268.000000	94.472564
3267.000000	94.478971
3266.000000	94.490841
3265.000000	94.508592
3264.000000	94.529405
3263.000000	94.549778
3262.000000	94.567793
3261.000000	94.583369
3260.000000	94.597482
3259.000000	94.611635
3258.000000	94.627634
3257.000000	94.646956
3256.000000	94.669681
3255.000000	94.693883
3254.000000	94.716527
3253.000000	94.735702
3252.000000	94.752139
3251.000000	94.768289
3250.000000	94.785775
3249.000000	94.804113
3248.000000	94.821890
3247.000000	94.838258
3246.000000	94.852684
3245.000000	94.863844
3244.000000	94.870202
3243.000000	94.872298
3242.000000	94.873793
3241.000000	94.879485
3240.000000	94.891980
3239.000000	94.910231
3238.000000	94.931037
3237.000000	94.951413
3236.000000	94.969525
3235.000000	94.984347
3234.000000	94.995748
3233.000000	95.005070
3232.000000	95.014449
3231.000000	95.024729
3230.000000	95.034472
3229.000000	95.041714
3228.000000	95.046412
3227.000000	95.050636
3226.000000	95.056724
3225.000000	95.065859
3224.000000	95.077771
3223.000000	95.090770
3222.000000	95.102489
3221.000000	95.111871
3220.000000	95.120448
3219.000000	95.130321
3218.000000	95.140689
3217.000000	95.148125
3216.000000	95.150957
3215.000000	95.152126
3214.000000	95.156355
3213.000000	95.165184
3212.000000	95.176256
3211.000000	95.187011
3210.000000	95.197428
3209.000000	95.208481
3208.000000	95.219531
3207.000000	95.228685
3206.000000	95.235651
3205.000000	95.242697
3204.000000	95.252057
3203.000000	95.263017
3202.000000	95.272786
3201.000000	95.280144
3200.000000	95.287016
3199.000000	95.295882
3198.000000	95.306633
3197.000000	95.316963
3196.000000	95.325102
3195.000000	95.331153
3194.000000	95.336376
3193.000000	95.342729
3192.000000	95.352891
3191.000000	95.368864
3190.000000	95.389697
3189.000000	95.411382
3188.000000	95.429668
3187.000000	95.442700
3186.000000	95.451356
3185.000000	95.458297
3184.000000	95.466932
3183.000000	95.479876
3182.000000	95.497232
3181.000000	95.516549
3180.000000	95.534722
3179.000000	95.549520
3178.000000	95.559947
3177.000000	95.566839
3176.000000	95.573768
3175.000000	95.585564
3174.000000	95.604182
3173.000000	95.626446
3172.000000	95.646731
3171.000000	95.661698
3170.000000	95.671795
3169.000000	95.679397
3168.000000	95.686999
3167.000000	95.696561
3166.000000	95.708672
3165.000000	95.721854
3164.000000	95.734028
3163.000000	95.745048
3162.000000	95.756883
3161.000000	95.770969
3160.000000	95.786505
3159.000000	95.801834
3158.000000	95.816419
3157.000000	95.830451
3156.000000	95.843330
3155.000000	95.853974
3154.000000	95.862651
3153.000000	95.871356
3152.000000	95.881695
3151.000000	95.893025
3150.000000	95.903487
3149.000000	95.912820
3148.000000	95.923218
3147.000000	95.936871
3146.000000	95.953029
3145.000000	95.968344
3144.000000	95.980190
3143.000000	95.989193
3142.000000	95.998150
3141.000000	96.009092
3140.000000	96.021733
3139.000000	96.034414
3138.000000	96.045714
3137.000000	96.055171
3136.000000	96.062839
3135.000000	96.068623
3134.000000	96.072318
3133.000000	96.074514
3132.000000	96.077065
3131.000000	96.081745
3130.000000	96.088203
3129.000000	96.094076
3128.000000	96.097891
3127.000000	96.101506
3126.000000	96.108694
3125.000000	96.121189
3124.000000	96.136700
3123.000000	96.150793
3122.000000	96.160123
3121.000000	96.163978
3120.000000	96.163727
3119.000000	96.161739
3118.000000	96.160385
3117.000000	96.161151
3116.000000	96.164079
3115.000000	96.167955
3114.000000	96.171036
3113.000000	96.171724
3112.000000	96.169157
3111.000000	96.163844
3110.000000	96.157759
3109.000000	96.153281
3108.000000	96.151387
3107.000000	96.150827
3106.000000	96.149226
3105.000000	96.145435
3104.000000	96.140918
3103.000000	96.138466
3102.000000	96.139061
3101.000000	96.140159
3100.000000	96.137943
3099.000000	96.131574
3098.000000	96.124502
3097.000000	96.121006
3096.000000	96.121972
3095.000000	96.124517
3094.000000	96.125300
3093.000000	96.123230
3092.000000	96.119166
3091.000000	96.114364
3090.000000	96.109797
3089.000000	96.105989
3088.000000	96.102462
3087.000000	96.097768
3086.000000	96.090998
3085.000000	96.083277
3084.000000	96.077161
3083.000000	96.074273
3082.000000	96.073752
3081.000000	96.073013
3080.000000	96.069899
3079.000000	96.064317
3078.000000	96.058074
3077.000000	96.053008
3076.000000	96.049146
3075.000000	96.045105
3074.000000	96.040452
3073.000000	96.037100
3072.000000	96.037628
3071.000000	96.042553
3070.000000	96.049935
3069.000000	96.057209
3068.000000	96.062563
3067.000000	96.064895
3066.000000	96.063898
3065.000000	96.060702
3064.000000	96.057433
3063.000000	96.055692
3062.000000	96.056120
3061.000000	96.059399
3060.000000	96.066232
3059.000000	96.075686
3058.000000	96.084859
3057.000000	96.091510
3056.000000	96.096394
3055.000000	96.102020
3054.000000	96.109506
3053.000000	96.117705
3052.000000	96.124990
3051.000000	96.130923
3050.000000	96.136448
3049.000000	96.143253
3048.000000	96.152588
3047.000000	96.163796
3046.000000	96.174350
3045.000000	96.182393
3044.000000	96.189151
3043.000000	96.197696
3042.000000	96.209187
3041.000000	96.221300
3040.000000	96.231028
3039.000000	96.238278
3038.000000	96.245975
3037.000000	96.256652
3036.000000	96.269523
3035.000000	96.281212
3034.000000	96.289181
3033.000000	96.294027
3032.000000	96.298208
3031.000000	96.303074
3030.000000	96.308039
3029.000000	96.312567
3028.000000	96.317613
3027.000000	96.324318
3026.000000	96.332085
3025.000000	96.338852
3024.000000	96.342984
3023.000000	96.344378
3022.000000	96.344206
3021.000000	96.344310
3020.000000	96.346410
3019.000000	96.350839
3018.000000	96.355934
3017.000000	96.359070
3016.000000	96.358428
3015.000000	96.353794
3014.000000	96.346127
3013.000000	96.336721
3012.000000	96.326234
3011.000000	96.314140
3010.000000	96.299594
3009.000000	96.282961
3008.000000	96.265854
3007.000000	96.249461
3006.000000	96.233880
3005.000000	96.219191
3004.000000	96.205438
3003.000000	96.190670
3002.000000	96.170865
3001.000000	96.143821
3000.000000	96.112205
2999.000000	96.080930
2998.000000	96.051930
2997.000000	96.023153
2996.000000	95.991970
2995.000000	95.957494
2994.000000	95.919477
2993.000000	95.877166
2992.000000	95.830087
2991.000000	95.778493
2990.000000	95.722510
2989.000000	95.661668
2988.000000	95.595829
2987.000000	95.525625
2986.000000	95.451772
2985.000000	95.374950
2984.000000	95.296260
2983.000000	95.216408
2982.000000	95.133875
2981.000000	95.044716
2980.000000	94.945354
2979.000000	94.835372
2978.000000	94.717730
2977.000000	94.596552
2976.000000	94.474234
2975.000000	94.349901
2974.000000	94.220243
2973.000000	94.082280
2972.000000	93.935253
2971.000000	93.779801
2970.000000	93.616748
2969.000000	93.447857
2968.000000	93.277116
2967.000000	93.109486
2966.000000	92.948124
2965.000000	92.794103
2964.000000	92.648599
2963.000000	92.514616
2962.000000	92.396230
2961.000000	92.297429
2960.000000	92.221487
2959.000000	92.170326
2958.000000	92.144673
2957.000000	92.144786
2956.000000	92.170978
2955.000000	92.221604
2954.000000	92.291028
2953.000000	92.370730
2952.000000	92.452149
2951.000000	92.528187
2950.000000	92.591789
2949.000000	92.635856
2948.000000	92.654741
2947.000000	92.645467
2946.000000	92.607247
2945.000000	92.540892
2944.000000	92.449262
2943.000000	92.336183
2942.000000	92.204501
2941.000000	92.055148
2940.000000	91.889022
2939.000000	91.708824
2938.000000	91.518779
2937.000000	91.323794
2936.000000	91.128814
2935.000000	90.938597
2934.000000	90.757131
2933.000000	90.587883
2932.000000	90.434448
2931.000000	90.299738
2930.000000	90.184237
2929.000000	90.085697
2928.000000	90.001983
2927.000000	89.934167
2926.000000	89.886460
2925.000000	89.863230
2924.000000	89.865727
2923.000000	89.891878
2922.000000	89.938638
2921.000000	90.004771
2920.000000	90.091459
2919.000000	90.200194
2918.000000	90.330919
2917.000000	90.482044
2916.000000	90.651501
2915.000000	90.836408
2914.000000	91.031474
2913.000000	91.229094
2912.000000	91.421790
2911.000000	91.605135
2910.000000	91.778383
2909.000000	91.943037
2908.000000	92.101087
2907.000000	92.253751
2906.000000	92.401289
2905.000000	92.543903
2904.000000	92.682999
2903.000000	92.821090
2902.000000	92.960183
2901.000000	93.100632
2900.000000	93.241061
2899.000000	93.379512
2898.000000	93.514103
2897.000000	93.643537
2896.000000	93.767479
2895.000000	93.886045
2894.000000	93.998675
2893.000000	94.103913
2892.000000	94.200566
2891.000000	94.288758
2890.000000	94.369315
2889.000000	94.442170
2888.000000	94.505503
2887.000000	94.556174
2886.000000	94.591304
2885.000000	94.609803
2884.000000	94.612704
2883.000000	94.601756
2882.000000	94.577592
2881.000000	94.539369
2880.000000	94.485721
2879.000000	94.416007
2878.000000	94.331427
2877.000000	94.236425
2876.000000	94.138857
2875.000000	94.047726
2874.000000	93.970317
2873.000000	93.910983
2872.000000	93.871725
2871.000000	93.852024
2870.000000	93.847540
2869.000000	93.849741
2868.000000	93.847860
2867.000000	93.832082
2866.000000	93.796398
2865.000000	93.740240
2864.000000	93.667301
2863.000000	93.582049
2862.000000	93.486929
2861.000000	93.383603
2860.000000	93.276253
2859.000000	93.172073
2858.000000	93.078025
2857.000000	92.998566
2856.000000	92.937266
2855.000000	92.899037
2854.000000	92.890206
2853.000000	92.916574
2852.000000	92.982219
2851.000000	93.089862
2850.000000	93.240924
2849.000000	93.434353
2848.000000	93.664523
2847.000000	93.919764
2846.000000	94.183412
2845.000000	94.438714
2844.000000	94.673968
2843.000000	94.884533
2842.000000	95.070516
2841.000000	95.233353
2840.000000	95.374935
2839.000000	95.497936
2838.000000	95.605404
2837.000000	95.699764
2836.000000	95.782411
2835.000000	95.854033
2834.000000	95.915350
2833.000000	95.967951
2832.000000	96.014683
2831.000000	96.058505
2830.000000	96.100492
2829.000000	96.139462
2828.000000	96.173637
2827.000000	96.202396
2826.000000	96.226764
2825.000000	96.248974
2824.000000	96.271549
2823.000000	96.295752
2822.000000	96.320682
2821.000000	96.344638
2820.000000	96.367261
2819.000000	96.389334
2818.000000	96.410552
2817.000000	96.429076
2816.000000	96.443947
2815.000000	96.456833
2814.000000	96.470710
2813.000000	96.487632
2812.000000	96.508118
2811.000000	96.531391
2810.000000	96.555367
2809.000000	96.577476
2808.000000	96.596657
2807.000000	96.614058
2806.000000	96.631050
2805.000000	96.647278
2804.000000	96.661406
2803.000000	96.673109
2802.000000	96.683340
2801.000000	96.693194
2800.000000	96.703426
2799.000000	96.714677
2798.000000	96.727173
2797.000000	96.740273
2796.000000	96.752997
2795.000000	96.764973
2794.000000	96.776463
2793.000000	96.787695
2792.000000	96.798618
2791.000000	96.809075
2790.000000	96.818912
2789.000000	96.828256
2788.000000	96.837906
2787.000000	96.848940
2786.000000	96.861464
2785.000000	96.874184
2784.000000	96.885694
2783.000000	96.895872
2782.000000	96.905562
2781.000000	96.915134
2780.000000	96.923784
2779.000000	96.930233
2778.000000	96.934067
2777.000000	96.936667
2776.000000	96.940777
2775.000000	96.948450
2774.000000	96.959118
2773.000000	96.970055
2772.000000	96.978835
2771.000000	96.984914
2770.000000	96.988957
2769.000000	96.991815
2768.000000	96.994681
2767.000000	96.999225
2766.000000	97.006397
2765.000000	97.015171
2764.000000	97.023155
2763.000000	97.028621
2762.000000	97.031845
2761.000000	97.034666
2760.000000	97.038899
2759.000000	97.045007
2758.000000	97.051977
2757.000000	97.058344
2756.000000	97.063131
2755.000000	97.065949
2754.000000	97.066946
2753.000000	97.067252
2752.000000	97.068743
2751.000000	97.072330
2750.000000	97.076671
2749.000000	97.079537
2748.000000	97.080365
2747.000000	97.080576
2746.000000	97.081589
2745.000000	97.083770
2744.000000	97.087297
2743.000000	97.092580
2742.000000	97.099187
2741.000000	97.105388
2740.000000	97.109568
2739.000000	97.111554
2738.000000	97.112284
2737.000000	97.112939
2736.000000	97.114735
2735.000000	97.118633
2734.000000	97.124508
2733.000000	97.131044
2732.000000	97.136901
2731.000000	97.141552
2730.000000	97.144951
2729.000000	97.147329
2728.000000	97.149842
2727.000000	97.154496
2726.000000	97.162470
2725.000000	97.172741
2724.000000	97.182898
2723.000000	97.190970
2722.000000	97.196039
2721.000000	97.197858
2720.000000	97.197044
2719.000000	97.195660
2718.000000	97.196519
2717.000000	97.201025
2716.000000	97.207629
2715.000000	97.212904
2714.000000	97.214625
2713.000000	97.213875
2712.000000	97.213932
2711.000000	97.217183
2710.000000	97.223460
2709.000000	97.231026
2708.000000	97.238013
2707.000000	97.242688
2706.000000	97.243876
2705.000000	97.242476
2704.000000	97.241622
2703.000000	97.243832
2702.000000	97.248295
2701.000000	97.252227
2700.000000	97.254538
2699.000000	97.256614
2698.000000	97.259699
2697.000000	97.263282
2696.000000	97.266474
2695.000000	97.269393
2694.000000	97.272315
2693.000000	97.274530
2692.000000	97.275006
2691.000000	97.273758
2690.000000	97.271959
2689.000000	97.270957
2688.000000	97.271403
2687.000000	97.272986
2686.000000	97.274812
2685.000000	97.276243
2684.000000	97.277263
2683.000000	97.277863
2682.000000	97.277678
2681.000000	97.276931
2680.000000	97.277157
2679.000000	97.279940
2678.000000	97.285054
2677.000000	97.290717
2676.000000	97.295502
2675.000000	97.299128
2674.000000	97.301632
2673.000000	97.302901
2672.000000	97.303061
2671.000000	97.302384
2670.000000	97.300804
2669.000000	97.298320
2668.000000	97.295708
2667.000000	97.293947
2666.000000	97.293177
2665.000000	97.293239
2664.000000	97.294987
2663.000000	97.299711
2662.000000	97.306993
2661.000000	97.314118
2660.000000	97.317923
2659.000000	97.316833
2658.000000	97.311568
2657.000000	97.304949
2656.000000	97.300826
2655.000000	97.301938
2654.000000	97.308391
2653.000000	97.318478
2652.000000	97.330198
2651.000000	97.341247
2650.000000	97.348970
2649.000000	97.352558
2648.000000	97.354920
2647.000000	97.360142
2646.000000	97.368876
2645.000000	97.377961
2644.000000	97.384523
2643.000000	97.388395
2642.000000	97.390585
2641.000000	97.391887
2640.000000	97.393763
2639.000000	97.398408
2638.000000	97.406664
2637.000000	97.417120
2636.000000	97.427820
2635.000000	97.437457
2634.000000	97.444690
2633.000000	97.448366
2632.000000	97.449247
2631.000000	97.449932
2630.000000	97.452283
2629.000000	97.456430
2628.000000	97.462392
2627.000000	97.470485
2626.000000	97.479324
2625.000000	97.485653
2624.000000	97.487590
2623.000000	97.486615
2622.000000	97.485463
2621.000000	97.485593
2620.000000	97.487369
2619.000000	97.490837
2618.000000	97.495203
2617.000000	97.499019
2616.000000	97.501765
2615.000000	97.503881
2614.000000	97.505030
2613.000000	97.504495
2612.000000	97.503881
2611.000000	97.506735
2610.000000	97.513954
2609.000000	97.521800
2608.000000	97.526240
2607.000000	97.527771
2606.000000	97.530149
2605.000000	97.535740
2604.000000	97.543693
2603.000000	97.551492
2602.000000	97.556673
2601.000000	97.557636
2600.000000	97.554320
2599.000000	97.548367
2598.000000	97.542681
2597.000000	97.541114
2596.000000	97.547350
2595.000000	97.561564
2594.000000	97.577936
2593.000000	97.587877
2592.000000	97.587422
2591.000000	97.580642
2590.000000	97.575443
2589.000000	97.576937
2588.000000	97.584394
2587.000000	97.592728
2586.000000	97.596647
2585.000000	97.594973
2584.000000	97.591397
2583.000000	97.590034
2582.000000	97.591090
2581.000000	97.592602
2580.000000	97.594957
2579.000000	97.600423
2578.000000	97.608419
2577.000000	97.614877
2576.000000	97.616959
2575.000000	97.615753
2574.000000	97.613577
2573.000000	97.611241
2572.000000	97.608729
2571.000000	97.606385
2570.000000	97.604846
2569.000000	97.605542
2568.000000	97.610773
2567.000000	97.620756
2566.000000	97.631166
2565.000000	97.636807
2564.000000	97.637774
2563.000000	97.638598
2562.000000	97.641186
2561.000000	97.642211
2560.000000	97.638176
2559.000000	97.629981
2558.000000	97.621680
2557.000000	97.617520
2556.000000	97.620383
2555.000000	97.630042
2554.000000	97.642310
2553.000000	97.652428
2552.000000	97.658897
2551.000000	97.661493
2550.000000	97.657422
2549.000000	97.644853
2548.000000	97.629708
2547.000000	97.622921
2546.000000	97.629105
2545.000000	97.642430
2544.000000	97.654462
2543.000000	97.661209
2542.000000	97.661411
2541.000000	97.654286
2540.000000	97.642405
2539.000000	97.632216
2538.000000	97.627979
2537.000000	97.627900
2536.000000	97.628393
2535.000000	97.628607
2534.000000	97.628454
2533.000000	97.626141
2532.000000	97.620383
2531.000000	97.611984
2530.000000	97.600763
2529.000000	97.584468
2528.000000	97.563625
2527.000000	97.544214
2526.000000	97.532291
2525.000000	97.528056
2524.000000	97.527639
2523.000000	97.528013
2522.000000	97.527886
2521.000000	97.526548
2520.000000	97.524900
2519.000000	97.525533
2518.000000	97.528826
2517.000000	97.530537
2516.000000	97.526148
2515.000000	97.516568
2514.000000	97.507635
2513.000000	97.504775
2512.000000	97.509169
2511.000000	97.517885
2510.000000	97.526596
2509.000000	97.533413
2508.000000	97.540488
2507.000000	97.550642
2506.000000	97.563145
2505.000000	97.575318
2504.000000	97.587640
2503.000000	97.603367
2502.000000	97.622679
2501.000000	97.641326
2500.000000	97.656002
2499.000000	97.667326
2498.000000	97.676501
2497.000000	97.683699
2496.000000	97.691214
2495.000000	97.703187
2494.000000	97.719029
2493.000000	97.731482
2492.000000	97.735358
2491.000000	97.734931
2490.000000	97.738575
2489.000000	97.748234
2488.000000	97.758607
2487.000000	97.765590
2486.000000	97.771303
2485.000000	97.780432
2484.000000	97.794040
2483.000000	97.807930
2482.000000	97.816362
2481.000000	97.817296
2480.000000	97.814334
2479.000000	97.812833
2478.000000	97.814578
2477.000000	97.817831
2476.000000	97.821617
2475.000000	97.827099
2474.000000	97.834218
2473.000000	97.840065
2472.000000	97.842114
2471.000000	97.841347
2470.000000	97.841142
2469.000000	97.844304
2468.000000	97.851027
2467.000000	97.858015
2466.000000	97.860101
2465.000000	97.855336
2464.000000	97.848275
2463.000000	97.845612
2462.000000	97.848881
2461.000000	97.854121
2460.000000	97.857787
2459.000000	97.859157
2458.000000	97.857588
2457.000000	97.852509
2456.000000	97.846963
2455.000000	97.846656
2454.000000	97.853654
2453.000000	97.864420
2452.000000	97.874932
2451.000000	97.883961
2450.000000	97.890473
2449.000000	97.892474
2448.000000	97.890603
2447.000000	97.889057
2446.000000	97.890649
2445.000000	97.893872
2444.000000	97.896326
2443.000000	97.897488
2442.000000	97.896809
2441.000000	97.892979
2440.000000	97.887228
2439.000000	97.883717
2438.000000	97.884445
2437.000000	97.886846
2436.000000	97.888400
2435.000000	97.890161
2434.000000	97.893334
2433.000000	97.895636
2432.000000	97.894065
2431.000000	97.889214
2430.000000	97.884297
2429.000000	97.881523
2428.000000	97.881351
2427.000000	97.883943
2426.000000	97.889741
2425.000000	97.899222
2424.000000	97.912006
2423.000000	97.924860
2422.000000	97.931731
2421.000000	97.928974
2420.000000	97.920272
2419.000000	97.912986
2418.000000	97.909757
2417.000000	97.907467
2416.000000	97.904499
2415.000000	97.903948
2414.000000	97.908110
2413.000000	97.914025
2412.000000	97.917203
2411.000000	97.917069
2410.000000	97.916768
2409.000000	97.919519
2408.000000	97.926125
2407.000000	97.933784
2406.000000	97.936928
2405.000000	97.931838
2404.000000	97.921134
2403.000000	97.911211
2402.000000	97.905336
2401.000000	97.902257
2400.000000	97.901153
2399.000000	97.903646
2398.000000	97.909969
2397.000000	97.916755
2396.000000	97.920252
2395.000000	97.919452
2394.000000	97.915671
2393.000000	97.911737
2392.000000	97.911529
2391.000000	97.917151
2390.000000	97.926081
2389.000000	97.933955
2388.000000	97.940483
2387.000000	97.948669
2386.000000	97.959566
2385.000000	97.971368
2384.000000	97.983674
2383.000000	97.998751
2382.000000	98.015893
2381.000000	98.030141
2380.000000	98.036586
2379.000000	98.032929
2378.000000	98.018184
2377.000000	97.993725
2376.000000	97.967686
2375.000000	97.952167
2374.000000	97.953416
2373.000000	97.966926
2372.000000	97.983942
2371.000000	97.998295
2370.000000	98.007207
2369.000000	98.011892
2368.000000	98.015859
2367.000000	98.020888
2366.000000	98.023442
2365.000000	98.018591
2364.000000	98.005943
2363.000000	97.986525
2362.000000	97.960691
2361.000000	97.934169
2360.000000	97.918297
2359.000000	97.920965
2358.000000	97.939907
2357.000000	97.965033
2356.000000	97.983068
2355.000000	97.981768
2354.000000	97.967187
2353.000000	97.955305
2352.000000	97.953651
2351.000000	97.956198
2350.000000	97.956165
2349.000000	97.951359
2348.000000	97.944377
2347.000000	97.941442
2346.000000	97.943460
2345.000000	97.941798
2344.000000	97.934086
2343.000000	97.929931
2342.000000	97.935677
2341.000000	97.945555
2340.000000	97.949366
2339.000000	97.942617
2338.000000	97.929076
2337.000000	97.916541
2336.000000	97.910067
2335.000000	97.913099
2334.000000	97.926266
2333.000000	97.944878
2332.000000	97.955036
2331.000000	97.950069
2330.000000	97.935230
2329.000000	97.922081
2328.000000	97.909640
2327.000000	97.891412
2326.000000	97.865228
2325.000000	97.839937
2324.000000	97.827116
2323.000000	97.832278
2322.000000	97.847471
2321.000000	97.858871
2320.000000	97.859350
2319.000000	97.856357
2318.000000	97.858296
2317.000000	97.866965
2316.000000	97.876803
2315.000000	97.886042
2314.000000	97.894484
2313.000000	97.904410
2312.000000	97.917399
2311.000000	97.936000
2310.000000	97.956681
2309.000000	97.972067
2308.000000	97.977840
2307.000000	97.979251
2306.000000	97.982528
2305.000000	97.988144
2304.000000	97.992621
2303.000000	97.995105
2302.000000	97.994710
2301.000000	97.989174
2300.000000	97.978284
2299.000000	97.968693
2298.000000	97.965529
2297.000000	97.966930
2296.000000	97.965888
2295.000000	97.960067
2294.000000	97.951414
2293.000000	97.942923
2292.000000	97.937051
2291.000000	97.937121
2290.000000	97.943434
2289.000000	97.950277
2288.000000	97.950569
2287.000000	97.943153
2286.000000	97.933600
2285.000000	97.929184
2284.000000	97.935852
2283.000000	97.954905
2282.000000	97.980138
2281.000000	97.999874
2280.000000	98.006302
2279.000000	98.000139
2278.000000	97.986074
2277.000000	97.969022
2276.000000	97.956301
2275.000000	97.956309
2274.000000	97.969969
2273.000000	97.988771
2272.000000	98.005110
2271.000000	98.020302
2270.000000	98.038334
2269.000000	98.057649
2268.000000	98.073446
2267.000000	98.083141
2266.000000	98.084714
2265.000000	98.075245
2264.000000	98.056145
2263.000000	98.035358
2262.000000	98.019892
2261.000000	98.009787
2260.000000	98.002237
2259.000000	97.996849
2258.000000	97.994654
2257.000000	97.996814
2256.000000	98.006399
2255.000000	98.025030
2254.000000	98.045823
2253.000000	98.057418
2252.000000	98.057914
2251.000000	98.057527
2250.000000	98.064518
2249.000000	98.076358
2248.000000	98.085987
2247.000000	98.089107
2246.000000	98.082997
2245.000000	98.068854
2244.000000	98.057567
2243.000000	98.062415
2242.000000	98.082220
2241.000000	98.101909
2240.000000	98.112611
2239.000000	98.120023
2238.000000	98.129704
2237.000000	98.138166
2236.000000	98.144015
2235.000000	98.154355
2234.000000	98.172498
2233.000000	98.191163
2232.000000	98.204261
2231.000000	98.213061
2230.000000	98.214440
2229.000000	98.198224
2228.000000	98.165644
2227.000000	98.136680
2226.000000	98.128915
2225.000000	98.140495
2224.000000	98.162148
2223.000000	98.191777
2222.000000	98.225935
2221.000000	98.250164
2220.000000	98.252830
2219.000000	98.241131
2218.000000	98.232204
2217.000000	98.235615
2216.000000	98.250982
2215.000000	98.272227
2214.000000	98.286214
2213.000000	98.278992
2212.000000	98.253628
2211.000000	98.231841
2210.000000	98.229093
2209.000000	98.238392
2208.000000	98.246021
2207.000000	98.250616
2206.000000	98.256322
2205.000000	98.258122
2204.000000	98.246871
2203.000000	98.222539
2202.000000	98.195178
2201.000000	98.178474
2200.000000	98.184345
2199.000000	98.213017
2198.000000	98.246538
2197.000000	98.264963
2196.000000	98.271729
2195.000000	98.286630
2194.000000	98.311273
2193.000000	98.322103
2192.000000	98.305252
2191.000000	98.278026
2190.000000	98.264874
2189.000000	98.272869
2188.000000	98.300463
2187.000000	98.348558
2186.000000	98.406476
2185.000000	98.445849
2184.000000	98.449173
2183.000000	98.432263
2182.000000	98.420646
2181.000000	98.415991
2180.000000	98.402366
2179.000000	98.374488
2178.000000	98.344643
2177.000000	98.329083
2176.000000	98.336209
2175.000000	98.358789
2174.000000	98.373610
2173.000000	98.361005
2172.000000	98.329374
2171.000000	98.307318
2170.000000	98.310518
2169.000000	98.328424
2168.000000	98.342499
2167.000000	98.343988
2166.000000	98.335303
2165.000000	98.330527
2164.000000	98.349383
2163.000000	98.388619
2162.000000	98.408868
2161.000000	98.383599
2160.000000	98.354949
2159.000000	98.390676
2158.000000	98.477611
2157.000000	98.530236
2156.000000	98.512260
2155.000000	98.468526
2154.000000	98.442258
2153.000000	98.432408
2152.000000	98.429721
2151.000000	98.438401
2150.000000	98.453422
2149.000000	98.456575
2148.000000	98.448729
2147.000000	98.450733
2146.000000	98.461435
2145.000000	98.449298
2144.000000	98.400248
2143.000000	98.340844
2142.000000	98.300275
2141.000000	98.279094
2140.000000	98.267212
2139.000000	98.265425
2138.000000	98.273499
2137.000000	98.280087
2136.000000	98.279563
2135.000000	98.280513
2134.000000	98.285902
2133.000000	98.284911
2132.000000	98.274069
2131.000000	98.266372
2130.000000	98.269652
2129.000000	98.274094
2128.000000	98.269804
2127.000000	98.260590
2126.000000	98.251823
2125.000000	98.239338
2124.000000	98.219783
2123.000000	98.198554
2122.000000	98.179421
2121.000000	98.158564
2120.000000	98.136561
2119.000000	98.123334
2118.000000	98.122644
2117.000000	98.123425
2116.000000	98.114754
2115.000000	98.098928
2114.000000	98.082080
2113.000000	98.064514
2112.000000	98.048814
2111.000000	98.044959
2110.000000	98.055679
2109.000000	98.066846
2108.000000	98.063485
2107.000000	98.048378
2106.000000	98.036037
2105.000000	98.036736
2104.000000	98.053468
2103.000000	98.083857
2102.000000	98.115963
2101.000000	98.131570
2100.000000	98.123804
2099.000000	98.105198
2098.000000	98.093912
2097.000000	98.099354
2096.000000	98.123315
2095.000000	98.160216
2094.000000	98.191359
2093.000000	98.194693
2092.000000	98.169062
2091.000000	98.136041
2090.000000	98.113345
2089.000000	98.100238
2088.000000	98.092881
2087.000000	98.096637
2086.000000	98.112757
2085.000000	98.128853
2084.000000	98.135149
2083.000000	98.138569
2082.000000	98.148639
2081.000000	98.160808
2080.000000	98.165058
2079.000000	98.160303
2078.000000	98.150418
2077.000000	98.136699
2076.000000	98.124580
2075.000000	98.125025
2074.000000	98.138358
2073.000000	98.149286
2072.000000	98.147951
2071.000000	98.143670
2070.000000	98.147145
2069.000000	98.153544
2068.000000	98.156237
2067.000000	98.163369
2066.000000	98.185905
2065.000000	98.218958
2064.000000	98.247212
2063.000000	98.260845
2062.000000	98.257346
2061.000000	98.240771
2060.000000	98.227427
2059.000000	98.235659
2058.000000	98.261398
2057.000000	98.280909
2056.000000	98.285069
2055.000000	98.290698
2054.000000	98.307158
2053.000000	98.316725
2052.000000	98.304974
2051.000000	98.288032
2050.000000	98.289752
2049.000000	98.308822
2048.000000	98.330153
2047.000000	98.354931
2046.000000	98.390274
2045.000000	98.420706
2044.000000	98.420095
2043.000000	98.385413
2042.000000	98.338191
2041.000000	98.301975
2040.000000	98.290612
2039.000000	98.305419
2038.000000	98.332726
2037.000000	98.357439
2036.000000	98.386681
2035.000000	98.439498
2034.000000	98.506215
2033.000000	98.550604
2032.000000	98.564817
2031.000000	98.580876
2030.000000	98.609477
2029.000000	98.614994
2028.000000	98.574717
2027.000000	98.521819
2026.000000	98.498149
2025.000000	98.500917
2024.000000	98.500217
2023.000000	98.481475
2022.000000	98.447730
2021.000000	98.407972
2020.000000	98.383376
2019.000000	98.397399
2018.000000	98.442573
2017.000000	98.481486
2016.000000	98.495523
2015.000000	98.501320
2014.000000	98.507499
2013.000000	98.498960
2012.000000	98.478438
2011.000000	98.481448
2010.000000	98.527310
2009.000000	98.588583
2008.000000	98.626695
2007.000000	98.629475
2006.000000	98.597875
2005.000000	98.536809
2004.000000	98.474450
2003.000000	98.449857
2002.000000	98.465651
2001.000000	98.483027
2000.000000	98.476891
1999.000000	98.460676
1998.000000	98.449596
1997.000000	98.435937
1996.000000	98.416693
1995.000000	98.409803
1994.000000	98.423482
1993.000000	98.437973
1992.000000	98.437144
1991.000000	98.432410
1990.000000	98.432071
1989.000000	98.418630
1988.000000	98.380234
1987.000000	98.335520
1986.000000	98.306892
1985.000000	98.295060
1984.000000	98.295038
1983.000000	98.308123
1982.000000	98.322171
1981.000000	98.311658
1980.000000	98.281847
1979.000000	98.278228
1978.000000	98.329202
1977.000000	98.405319
1976.000000	98.464437
1975.000000	98.502311
1974.000000	98.528510
1973.000000	98.539193
1972.000000	98.540242
1971.000000	98.552366
1970.000000	98.571816
1969.000000	98.567136
1968.000000	98.533309
1967.000000	98.508781
1966.000000	98.516359
1965.000000	98.532263
1964.000000	98.536299
1963.000000	98.544264
1962.000000	98.568375
1961.000000	98.588330
1960.000000	98.585677
1959.000000	98.572483
1958.000000	98.562618
1957.000000	98.548120
1956.000000	98.523001
1955.000000	98.497901
1954.000000	98.475850
1953.000000	98.445901
1952.000000	98.413037
1951.000000	98.406637
1950.000000	98.437633
1949.000000	98.476117
1948.000000	98.491183
1947.000000	98.486169
1946.000000	98.478001
1945.000000	98.469174
1944.000000	98.458735
1943.000000	98.456731
1942.000000	98.466021
1941.000000	98.472292
1940.000000	98.468340
1939.000000	98.463059
1938.000000	98.458403
1937.000000	98.442229
1936.000000	98.413626
1935.000000	98.392944
1934.000000	98.393081
1933.000000	98.401662
1932.000000	98.402606
1931.000000	98.399561
1930.000000	98.397980
1929.000000	98.389636
1928.000000	98.373782
1927.000000	98.367442
1926.000000	98.386442
1925.000000	98.421391
1924.000000	98.456379
1923.000000	98.488379
1922.000000	98.512840
1921.000000	98.512460
1920.000000	98.478653
1919.000000	98.430513
1918.000000	98.398657
1917.000000	98.389849
1916.000000	98.390035
1915.000000	98.391430
1914.000000	98.397069
1913.000000	98.408929
1912.000000	98.424427
1911.000000	98.441592
1910.000000	98.455102
1909.000000	98.455599
1908.000000	98.442426
1907.000000	98.424756
1906.000000	98.412677
1905.000000	98.405804
1904.000000	98.404829
1903.000000	98.415490
1902.000000	98.433033
1901.000000	98.443048
1900.000000	98.444250
1899.000000	98.450397
1898.000000	98.468128
1897.000000	98.483248
1896.000000	98.483334
1895.000000	98.477241
1894.000000	98.477736
1893.000000	98.481871
1892.000000	98.481680
1891.000000	98.479638
1890.000000	98.480260
1889.000000	98.478444
1888.000000	98.472235
1887.000000	98.471292
1886.000000	98.479360
1885.000000	98.485927
1884.000000	98.482204
1883.000000	98.474024
1882.000000	98.468011
1881.000000	98.461357
1880.000000	98.454321
1879.000000	98.455245
1878.000000	98.467467
1877.000000	98.479310
1876.000000	98.478498
1875.000000	98.472392
1874.000000	98.476977
1873.000000	98.493766
1872.000000	98.512920
1871.000000	98.531780
1870.000000	98.556594
1869.000000	98.585596
1868.000000	98.603876
1867.000000	98.601372
1866.000000	98.577969
1865.000000	98.538259
1864.000000	98.495617
1863.000000	98.467230
1862.000000	98.456407
1861.000000	98.451207
1860.000000	98.445885
1859.000000	98.449337
1858.000000	98.466853
1857.000000	98.487881
1856.000000	98.501172
1855.000000	98.509242
1854.000000	98.517039
1853.000000	98.518629
1852.000000	98.512762
1851.000000	98.504639
1850.000000	98.503795
1849.000000	98.516061
1848.000000	98.539144
1847.000000	98.562528
1846.000000	98.571963
1845.000000	98.563283
1844.000000	98.549579
1843.000000	98.547713
1842.000000	98.552506
1841.000000	98.543198
1840.000000	98.517909
1839.000000	98.497610
1838.000000	98.497213
1837.000000	98.502853
1836.000000	98.501079
1835.000000	98.502954
1834.000000	98.520823
1833.000000	98.545339
1832.000000	98.562246
1831.000000	98.571037
1830.000000	98.581930
1829.000000	98.589377
1828.000000	98.579700
1827.000000	98.554115
1826.000000	98.529116
1825.000000	98.520719
1824.000000	98.525180
1823.000000	98.528416
1822.000000	98.523345
1821.000000	98.513947
1820.000000	98.508560
1819.000000	98.510158
1818.000000	98.515028
1817.000000	98.514917
1816.000000	98.510954
1815.000000	98.513115
1814.000000	98.522382
1813.000000	98.531510
1812.000000	98.533556
1811.000000	98.532035
1810.000000	98.528846
1809.000000	98.513033
1808.000000	98.479056
1807.000000	98.438446
1806.000000	98.404474
1805.000000	98.376233
1804.000000	98.346128
1803.000000	98.314568
1802.000000	98.283261
1801.000000	98.253008
1800.000000	98.218852
1799.000000	98.183292
1798.000000	98.155075
1797.000000	98.140036
1796.000000	98.138276
1795.000000	98.146543
1794.000000	98.161854
1793.000000	98.191678
1792.000000	98.240197
1791.000000	98.298275
1790.000000	98.350179
1789.000000	98.383499
1788.000000	98.396670
1787.000000	98.402398
1786.000000	98.415889
1785.000000	98.440586
1784.000000	98.471608
1783.000000	98.504474
1782.000000	98.527189
1781.000000	98.537476
1780.000000	98.536795
1779.000000	98.533804
1778.000000	98.536635
1777.000000	98.547825
1776.000000	98.568071
1775.000000	98.586860
1774.000000	98.590108
1773.000000	98.579999
1772.000000	98.568390
1771.000000	98.550702
1770.000000	98.503772
1769.000000	98.407604
1768.000000	98.283428
1767.000000	98.188016
1766.000000	98.140944
1765.000000	98.099811
1764.000000	98.013325
1763.000000	97.873421
1762.000000	97.701504
1761.000000	97.515728
1760.000000	97.308575
1759.000000	97.057691
1758.000000	96.724691
1757.000000	96.291489
1756.000000	95.809040
1755.000000	95.350203
1754.000000	94.910336
1753.000000	94.417719
1752.000000	93.828590
1751.000000	93.186043
1750.000000	92.570396
1749.000000	91.989742
1748.000000	91.432394
1747.000000	90.931943
1746.000000	90.509838
1745.000000	90.150272
1744.000000	89.845047
1743.000000	89.617723
1742.000000	89.473336
1741.000000	89.383771
1740.000000	89.351663
1739.000000	89.418863
1738.000000	89.564996
1737.000000	89.719377
1736.000000	89.875955
1735.000000	90.153048
1734.000000	90.648159
1733.000000	91.200024
1732.000000	91.648739
1731.000000	92.035425
1730.000000	92.431190
1729.000000	92.848774
1728.000000	93.268295
1727.000000	93.675794
1726.000000	94.069161
1725.000000	94.452658
1724.000000	94.825404
1723.000000	95.186288
1722.000000	95.517429
1721.000000	95.792753
1720.000000	96.017903
1719.000000	96.244486
1718.000000	96.513878
1717.000000	96.765749
1716.000000	96.924900
1715.000000	97.010161
1714.000000	97.057365
1713.000000	97.075695
1712.000000	97.077331
1711.000000	97.083591
1710.000000	97.101837
1709.000000	97.123498
1708.000000	97.139852
1707.000000	97.143339
1706.000000	97.133672
1705.000000	97.114143
1704.000000	97.091491
1703.000000	97.047333
1702.000000	96.941370
1701.000000	96.782249
1700.000000	96.665187
1699.000000	96.646535
1698.000000	96.624465
1697.000000	96.476530
1696.000000	96.220290
1695.000000	95.999863
1694.000000	95.884516
1693.000000	95.803893
1692.000000	95.695196
1691.000000	95.569997
1690.000000	95.457932
1689.000000	95.366630
1688.000000	95.294718
1687.000000	95.226440
1686.000000	95.136841
1685.000000	94.998092
1684.000000	94.820077
1683.000000	94.662991
1682.000000	94.529180
1681.000000	94.368935
1680.000000	94.187224
1679.000000	94.030856
1678.000000	93.902506
1677.000000	93.755849
1676.000000	93.570747
1675.000000	93.398360
1674.000000	93.285110
1673.000000	93.203520
1672.000000	93.096192
1671.000000	92.950112
1670.000000	92.774855
1669.000000	92.574058
1668.000000	92.371172
1667.000000	92.198547
1666.000000	92.050255
1665.000000	91.893145
1664.000000	91.707736
1663.000000	91.514146
1662.000000	91.332740
1661.000000	91.161111
1660.000000	90.990226
1659.000000	90.828807
1658.000000	90.698898
1657.000000	90.604257
1656.000000	90.514584
1655.000000	90.391397
1654.000000	90.236673
1653.000000	90.071563
1652.000000	89.953580
1651.000000	89.930840
1650.000000	89.934010
1649.000000	89.899810
1648.000000	89.840815
1647.000000	89.800023
1646.000000	89.786395
1645.000000	89.772689
1644.000000	89.757917
1643.000000	89.754702
1642.000000	89.764530
1641.000000	89.793163
1640.000000	89.847787
1639.000000	89.922233
1638.000000	90.001871
1637.000000	90.076517
1636.000000	90.153353
1635.000000	90.218542
1634.000000	90.263117
1633.000000	90.291186
1632.000000	90.311077
1631.000000	90.345782
1630.000000	90.417735
1629.000000	90.529794
1628.000000	90.666789
1627.000000	90.809108
1626.000000	90.940495
1625.000000	91.063808
1624.000000	91.200864
1623.000000	91.368011
1622.000000	91.540086
1621.000000	91.686279
1620.000000	91.803221
1619.000000	91.905060
1618.000000	92.023401
1617.000000	92.189514
1616.000000	92.385604
1615.000000	92.555509
1614.000000	92.674145
1613.000000	92.755248
1612.000000	92.836147
1611.000000	92.946853
1610.000000	93.078693
1609.000000	93.206085
1608.000000	93.320939
1607.000000	93.428764
1606.000000	93.523084
1605.000000	93.601268
1604.000000	93.671592
1603.000000	93.738810
1602.000000	93.797458
1601.000000	93.842555
1600.000000	93.881375
1599.000000	93.922942
1598.000000	93.965740
1597.000000	94.004555
1596.000000	94.039784
1595.000000	94.072405
1594.000000	94.095588
1593.000000	94.104584
1592.000000	94.106357
1591.000000	94.109381
1590.000000	94.110239
1589.000000	94.101559
1588.000000	94.084734
1587.000000	94.065011
1586.000000	94.040402
1585.000000	94.006475
1584.000000	93.971498
1583.000000	93.936421
1582.000000	93.897571
1581.000000	93.861549
1580.000000	93.839960
1579.000000	93.822944
1578.000000	93.789067
1577.000000	93.732278
1576.000000	93.671497
1575.000000	93.629318
1574.000000	93.599018
1573.000000	93.557277
1572.000000	93.494995
1571.000000	93.425592
1570.000000	93.360526
1569.000000	93.292266
1568.000000	93.222502
1567.000000	93.147381
1566.000000	93.054632
1565.000000	92.946492
1564.000000	92.854402
1563.000000	92.789990
1562.000000	92.728857
1561.000000	92.644479
1560.000000	92.546142
1559.000000	92.425166
1558.000000	92.253971
1557.000000	92.070558
1556.000000	91.884083
1555.000000	91.677738
1554.000000	91.471670
1553.000000	91.299328
1552.000000	91.155285
1551.000000	91.009520
1550.000000	90.855609
1549.000000	90.705045
1548.000000	90.575141
1547.000000	90.464965
1546.000000	90.368864
1545.000000	90.291043
1544.000000	90.238357
1543.000000	90.205695
1542.000000	90.180871
1541.000000	90.139322
1540.000000	90.061752
1539.000000	89.960962
1538.000000	89.882689
1537.000000	89.834798
1536.000000	89.793393
1535.000000	89.762945
1534.000000	89.766502
1533.000000	89.795138
1532.000000	89.807771
1531.000000	89.800600
1530.000000	89.792995
1529.000000	89.792257
1528.000000	89.800467
1527.000000	89.822409
1526.000000	89.855673
1525.000000	89.888804
1524.000000	89.907681
1523.000000	89.909094
1522.000000	89.904477
1521.000000	89.897678
1520.000000	89.889455
1519.000000	89.880689
1518.000000	89.855645
1517.000000	89.806941
1516.000000	89.751766
1515.000000	89.712822
1514.000000	89.687480
1513.000000	89.673375
1512.000000	89.690385
1511.000000	89.760458
1510.000000	89.862253
1509.000000	89.953787
1508.000000	90.020170
1507.000000	90.073573
1506.000000	90.071634
1505.000000	90.015015
1504.000000	89.967794
1503.000000	89.936627
1502.000000	89.910189
1501.000000	89.887213
1500.000000	89.873887
1499.000000	89.871062
1498.000000	89.861780
1497.000000	89.819571
1496.000000	89.751436
1495.000000	89.703539
1494.000000	89.683325
1493.000000	89.659269
1492.000000	89.618838
1491.000000	89.584260
1490.000000	89.557609
1489.000000	89.495993
1488.000000	89.380812
1487.000000	89.244602
1486.000000	89.107520
1485.000000	88.961582
1484.000000	88.809657
1483.000000	88.654683
1482.000000	88.492023
1481.000000	88.312260
1480.000000	88.124020
1479.000000	87.940515
1478.000000	87.756238
1477.000000	87.557970
1476.000000	87.349597
1475.000000	87.140868
1474.000000	86.896918
1473.000000	86.567289
1472.000000	86.175618
1471.000000	85.812503
1470.000000	85.501531
1469.000000	85.211361
1468.000000	84.935034
1467.000000	84.692274
1466.000000	84.483547
1465.000000	84.292774
1464.000000	84.121810
1463.000000	83.983559
1462.000000	83.871852
1461.000000	83.765533
1460.000000	83.655948
1459.000000	83.531462
1458.000000	83.354174
1457.000000	83.093990
1456.000000	82.840413
1455.000000	82.680348
1454.000000	82.561871
1453.000000	82.428903
1452.000000	82.293459
1451.000000	82.187705
1450.000000	82.103500
1449.000000	82.009299
1448.000000	81.903535
1447.000000	81.811469
1446.000000	81.726742
1445.000000	81.632774
1444.000000	81.527285
1443.000000	81.418759
1442.000000	81.309538
1441.000000	81.195526
1440.000000	81.076666
1439.000000	80.945951
1438.000000	80.786785
1437.000000	80.593702
1436.000000	80.414000
1435.000000	80.296098
1434.000000	80.213438
1433.000000	80.121841
1432.000000	80.022659
1431.000000	79.933010
1430.000000	79.834969
1429.000000	79.693669
1428.000000	79.519760
1427.000000	79.354069
1426.000000	79.205514
1425.000000	79.075439
1424.000000	78.984960
1423.000000	78.942073
1422.000000	78.909196
1421.000000	78.849702
1420.000000	78.782309
1419.000000	78.750836
1418.000000	78.744612
1417.000000	78.726074
1416.000000	78.706374
1415.000000	78.716143
1414.000000	78.761461
1413.000000	78.834100
1412.000000	78.938823
1411.000000	79.083287
1410.000000	79.251969
1409.000000	79.421395
1408.000000	79.592543
1407.000000	79.781012
1406.000000	79.981635
1405.000000	80.178781
1404.000000	80.365471
1403.000000	80.535052
1402.000000	80.674833
1401.000000	80.786004
1400.000000	80.896956
1399.000000	81.028698
1398.000000	81.159821
1397.000000	81.263419
1396.000000	81.353139
1395.000000	81.457789
1394.000000	81.572859
1393.000000	81.681937
1392.000000	81.790579
1391.000000	81.909854
1390.000000	82.039110
1389.000000	82.179414
1388.000000	82.343328
1387.000000	82.531841
1386.000000	82.714258
1385.000000	82.867838
1384.000000	83.005101
1383.000000	83.147065
1382.000000	83.299325
1381.000000	83.457642
1380.000000	83.629310
1379.000000	83.825140
1378.000000	84.040763
1377.000000	84.266830
1376.000000	84.510129
1375.000000	84.779172
1374.000000	85.050567
1373.000000	85.285080
1372.000000	85.474801
1371.000000	85.640141
1370.000000	85.796118
1369.000000	85.950533
1368.000000	86.106528
1367.000000	86.259384
1366.000000	86.401455
1365.000000	86.535290
1364.000000	86.672503
1363.000000	86.812869
1362.000000	86.936409
1361.000000	87.030743
1360.000000	87.107080
1359.000000	87.178522
1358.000000	87.247060
1357.000000	87.314141
1356.000000	87.385911
1355.000000	87.464601
1354.000000	87.545830
1353.000000	87.628515
1352.000000	87.716868
1351.000000	87.811800
1350.000000	87.903441
1349.000000	87.983688
1348.000000	88.050146
1347.000000	88.100217
1346.000000	88.129023
1345.000000	88.138016
1344.000000	88.136186
1343.000000	88.129179
1342.000000	88.114414
1341.000000	88.087904
1340.000000	88.048014
1339.000000	87.992584
1338.000000	87.922646
1337.000000	87.851413
1336.000000	87.799587
1335.000000	87.780617
1334.000000	87.795561
1333.000000	87.841041
1332.000000	87.913803
1331.000000	88.006134
1330.000000	88.105461
1329.000000	88.203872
1328.000000	88.301981
1327.000000	88.401203
1326.000000	88.498275
1325.000000	88.591010
1324.000000	88.680326
1323.000000	88.765709
1322.000000	88.845309
1321.000000	88.921309
1320.000000	88.998267
1319.000000	89.075525
1318.000000	89.148788
1317.000000	89.219985
1316.000000	89.296934
1315.000000	89.382416
1314.000000	89.471710
1313.000000	89.561005
1312.000000	89.650503
1311.000000	89.739072
1310.000000	89.823835
1309.000000	89.906590
1308.000000	89.992985
1307.000000	90.084952
1306.000000	90.178711
1305.000000	90.271569
1304.000000	90.363453
1303.000000	90.453348
1302.000000	90.540648
1301.000000	90.629335
1300.000000	90.723668
1299.000000	90.820410
1298.000000	90.911816
1297.000000	90.994498
1296.000000	91.069215
1295.000000	91.133766
1294.000000	91.184971
1293.000000	91.225693
1292.000000	91.261833
1291.000000	91.293630
1290.000000	91.316587
1289.000000	91.330723
1288.000000	91.341518
1287.000000	91.352549
1286.000000	91.363967
1285.000000	91.377152
1284.000000	91.394011
1283.000000	91.411995
1282.000000	91.425931
1281.000000	91.434304
1280.000000	91.437698
1279.000000	91.432150
1278.000000	91.410659
1277.000000	91.370044
1276.000000	91.311571
1275.000000	91.234629
1274.000000	91.136587
1273.000000	91.018088
1272.000000	90.882408
1271.000000	90.730607
1270.000000	90.560898
1269.000000	90.373824
1268.000000	90.173481
1267.000000	89.962244
1266.000000	89.739475
1265.000000	89.506263
1264.000000	89.268836
1263.000000	89.035285
1262.000000	88.810853
1261.000000	88.597789
1260.000000	88.397265
1259.000000	88.208917
1258.000000	88.031864
1257.000000	87.871209
1256.000000	87.739777
1255.000000	87.649187
1254.000000	87.599042
1253.000000	87.576624
1252.000000	87.566206
1251.000000	87.554087
1250.000000	87.530084
1249.000000	87.490977
1248.000000	87.441616
1247.000000	87.388944
1246.000000	87.335727
1245.000000	87.282885
1244.000000	87.234919
1243.000000	87.198054
1242.000000	87.174734
1241.000000	87.164354
1240.000000	87.168139
1239.000000	87.189496
1238.000000	87.230063
1237.000000	87.290661
1236.000000	87.373465
1235.000000	87.479021
1234.000000	87.603115
1233.000000	87.739117
1232.000000	87.883801
1231.000000	88.038347
1230.000000	88.207196
1229.000000	88.398835
1228.000000	88.621284
1227.000000	88.873906
1226.000000	89.145428
1225.000000	89.422025
1224.000000	89.693978
1223.000000	89.953296
1222.000000	90.192147
1221.000000	90.406852
1220.000000	90.599330
1219.000000	90.771674
1218.000000	90.924030
1217.000000	91.057249
1216.000000	91.173254
1215.000000	91.273008
1214.000000	91.356649
1213.000000	91.426888
1212.000000	91.486777
1211.000000	91.534498
1210.000000	91.565374
1209.000000	91.577657
1208.000000	91.573731
1207.000000	91.556286
1206.000000	91.528070
1205.000000	91.495051
1204.000000	91.463545
1203.000000	91.434054
1202.000000	91.401686
1201.000000	91.363429
1200.000000	91.321699
1199.000000	91.279518
1198.000000	91.236266
1197.000000	91.189621
1196.000000	91.138781
1195.000000	91.084596
1194.000000	91.028235
1193.000000	90.970634
1192.000000	90.911366
1191.000000	90.847575
1190.000000	90.776329
1189.000000	90.697647
1188.000000	90.612985
1187.000000	90.520965
1186.000000	90.417010
1185.000000	90.298446
1184.000000	90.166813
1183.000000	90.024786
1182.000000	89.873613
1181.000000	89.713897
1180.000000	89.547139
1179.000000	89.374327
1178.000000	89.195376
1177.000000	89.011990
1176.000000	88.828905
1175.000000	88.650391
1174.000000	88.476915
1173.000000	88.307872
1172.000000	88.145511
1171.000000	87.993070
1170.000000	87.849994
1169.000000	87.713363
1168.000000	87.583885
1167.000000	87.465791
1166.000000	87.362375
1165.000000	87.275152
1164.000000	87.207615
1163.000000	87.165790
1162.000000	87.152971
1161.000000	87.169752
1160.000000	87.217865
1159.000000	87.299927
1158.000000	87.416525
1157.000000	87.565047
1156.000000	87.743476
1155.000000	87.950594
1154.000000	88.183989
1153.000000	88.442427
1152.000000	88.725979
1151.000000	89.032502
1150.000000	89.355247
1149.000000	89.686895
1148.000000	90.023891
1147.000000	90.363792
1146.000000	90.702897
1145.000000	91.038108
1144.000000	91.367689
1143.000000	91.688104
1142.000000	91.994122
1141.000000	92.282558
1140.000000	92.552543
1139.000000	92.803127
1138.000000	93.032656
1137.000000	93.240851
1136.000000	93.426626
1135.000000	93.585414
1134.000000	93.714264
1133.000000	93.816210
1132.000000	93.897709
1131.000000	93.962760
1130.000000	94.012434
1129.000000	94.048309
1128.000000	94.070639
1127.000000	94.077251
1126.000000	94.067746
1125.000000	94.046338
1124.000000	94.017915
1123.000000	93.982269
1122.000000	93.935741
1121.000000	93.875332
1120.000000	93.796845
1119.000000	93.693472
1118.000000	93.559102
1117.000000	93.392359
1116.000000	93.194430
1115.000000	92.965021
1114.000000	92.706718
1113.000000	92.432370
1112.000000	92.166262
1111.000000	91.935333
1110.000000	91.758050
1109.000000	91.638724
1108.000000	91.571009
1107.000000	91.544408
1106.000000	91.547042
1105.000000	91.567879
1104.000000	91.597109
1103.000000	91.626898
1102.000000	91.650293
1101.000000	91.658458
1100.000000	91.641149
1099.000000	91.591651
1098.000000	91.514572
1097.000000	91.424151
1096.000000	91.335037
1095.000000	91.256495
1094.000000	91.194881
1093.000000	91.156502
1092.000000	91.146815
1091.000000	91.169408
1090.000000	91.229056
1089.000000	91.329890
1088.000000	91.467205
1087.000000	91.626539
1086.000000	91.795501
1085.000000	91.975405
1084.000000	92.172788
1083.000000	92.382537
1082.000000	92.587727
1081.000000	92.774634
1080.000000	92.940862
1079.000000	93.090026
1078.000000	93.227103
1077.000000	93.358022
1076.000000	93.486331
1075.000000	93.607997
1074.000000	93.714717
1073.000000	93.802421
1072.000000	93.871566
1071.000000	93.922813
1070.000000	93.956937
1069.000000	93.977048
1068.000000	93.985980
1067.000000	93.982843
1066.000000	93.967774
1065.000000	93.946911
1064.000000	93.928166
1063.000000	93.914839
1062.000000	93.907330
1061.000000	93.907516
1060.000000	93.915770
1059.000000	93.927190
1058.000000	93.937179
1057.000000	93.949019
1056.000000	93.969744
1055.000000	94.000793
1054.000000	94.039221
1053.000000	94.085370
1052.000000	94.142078
1051.000000	94.206358
1050.000000	94.269698
1049.000000	94.327387
1048.000000	94.380828
1047.000000	94.430544
1046.000000	94.472695
1045.000000	94.502720
1044.000000	94.516921
1043.000000	94.512291
1042.000000	94.489190
1041.000000	94.453498
1040.000000	94.411289
1039.000000	94.361563
1038.000000	94.298981
1037.000000	94.221979
1036.000000	94.134901
1035.000000	94.043732
1034.000000	93.953806
1033.000000	93.870343
1032.000000	93.796722
1031.000000	93.733052
1030.000000	93.679669
1029.000000	93.641012
1028.000000	93.621239
1027.000000	93.617439
1026.000000	93.622368
1025.000000	93.632946
1024.000000	93.651498
1023.000000	93.678348
1022.000000	93.709633
1021.000000	93.743557
1020.000000	93.782759
1019.000000	93.829428
1018.000000	93.882156
1017.000000	93.939457
1016.000000	94.002193
1015.000000	94.070695
1014.000000	94.143704
1013.000000	94.221332
1012.000000	94.305870
1011.000000	94.398647
1010.000000	94.498296
1009.000000	94.602368
1008.000000	94.707673
1007.000000	94.809964
1006.000000	94.906868
1005.000000	94.999985
1004.000000	95.090285
1003.000000	95.172991
1002.000000	95.242218
1001.000000	95.298884
1000.000000	95.349125
999.000000	95.395002
998.000000	95.432459
997.000000	95.458995
996.000000	95.477499
995.000000	95.491976
994.000000	95.503602
993.000000	95.512948
992.000000	95.522481
991.000000	95.534289
990.000000	95.547213
989.000000	95.557270
988.000000	95.560145
987.000000	95.553823
986.000000	95.540416
985.000000	95.525099
984.000000	95.511415
983.000000	95.498260
982.000000	95.482970
981.000000	95.465107
980.000000	95.444766
979.000000	95.418781
978.000000	95.382746
977.000000	95.336749
976.000000	95.285575
975.000000	95.233123
974.000000	95.179854
973.000000	95.126659
972.000000	95.077997
971.000000	95.039214
970.000000	95.012091
969.000000	94.994598
968.000000	94.984481
967.000000	94.981574
966.000000	94.987981
965.000000	95.006695
964.000000	95.038879
963.000000	95.081919
962.000000	95.130578
961.000000	95.181912
960.000000	95.238466
959.000000	95.305317
958.000000	95.384575
957.000000	95.472987
956.000000	95.565205
955.000000	95.658678
954.000000	95.754776
953.000000	95.855740
952.000000	95.961086
951.000000	96.067673
950.000000	96.172063
949.000000	96.271348
948.000000	96.362595
947.000000	96.444343
946.000000	96.518447
945.000000	96.587160
944.000000	96.648906
943.000000	96.700283
942.000000	96.743104
941.000000	96.784832
940.000000	96.830172
939.000000	96.876468
938.000000	96.919137
937.000000	96.958763
936.000000	97.000312
935.000000	97.048065
934.000000	97.103049
933.000000	97.162438
932.000000	97.219504
931.000000	97.267149
930.000000	97.303871
929.000000	97.334754
928.000000	97.365792
927.000000	97.399641
926.000000	97.437197
925.000000	97.479072
924.000000	97.524128
923.000000	97.569582
922.000000	97.614187
921.000000	97.658774
920.000000	97.703563
919.000000	97.748173
918.000000	97.794348
917.000000	97.844205
916.000000	97.895493
915.000000	97.943400
914.000000	97.987535
913.000000	98.032160
912.000000	98.079039
911.000000	98.125801
910.000000	98.171472
909.000000	98.217171
908.000000	98.260339
907.000000	98.295991
906.000000	98.325439
905.000000	98.355908
904.000000	98.388974
903.000000	98.417619
902.000000	98.438489
901.000000	98.458812
900.000000	98.486371
899.000000	98.519001
898.000000	98.549560
897.000000	98.574236
896.000000	98.591870
895.000000	98.601138
894.000000	98.603280
893.000000	98.601895
892.000000	98.594301
891.000000	98.567614
890.000000	98.501924
889.000000	98.365645
888.000000	98.106491
887.000000	97.664650
886.000000	97.021065
885.000000	96.232414
884.000000	95.402966
883.000000	94.612386
882.000000	93.859498
881.000000	93.072784
880.000000	92.176499
879.000000	91.158833
878.000000	90.088502
877.000000	89.081416
876.000000	88.254259
875.000000	87.699372
874.000000	87.484635
873.000000	87.651170
872.000000	88.204327
871.000000	89.090208
870.000000	90.188196
869.000000	91.345323
868.000000	92.426662
867.000000	93.352037
866.000000	94.102717
865.000000	94.705044
864.000000	95.198943
863.000000	95.614132
862.000000	95.965663
861.000000	96.263122
860.000000	96.516741
859.000000	96.735126
858.000000	96.924812
857.000000	97.089390
856.000000	97.228646
855.000000	97.342932
854.000000	97.438422
853.000000	97.519627
852.000000	97.570056
851.000000	97.555282
850.000000	97.464224
849.000000	97.345111
848.000000	97.283149
847.000000	97.331635
846.000000	97.468708
845.000000	97.625330
844.000000	97.747144
843.000000	97.825705
842.000000	97.881362
841.000000	97.931175
840.000000	97.976738
839.000000	98.012477
838.000000	98.035182
837.000000	98.044064
836.000000	98.038286
835.000000	98.020728
834.000000	98.002224
833.000000	97.996065
832.000000	98.006869
831.000000	98.029299
830.000000	98.058493
829.000000	98.096975
828.000000	98.148323
827.000000	98.208210
826.000000	98.266479
825.000000	98.315631
824.000000	98.353742
823.000000	98.382130
822.000000	98.404810
821.000000	98.427708
820.000000	98.453689
819.000000	98.479160
818.000000	98.499098
817.000000	98.514202
816.000000	98.529621
815.000000	98.547515
814.000000	98.564160
813.000000	98.575031
812.000000	98.580492
811.000000	98.584772
810.000000	98.589713
809.000000	98.590568
808.000000	98.580130
807.000000	98.557893
806.000000	98.532277
805.000000	98.511094
804.000000	98.492194
803.000000	98.468419
802.000000	98.439871
801.000000	98.414569
800.000000	98.396428
799.000000	98.378914
798.000000	98.353358
797.000000	98.318849
796.000000	98.281005
795.000000	98.244952
794.000000	98.212617
793.000000	98.184036
792.000000	98.158157
791.000000	98.133499
790.000000	98.109504
789.000000	98.085930
788.000000	98.060943
787.000000	98.032733
786.000000	98.003808
785.000000	97.980379
784.000000	97.965881
783.000000	97.957150
782.000000	97.948069
781.000000	97.934970
780.000000	97.917696
779.000000	97.897757
778.000000	97.876569
777.000000	97.853872
776.000000	97.827503
775.000000	97.796325
774.000000	97.763224
773.000000	97.733047
772.000000	97.707648
771.000000	97.685163
770.000000	97.663622
769.000000	97.642771
768.000000	97.622582
767.000000	97.602170
766.000000	97.579678
765.000000	97.551609
764.000000	97.514677
763.000000	97.471260
762.000000	97.429663
761.000000	97.393710
760.000000	97.354932
759.000000	97.302261
758.000000	97.238271
757.000000	97.177239
756.000000	97.126704
755.000000	97.080840
754.000000	97.035824
753.000000	97.002277
752.000000	96.993629
751.000000	97.006596
750.000000	97.021361
749.000000	97.021276
748.000000	97.007056
747.000000	96.990863
746.000000	96.981230
745.000000	96.975610
744.000000	96.965281
743.000000	96.945377
742.000000	96.919841
741.000000	96.897266
740.000000	96.882464
739.000000	96.871592
738.000000	96.853965
737.000000	96.818304
736.000000	96.760261
735.000000	96.686073
734.000000	96.606813
733.000000	96.527542
732.000000	96.445846
731.000000	96.362954
730.000000	96.289573
729.000000	96.233284
728.000000	96.189503
727.000000	96.152217
726.000000	96.123922
725.000000	96.107166
724.000000	96.091004
723.000000	96.055962
722.000000	95.989546
721.000000	95.888175
720.000000	95.745446
719.000000	95.545580
718.000000	95.263759
717.000000	94.862184
716.000000	94.299739
715.000000	93.583276
714.000000	92.828735
713.000000	92.244845
712.000000	92.014763
711.000000	92.169737
710.000000	92.576725
709.000000	93.041274
708.000000	93.420363
707.000000	93.665583
706.000000	93.794133
705.000000	93.844525
704.000000	93.852795
703.000000	93.843301
702.000000	93.828550
701.000000	93.813213
700.000000	93.794633
699.000000	93.767966
698.000000	93.732410
697.000000	93.694574
696.000000	93.664098
695.000000	93.642354
694.000000	93.625992
693.000000	93.616709
692.000000	93.617734
691.000000	93.627869
690.000000	93.640989
689.000000	93.653066
688.000000	93.664105
687.000000	93.671338
686.000000	93.672951
685.000000	93.672463
684.000000	93.670254
683.000000	93.660255
682.000000	93.641818
681.000000	93.628181
680.000000	93.632839
679.000000	93.655112
678.000000	93.686357
677.000000	93.716014
676.000000	93.740025
675.000000	93.760307
674.000000	93.786779
673.000000	93.833103
672.000000	93.907331
671.000000	94.012413
670.000000	94.158452
669.000000	94.346285
668.000000	94.488236
667.000000	94.505822
666.000000	94.494863
665.000000	94.477163
664.000000	94.452388
663.000000	94.440990
662.000000	94.451919
661.000000	94.472819
660.000000	94.490906
659.000000	94.507309
658.000000	94.522150
657.000000	94.517487
656.000000	94.482253
655.000000	94.423824
654.000000	94.348173
653.000000	94.252506
652.000000	94.147311
651.000000	94.054177
650.000000	93.975207
649.000000	93.888478
648.000000	93.786628
647.000000	93.685934
646.000000	93.586165
645.000000	93.463833
644.000000	93.315973
643.000000	93.173727
642.000000	93.059999
641.000000	92.957820
640.000000	92.843378
639.000000	92.726992
638.000000	92.634279
637.000000	92.571392
636.000000	92.533489
635.000000	92.523621
634.000000	92.543187
633.000000	92.580785
632.000000	92.624633
631.000000	92.670999
630.000000	92.710331
629.000000	92.724914
628.000000	92.713520
627.000000	92.698589
626.000000	92.693042
625.000000	92.681940
624.000000	92.647254
623.000000	92.592464
622.000000	92.532228
621.000000	92.473372
620.000000	92.416944
619.000000	92.363521
618.000000	92.306635
617.000000	92.235662
616.000000	92.154967
615.000000	92.084930
614.000000	92.036131
613.000000	92.000793
612.000000	91.976201
611.000000	91.974939
610.000000	92.001143
609.000000	92.037869
608.000000	92.072043
607.000000	92.115637
606.000000	92.186835
605.000000	92.292230
604.000000	92.436244
603.000000	92.627037
602.000000	92.860014
601.000000	93.107930
600.000000	93.339297
599.000000	93.540410
598.000000	93.715883
597.000000	93.878315
596.000000	94.041808
595.000000	94.212754
594.000000	94.378599
593.000000	94.514560
592.000000	94.607395
591.000000	94.665972
590.000000	94.707540
589.000000	94.744590
588.000000	94.787560
587.000000	94.841731
586.000000	94.894226
585.000000	94.922212
584.000000	94.924605
583.000000	94.928981
582.000000	94.953227
581.000000	94.978973
580.000000	94.980200
579.000000	94.964906
578.000000	94.966180
577.000000	95.001302
576.000000	95.060313
575.000000	95.125966
574.000000	95.188064
573.000000	95.239665
572.000000	95.274902
571.000000	95.293640
570.000000	95.301619
569.000000	95.305774
568.000000	95.314034
567.000000	95.333539
566.000000	95.360922
565.000000	95.379965
564.000000	95.375938
563.000000	95.349727
562.000000	95.315843
561.000000	95.293559
560.000000	95.300447
559.000000	95.340742
558.000000	95.392223
557.000000	95.420532
556.000000	95.415142
555.000000	95.398276
554.000000	95.392665
553.000000	95.396973
552.000000	95.403537
551.000000	95.419435
550.000000	95.452925
549.000000	95.494237
548.000000	95.528640
547.000000	95.554959
546.000000	95.576955
545.000000	95.588570
544.000000	95.584527
543.000000	95.574893
542.000000	95.573330
541.000000	95.580569
540.000000	95.591675
539.000000	95.607138
538.000000	95.623199
537.000000	95.625375
536.000000	95.606807
535.000000	95.581534
534.000000	95.563547
533.000000	95.546583
532.000000	95.520053
531.000000	95.490484
530.000000	95.470670
529.000000	95.460959
528.000000	95.459463
527.000000	95.477803
526.000000	95.524100
525.000000	95.580345
524.000000	95.625881
523.000000	95.664413
522.000000	95.703633
521.000000	95.731350
520.000000	95.733946
519.000000	95.726363
518.000000	95.737501
517.000000	95.767737
516.000000	95.791732
515.000000	95.797694
514.000000	95.794887
513.000000	95.792738
512.000000	95.796412
511.000000	95.814622
510.000000	95.853929
509.000000	95.911936
508.000000	95.987537
507.000000	96.083153
506.000000	96.180234
505.000000	96.238013
504.000000	96.238471
503.000000	96.214132
502.000000	96.212218
501.000000	96.235437
500.000000	96.252010
499.000000	96.255899
498.000000	96.271421
497.000000	96.306279
496.000000	96.334793
495.000000	96.331347
494.000000	96.296769
493.000000	96.247959
492.000000	96.205986
491.000000	96.199121
490.000000	96.248629
489.000000	96.343626
488.000000	96.445747
487.000000	96.520916
486.000000	96.556954
485.000000	96.560417
484.000000	96.553104
483.000000	96.565925
482.000000	96.612575
481.000000	96.674409
480.000000	96.730057
479.000000	96.782973
478.000000	96.840418
477.000000	96.884702
476.000000	96.893679
475.000000	96.879562
474.000000	96.877434
473.000000	96.902572
472.000000	96.944262
471.000000	97.000002
470.000000	97.073485
469.000000	97.148747
468.000000	97.207152
467.000000	97.257854
466.000000	97.322069
465.000000	97.393067
464.000000	97.450307
463.000000	97.503825
462.000000	97.585592
461.000000	97.699456
460.000000	97.755723
459.000000	97.833322
458.000000	97.917446
457.000000	98.006014
456.000000	98.080898
455.000000	98.164283
454.000000	98.294067
453.000000	98.453813
452.000000	98.569988
451.000000	98.599952
450.000000	98.583159
