PE IR       SUBTECH     SPECTRUM    ASCII       PEDS        4.00        
   -1
3C-XXX-C009_1.ASC
23/09/07
10:26:21.00
23/09/07
11:30:09.00
uco
Sample 009 By uco Date Thursday, September 07 2023
450.000000
#HDR
-1
-1
#GR
cm-1
%T
1.0
0.0
4000.000000
-1.000000
3551
8
98.878976
88.249243
#DATA
4000.000000	98.835563
3999.000000	98.831563
3998.000000	98.827571
3997.000000	98.823555
3996.000000	98.823553
3995.000000	98.827263
3994.000000	98.831858
3993.000000	98.834197
3992.000000	98.832770
3991.000000	98.828031
3990.000000	98.821627
3989.000000	98.815539
3988.000000	98.811460
3987.000000	98.810017
3986.000000	98.810238
3985.000000	98.810269
3984.000000	98.809097
3983.000000	98.807674
3982.000000	98.807949
3981.000000	98.810613
3980.000000	98.814104
3979.000000	98.815858
3978.000000	98.814384
3977.000000	98.810126
3976.000000	98.804845
3975.000000	98.800514
3974.000000	98.798473
3973.000000	98.799001
3972.000000	98.801331
3971.000000	98.804119
3970.000000	98.806150
3969.000000	98.806798
3968.000000	98.806010
3967.000000	98.804122
3966.000000	98.801749
3965.000000	98.799696
3964.000000	98.798511
3963.000000	98.798052
3962.000000	98.797702
3961.000000	98.797149
3960.000000	98.796860
3959.000000	98.797457
3958.000000	98.798723
3957.000000	98.799604
3956.000000	98.798984
3955.000000	98.796304
3954.000000	98.791663
3953.000000	98.786025
3952.000000	98.781386
3951.000000	98.780151
3950.000000	98.783421
3949.000000	98.789328
3948.000000	98.793810
3947.000000	98.793855
3946.000000	98.790243
3945.000000	98.786561
3944.000000	98.786008
3943.000000	98.789446
3942.000000	98.795724
3941.000000	98.803235
3940.000000	98.810224
3939.000000	98.813732
3938.000000	98.810455
3937.000000	98.800049
3936.000000	98.786504
3935.000000	98.775835
3934.000000	98.772261
3933.000000	98.776417
3932.000000	98.785734
3931.000000	98.795558
3930.000000	98.801287
3929.000000	98.800488
3928.000000	98.794146
3927.000000	98.786162
3926.000000	98.780568
3925.000000	98.778809
3924.000000	98.779934
3923.000000	98.783296
3922.000000	98.788980
3921.000000	98.795256
3920.000000	98.798433
3919.000000	98.796181
3918.000000	98.790056
3917.000000	98.784644
3916.000000	98.784042
3915.000000	98.788833
3914.000000	98.795503
3913.000000	98.798512
3912.000000	98.794070
3911.000000	98.783599
3910.000000	98.772451
3909.000000	98.765577
3908.000000	98.764191
3907.000000	98.766440
3906.000000	98.769563
3905.000000	98.771921
3904.000000	98.773779
3903.000000	98.776974
3902.000000	98.783502
3901.000000	98.792984
3900.000000	98.801948
3899.000000	98.806979
3898.000000	98.808355
3897.000000	98.808966
3896.000000	98.810149
3895.000000	98.810711
3894.000000	98.809544
3893.000000	98.807214
3892.000000	98.804052
3891.000000	98.799467
3890.000000	98.794316
3889.000000	98.793053
3888.000000	98.797914
3887.000000	98.804534
3886.000000	98.805905
3885.000000	98.798834
3884.000000	98.787817
3883.000000	98.781226
3882.000000	98.781209
3881.000000	98.783360
3880.000000	98.783653
3879.000000	98.781996
3878.000000	98.782141
3877.000000	98.786554
3876.000000	98.792294
3875.000000	98.794517
3874.000000	98.790611
3873.000000	98.782781
3872.000000	98.776991
3871.000000	98.776136
3870.000000	98.776785
3869.000000	98.775198
3868.000000	98.775055
3867.000000	98.782602
3866.000000	98.794488
3865.000000	98.802234
3864.000000	98.804130
3863.000000	98.804781
3862.000000	98.806515
3861.000000	98.806190
3860.000000	98.800142
3859.000000	98.789582
3858.000000	98.778013
3857.000000	98.767662
3856.000000	98.758642
3855.000000	98.751636
3854.000000	98.748509
3853.000000	98.747121
3852.000000	98.744333
3851.000000	98.747857
3850.000000	98.761030
3849.000000	98.773839
3848.000000	98.779402
3847.000000	98.779206
3846.000000	98.776681
3845.000000	98.773305
3844.000000	98.768936
3843.000000	98.763924
3842.000000	98.760512
3841.000000	98.762535
3840.000000	98.771182
3839.000000	98.782626
3838.000000	98.790463
3837.000000	98.791977
3836.000000	98.790495
3835.000000	98.790865
3834.000000	98.793864
3833.000000	98.796475
3832.000000	98.795539
3831.000000	98.790734
3830.000000	98.785106
3829.000000	98.781884
3828.000000	98.780703
3827.000000	98.778050
3826.000000	98.771142
3825.000000	98.762191
3824.000000	98.757030
3823.000000	98.759203
3822.000000	98.766534
3821.000000	98.772102
3820.000000	98.770481
3819.000000	98.768041
3818.000000	98.773671
3817.000000	98.783983
3816.000000	98.790016
3815.000000	98.787524
3814.000000	98.781922
3813.000000	98.780780
3812.000000	98.781932
3811.000000	98.779818
3810.000000	98.775808
3809.000000	98.775139
3808.000000	98.778911
3807.000000	98.781627
3806.000000	98.778176
3805.000000	98.772481
3804.000000	98.771922
3803.000000	98.776355
3802.000000	98.780310
3801.000000	98.779303
3800.000000	98.774393
3799.000000	98.774029
3798.000000	98.780208
3797.000000	98.785219
3796.000000	98.784635
3795.000000	98.780994
3794.000000	98.779037
3793.000000	98.779929
3792.000000	98.781279
3791.000000	98.781432
3790.000000	98.780937
3789.000000	98.779943
3788.000000	98.777572
3787.000000	98.773666
3786.000000	98.769790
3785.000000	98.767750
3784.000000	98.768221
3783.000000	98.771289
3782.000000	98.776836
3781.000000	98.783368
3780.000000	98.788016
3779.000000	98.788769
3778.000000	98.786397
3777.000000	98.784242
3776.000000	98.784077
3775.000000	98.784272
3774.000000	98.782904
3773.000000	98.780642
3772.000000	98.779280
3771.000000	98.779346
3770.000000	98.780413
3769.000000	98.783185
3768.000000	98.789447
3767.000000	98.798501
3766.000000	98.804958
3765.000000	98.803390
3764.000000	98.794301
3763.000000	98.783411
3762.000000	98.775182
3761.000000	98.769950
3760.000000	98.767735
3759.000000	98.770373
3758.000000	98.777602
3757.000000	98.785545
3756.000000	98.789857
3755.000000	98.788981
3754.000000	98.783337
3753.000000	98.774905
3752.000000	98.768484
3751.000000	98.768053
3750.000000	98.770551
3749.000000	98.771309
3748.000000	98.774029
3747.000000	98.786716
3746.000000	98.810590
3745.000000	98.834469
3744.000000	98.840002
3743.000000	98.824081
3742.000000	98.807250
3741.000000	98.800487
3740.000000	98.794507
3739.000000	98.783648
3738.000000	98.772654
3737.000000	98.767599
3736.000000	98.768989
3735.000000	98.773844
3734.000000	98.782017
3733.000000	98.794828
3732.000000	98.808753
3731.000000	98.818749
3730.000000	98.825993
3729.000000	98.834699
3728.000000	98.844383
3727.000000	98.849639
3726.000000	98.846487
3725.000000	98.837274
3724.000000	98.828052
3723.000000	98.821523
3722.000000	98.816862
3721.000000	98.814364
3720.000000	98.816057
3719.000000	98.822170
3718.000000	98.829028
3717.000000	98.832124
3716.000000	98.830283
3715.000000	98.825935
3714.000000	98.821485
3713.000000	98.818351
3712.000000	98.818129
3711.000000	98.821029
3710.000000	98.824810
3709.000000	98.827280
3708.000000	98.827515
3707.000000	98.825950
3706.000000	98.824793
3705.000000	98.826350
3704.000000	98.830113
3703.000000	98.832836
3702.000000	98.832354
3701.000000	98.830685
3700.000000	98.831713
3699.000000	98.836077
3698.000000	98.839184
3697.000000	98.835255
3696.000000	98.823613
3695.000000	98.809858
3694.000000	98.800339
3693.000000	98.797371
3692.000000	98.800708
3691.000000	98.810174
3690.000000	98.823456
3689.000000	98.833351
3688.000000	98.833514
3687.000000	98.827262
3686.000000	98.823174
3685.000000	98.823797
3684.000000	98.824781
3683.000000	98.822144
3682.000000	98.815926
3681.000000	98.807951
3680.000000	98.798877
3679.000000	98.789615
3678.000000	98.784319
3677.000000	98.787262
3676.000000	98.795738
3675.000000	98.798257
3674.000000	98.790891
3673.000000	98.785737
3672.000000	98.788791
3671.000000	98.793413
3670.000000	98.793704
3669.000000	98.788139
3668.000000	98.780889
3667.000000	98.776658
3666.000000	98.772530
3665.000000	98.764238
3664.000000	98.752439
3663.000000	98.739968
3662.000000	98.728346
3661.000000	98.718088
3660.000000	98.710628
3659.000000	98.708081
3658.000000	98.710540
3657.000000	98.714195
3656.000000	98.713983
3655.000000	98.708926
3654.000000	98.703544
3653.000000	98.699955
3652.000000	98.694118
3651.000000	98.682704
3650.000000	98.669121
3649.000000	98.659814
3648.000000	98.657045
3647.000000	98.657924
3646.000000	98.658357
3645.000000	98.656602
3644.000000	98.653476
3643.000000	98.650544
3642.000000	98.648076
3641.000000	98.644706
3640.000000	98.638726
3639.000000	98.629547
3638.000000	98.618040
3637.000000	98.606494
3636.000000	98.597315
3635.000000	98.590474
3634.000000	98.583461
3633.000000	98.574875
3632.000000	98.567134
3631.000000	98.563919
3630.000000	98.566927
3629.000000	98.573443
3628.000000	98.575445
3627.000000	98.570261
3626.000000	98.562222
3625.000000	98.550021
3624.000000	98.531531
3623.000000	98.511350
3622.000000	98.495465
3621.000000	98.484494
3620.000000	98.473650
3619.000000	98.459226
3618.000000	98.444080
3617.000000	98.434976
3616.000000	98.434611
3615.000000	98.438335
3614.000000	98.438396
3613.000000	98.430052
3612.000000	98.414828
3611.000000	98.397800
3610.000000	98.382169
3609.000000	98.368520
3608.000000	98.357885
3607.000000	98.351589
3606.000000	98.348845
3605.000000	98.346324
3604.000000	98.340494
3603.000000	98.330566
3602.000000	98.318462
3601.000000	98.306325
3600.000000	98.295019
3599.000000	98.284342
3598.000000	98.273016
3597.000000	98.258838
3596.000000	98.241111
3595.000000	98.221993
3594.000000	98.204697
3593.000000	98.190662
3592.000000	98.179331
3591.000000	98.169428
3590.000000	98.160496
3589.000000	98.153081
3588.000000	98.147279
3587.000000	98.140960
3586.000000	98.132401
3585.000000	98.123293
3584.000000	98.115340
3583.000000	98.107307
3582.000000	98.096745
3581.000000	98.082132
3580.000000	98.064394
3579.000000	98.046965
3578.000000	98.033111
3577.000000	98.022722
3576.000000	98.012437
3575.000000	97.998792
3574.000000	97.981046
3573.000000	97.961326
3572.000000	97.942580
3571.000000	97.926619
3570.000000	97.913578
3569.000000	97.902438
3568.000000	97.891619
3567.000000	97.879643
3566.000000	97.866277
3565.000000	97.853151
3564.000000	97.841145
3563.000000	97.828357
3562.000000	97.812915
3561.000000	97.795751
3560.000000	97.779484
3559.000000	97.765245
3558.000000	97.751294
3557.000000	97.734999
3556.000000	97.715764
3555.000000	97.695666
3554.000000	97.677262
3553.000000	97.661324
3552.000000	97.647098
3551.000000	97.634394
3550.000000	97.624309
3549.000000	97.617640
3548.000000	97.613349
3547.000000	97.608716
3546.000000	97.600800
3545.000000	97.588465
3544.000000	97.573006
3543.000000	97.555848
3542.000000	97.536447
3541.000000	97.513828
3540.000000	97.489650
3539.000000	97.468281
3538.000000	97.452761
3537.000000	97.441283
3536.000000	97.428783
3535.000000	97.412316
3534.000000	97.393786
3533.000000	97.377428
3532.000000	97.366015
3531.000000	97.359244
3530.000000	97.354253
3529.000000	97.347155
3528.000000	97.335349
3527.000000	97.319160
3526.000000	97.301234
3525.000000	97.284164
3524.000000	97.268998
3523.000000	97.255574
3522.000000	97.243389
3521.000000	97.232031
3520.000000	97.221201
3519.000000	97.210501
3518.000000	97.198942
3517.000000	97.184805
3516.000000	97.166826
3515.000000	97.145948
3514.000000	97.125607
3513.000000	97.109525
3512.000000	97.098870
3511.000000	97.091512
3510.000000	97.084233
3509.000000	97.075626
3508.000000	97.066763
3507.000000	97.059247
3506.000000	97.053001
3505.000000	97.045999
3504.000000	97.036020
3503.000000	97.022699
3502.000000	97.007868
3501.000000	96.993554
3500.000000	96.979866
3499.000000	96.965387
3498.000000	96.949519
3497.000000	96.933694
3496.000000	96.919854
3495.000000	96.908035
3494.000000	96.896256
3493.000000	96.882977
3492.000000	96.868934
3491.000000	96.856197
3490.000000	96.846003
3489.000000	96.837867
3488.000000	96.830468
3487.000000	96.822750
3486.000000	96.814122
3485.000000	96.804122
3484.000000	96.792427
3483.000000	96.779338
3482.000000	96.766093
3481.000000	96.754374
3480.000000	96.745240
3479.000000	96.738287
3478.000000	96.731902
3477.000000	96.724552
3476.000000	96.716062
3475.000000	96.707656
3474.000000	96.700489
3473.000000	96.694021
3472.000000	96.686082
3471.000000	96.674896
3470.000000	96.661052
3469.000000	96.647099
3468.000000	96.634957
3467.000000	96.624165
3466.000000	96.613140
3465.000000	96.601685
3464.000000	96.591377
3463.000000	96.583540
3462.000000	96.577455
3461.000000	96.570676
3460.000000	96.560740
3459.000000	96.546798
3458.000000	96.530422
3457.000000	96.515035
3456.000000	96.503881
3455.000000	96.497848
3454.000000	96.495197
3453.000000	96.493101
3452.000000	96.489143
3451.000000	96.482038
3450.000000	96.472071
3449.000000	96.460964
3448.000000	96.450615
3447.000000	96.441444
3446.000000	96.432334
3445.000000	96.422199
3444.000000	96.410833
3443.000000	96.398641
3442.000000	96.386821
3441.000000	96.377627
3440.000000	96.372897
3439.000000	96.371693
3438.000000	96.370339
3437.000000	96.365486
3436.000000	96.356436
3435.000000	96.344141
3434.000000	96.329326
3433.000000	96.312776
3432.000000	96.296543
3431.000000	96.283156
3430.000000	96.273492
3429.000000	96.266234
3428.000000	96.259406
3427.000000	96.251565
3426.000000	96.241884
3425.000000	96.230493
3424.000000	96.219041
3423.000000	96.209668
3422.000000	96.202575
3421.000000	96.195227
3420.000000	96.184835
3419.000000	96.171384
3418.000000	96.157538
3417.000000	96.145742
3416.000000	96.136112
3415.000000	96.127018
3414.000000	96.117133
3413.000000	96.106499
3412.000000	96.095613
3411.000000	96.084180
3410.000000	96.071656
3409.000000	96.059029
3408.000000	96.048974
3407.000000	96.043337
3406.000000	96.040804
3405.000000	96.037777
3404.000000	96.031485
3403.000000	96.021847
3402.000000	96.010720
3401.000000	96.000101
3400.000000	95.990781
3399.000000	95.981780
3398.000000	95.971022
3397.000000	95.957362
3396.000000	95.942133
3395.000000	95.928094
3394.000000	95.916755
3393.000000	95.907214
3392.000000	95.897532
3391.000000	95.886629
3390.000000	95.874789
3389.000000	95.863083
3388.000000	95.852775
3387.000000	95.844761
3386.000000	95.838858
3385.000000	95.833574
3384.000000	95.826876
3383.000000	95.817470
3382.000000	95.805768
3381.000000	95.793868
3380.000000	95.784200
3379.000000	95.777390
3378.000000	95.771323
3377.000000	95.762693
3376.000000	95.749666
3375.000000	95.732948
3374.000000	95.714617
3373.000000	95.696518
3372.000000	95.679713
3371.000000	95.664657
3370.000000	95.651179
3369.000000	95.638361
3368.000000	95.624873
3367.000000	95.609874
3366.000000	95.593809
3365.000000	95.578183
3364.000000	95.564136
3363.000000	95.551100
3362.000000	95.537044
3361.000000	95.520134
3360.000000	95.500026
3359.000000	95.477606
3358.000000	95.454102
3357.000000	95.430790
3356.000000	95.408994
3355.000000	95.389536
3354.000000	95.371950
3353.000000	95.354506
3352.000000	95.335270
3351.000000	95.313418
3350.000000	95.289879
3349.000000	95.266660
3348.000000	95.245066
3347.000000	95.224485
3346.000000	95.203233
3345.000000	95.180608
3344.000000	95.157719
3343.000000	95.136317
3342.000000	95.117437
3341.000000	95.101301
3340.000000	95.087575
3339.000000	95.075227
3338.000000	95.062722
3337.000000	95.048797
3336.000000	95.032619
3335.000000	95.013112
3334.000000	94.989271
3333.000000	94.962078
3332.000000	94.935416
3331.000000	94.913820
3330.000000	94.899003
3329.000000	94.888669
3328.000000	94.878387
3327.000000	94.864461
3326.000000	94.845886
3325.000000	94.824479
3324.000000	94.803161
3323.000000	94.783721
3322.000000	94.766313
3321.000000	94.750963
3320.000000	94.738425
3319.000000	94.728995
3318.000000	94.721309
3317.000000	94.713179
3316.000000	94.703219
3315.000000	94.690977
3314.000000	94.676212
3313.000000	94.659131
3312.000000	94.640994
3311.000000	94.623550
3310.000000	94.608009
3309.000000	94.595082
3308.000000	94.585450
3307.000000	94.579157
3306.000000	94.574750
3305.000000	94.569812
3304.000000	94.562256
3303.000000	94.550960
3302.000000	94.536102
3301.000000	94.519983
3300.000000	94.506754
3299.000000	94.499507
3298.000000	94.497373
3297.000000	94.496409
3296.000000	94.493359
3295.000000	94.487645
3294.000000	94.479958
3293.000000	94.470848
3292.000000	94.461421
3291.000000	94.453879
3290.000000	94.449794
3289.000000	94.448030
3288.000000	94.445435
3287.000000	94.439976
3286.000000	94.432845
3285.000000	94.427168
3284.000000	94.424628
3283.000000	94.423572
3282.000000	94.420968
3281.000000	94.416452
3280.000000	94.413729
3279.000000	94.417192
3278.000000	94.427504
3277.000000	94.440954
3276.000000	94.452933
3275.000000	94.461540
3274.000000	94.468009
3273.000000	94.474686
3272.000000	94.482755
3271.000000	94.491144
3270.000000	94.497349
3269.000000	94.499794
3268.000000	94.499564
3267.000000	94.499593
3266.000000	94.502172
3265.000000	94.507575
3264.000000	94.514955
3263.000000	94.523714
3262.000000	94.533706
3261.000000	94.544716
3260.000000	94.556122
3259.000000	94.566897
3258.000000	94.576018
3257.000000	94.583374
3256.000000	94.590345
3255.000000	94.599087
3254.000000	94.610941
3253.000000	94.625628
3252.000000	94.641750
3251.000000	94.657469
3250.000000	94.670880
3249.000000	94.680876
3248.000000	94.688415
3247.000000	94.696310
3246.000000	94.706686
3245.000000	94.718309
3244.000000	94.727221
3243.000000	94.730698
3242.000000	94.730309
3241.000000	94.730856
3240.000000	94.736477
3239.000000	94.748096
3238.000000	94.764132
3237.000000	94.782266
3236.000000	94.799939
3235.000000	94.814519
3234.000000	94.824818
3233.000000	94.832364
3232.000000	94.839715
3231.000000	94.847154
3230.000000	94.852368
3229.000000	94.853928
3228.000000	94.853831
3227.000000	94.855679
3226.000000	94.861207
3225.000000	94.869591
3224.000000	94.879227
3223.000000	94.888934
3222.000000	94.897970
3221.000000	94.906400
3220.000000	94.915587
3219.000000	94.927008
3218.000000	94.940079
3217.000000	94.951992
3216.000000	94.960055
3215.000000	94.963851
3214.000000	94.964979
3213.000000	94.965292
3212.000000	94.965910
3211.000000	94.967695
3210.000000	94.971936
3209.000000	94.979905
3208.000000	94.991707
3207.000000	95.006106
3206.000000	95.021780
3205.000000	95.038160
3204.000000	95.054340
3203.000000	95.067814
3202.000000	95.075952
3201.000000	95.079198
3200.000000	95.081560
3199.000000	95.086979
3198.000000	95.095919
3197.000000	95.106139
3196.000000	95.115772
3195.000000	95.124681
3194.000000	95.133659
3193.000000	95.143863
3192.000000	95.156646
3191.000000	95.172483
3190.000000	95.189977
3189.000000	95.206907
3188.000000	95.222266
3187.000000	95.236458
3186.000000	95.249891
3185.000000	95.262640
3184.000000	95.275366
3183.000000	95.288995
3182.000000	95.303026
3181.000000	95.315465
3180.000000	95.325274
3179.000000	95.334134
3178.000000	95.345007
3177.000000	95.359501
3176.000000	95.377343
3175.000000	95.397595
3174.000000	95.419018
3173.000000	95.439326
3172.000000	95.455501
3171.000000	95.465955
3170.000000	95.472222
3169.000000	95.478044
3168.000000	95.486628
3167.000000	95.498856
3166.000000	95.513827
3165.000000	95.530318
3164.000000	95.547352
3163.000000	95.563965
3162.000000	95.579459
3161.000000	95.593979
3160.000000	95.608199
3159.000000	95.622372
3158.000000	95.636347
3157.000000	95.650653
3156.000000	95.666568
3155.000000	95.684507
3154.000000	95.703066
3153.000000	95.720305
3152.000000	95.735410
3151.000000	95.748431
3150.000000	95.759274
3149.000000	95.768299
3148.000000	95.777609
3147.000000	95.790187
3146.000000	95.807100
3145.000000	95.826233
3144.000000	95.844089
3143.000000	95.858443
3142.000000	95.869239
3141.000000	95.877770
3140.000000	95.885552
3139.000000	95.893533
3138.000000	95.901913
3137.000000	95.910722
3136.000000	95.920331
3135.000000	95.930903
3134.000000	95.941540
3133.000000	95.950727
3132.000000	95.957838
3131.000000	95.963482
3130.000000	95.968299
3129.000000	95.972331
3128.000000	95.976119
3127.000000	95.981588
3126.000000	95.990722
3125.000000	96.003198
3124.000000	96.015836
3123.000000	96.024725
3122.000000	96.028069
3121.000000	96.027355
3120.000000	96.026071
3119.000000	96.027095
3118.000000	96.030724
3117.000000	96.034935
3116.000000	96.037405
3115.000000	96.037297
3114.000000	96.035246
3113.000000	96.032043
3112.000000	96.027855
3111.000000	96.022753
3110.000000	96.017614
3109.000000	96.013963
3108.000000	96.012555
3107.000000	96.012219
3106.000000	96.010546
3105.000000	96.006124
3104.000000	96.000065
3103.000000	95.994979
3102.000000	95.992096
3101.000000	95.989537
3100.000000	95.983946
3099.000000	95.974180
3098.000000	95.963081
3097.000000	95.955146
3096.000000	95.952321
3095.000000	95.952272
3094.000000	95.950917
3093.000000	95.946151
3092.000000	95.938689
3091.000000	95.930058
3090.000000	95.921088
3089.000000	95.912446
3088.000000	95.905268
3087.000000	95.900189
3086.000000	95.896164
3085.000000	95.891242
3084.000000	95.884663
3083.000000	95.877696
3082.000000	95.872278
3081.000000	95.869139
3080.000000	95.867428
3079.000000	95.865887
3078.000000	95.864132
3077.000000	95.862636
3076.000000	95.861557
3075.000000	95.860118
3074.000000	95.857575
3073.000000	95.854608
3072.000000	95.853144
3071.000000	95.854635
3070.000000	95.858935
3069.000000	95.864825
3068.000000	95.871012
3067.000000	95.876511
3066.000000	95.880892
3065.000000	95.884794
3064.000000	95.889544
3063.000000	95.895724
3062.000000	95.902599
3061.000000	95.909502
3060.000000	95.917147
3059.000000	95.926667
3058.000000	95.937749
3057.000000	95.948718
3056.000000	95.958549
3055.000000	95.968111
3054.000000	95.979220
3053.000000	95.992835
3052.000000	96.008148
3051.000000	96.023089
3050.000000	96.036007
3049.000000	96.047491
3048.000000	96.060277
3047.000000	96.076611
3046.000000	96.095665
3045.000000	96.114205
3044.000000	96.129833
3043.000000	96.142947
3042.000000	96.155435
3041.000000	96.168241
3040.000000	96.180835
3039.000000	96.192743
3038.000000	96.204785
3037.000000	96.218491
3036.000000	96.234589
3035.000000	96.252309
3034.000000	96.269992
3033.000000	96.286069
3032.000000	96.299466
3031.000000	96.309761
3030.000000	96.317594
3029.000000	96.324686
3028.000000	96.332806
3027.000000	96.342553
3026.000000	96.353490
3025.000000	96.365163
3024.000000	96.377185
3023.000000	96.388500
3022.000000	96.397932
3021.000000	96.406114
3020.000000	96.415713
3019.000000	96.428607
3018.000000	96.443331
3017.000000	96.456275
3016.000000	96.465166
3015.000000	96.470591
3014.000000	96.474434
3013.000000	96.477769
3012.000000	96.480180
3011.000000	96.480335
3010.000000	96.477276
3009.000000	96.471757
3008.000000	96.466358
3007.000000	96.463647
3006.000000	96.464117
3005.000000	96.465989
3004.000000	96.466556
3003.000000	96.463495
3002.000000	96.455774
3001.000000	96.444547
3000.000000	96.432903
2999.000000	96.423497
2998.000000	96.416078
2997.000000	96.407986
2996.000000	96.397102
2995.000000	96.383602
2994.000000	96.368941
2993.000000	96.354169
2992.000000	96.339553
2991.000000	96.324871
2990.000000	96.309449
2989.000000	96.292302
2988.000000	96.272676
2987.000000	96.250301
2986.000000	96.225174
2985.000000	96.197835
2984.000000	96.169950
2983.000000	96.143735
2982.000000	96.119974
2981.000000	96.096710
2980.000000	96.070511
2979.000000	96.039326
2978.000000	96.004269
2977.000000	95.968675
2976.000000	95.935243
2975.000000	95.903793
2974.000000	95.871538
2973.000000	95.835434
2972.000000	95.794147
2971.000000	95.748093
2970.000000	95.698620
2969.000000	95.647710
2968.000000	95.597679
2967.000000	95.549966
2966.000000	95.504280
2965.000000	95.459813
2964.000000	95.417302
2963.000000	95.379182
2962.000000	95.347575
2961.000000	95.322913
2960.000000	95.304673
2959.000000	95.292635
2958.000000	95.286951
2957.000000	95.287296
2956.000000	95.292639
2955.000000	95.301772
2954.000000	95.314042
2953.000000	95.329543
2952.000000	95.348436
2951.000000	95.369733
2950.000000	95.390338
2949.000000	95.405414
2948.000000	95.409966
2947.000000	95.401076
2946.000000	95.379820
2945.000000	95.351321
2944.000000	95.321863
2943.000000	95.294287
2942.000000	95.265949
2941.000000	95.231599
2940.000000	95.188631
2939.000000	95.139478
2938.000000	95.089433
2937.000000	95.042869
2936.000000	95.001226
2935.000000	94.963728
2934.000000	94.929413
2933.000000	94.898669
2932.000000	94.872897
2931.000000	94.852589
2930.000000	94.836192
2929.000000	94.821534
2928.000000	94.808654
2927.000000	94.800710
2926.000000	94.801755
2925.000000	94.813607
2924.000000	94.834694
2923.000000	94.861768
2922.000000	94.892750
2921.000000	94.928347
2920.000000	94.970887
2919.000000	95.021256
2918.000000	95.077077
2917.000000	95.134279
2916.000000	95.190619
2915.000000	95.247131
2914.000000	95.305824
2913.000000	95.366342
2912.000000	95.425438
2911.000000	95.479918
2910.000000	95.529515
2909.000000	95.576449
2908.000000	95.622284
2907.000000	95.665945
2906.000000	95.705424
2905.000000	95.741036
2904.000000	95.775955
2903.000000	95.813112
2902.000000	95.852212
2901.000000	95.890408
2900.000000	95.925454
2899.000000	95.957609
2898.000000	95.988570
2897.000000	96.019283
2896.000000	96.049086
2895.000000	96.076620
2894.000000	96.101324
2893.000000	96.123918
2892.000000	96.145379
2891.000000	96.165665
2890.000000	96.183761
2889.000000	96.198782
2888.000000	96.210216
2887.000000	96.217023
2886.000000	96.217701
2885.000000	96.212091
2884.000000	96.202463
2883.000000	96.191711
2882.000000	96.180747
2881.000000	96.168490
2880.000000	96.154030
2879.000000	96.137734
2878.000000	96.120320
2877.000000	96.102169
2876.000000	96.083937
2875.000000	96.067064
2874.000000	96.053200
2873.000000	96.043573
2872.000000	96.039304
2871.000000	96.041658
2870.000000	96.051101
2869.000000	96.065846
2868.000000	96.081785
2867.000000	96.094369
2866.000000	96.101065
2865.000000	96.102161
2864.000000	96.099056
2863.000000	96.092105
2862.000000	96.080798
2861.000000	96.066109
2860.000000	96.051420
2859.000000	96.040074
2858.000000	96.032656
2857.000000	96.027947
2856.000000	96.026347
2855.000000	96.030923
2854.000000	96.044865
2853.000000	96.068826
2852.000000	96.101171
2851.000000	96.140081
2850.000000	96.184821
2849.000000	96.235391
2848.000000	96.291483
2847.000000	96.351609
2846.000000	96.412988
2845.000000	96.472465
2844.000000	96.527694
2843.000000	96.577686
2842.000000	96.622599
2841.000000	96.663339
2840.000000	96.701115
2839.000000	96.736614
2838.000000	96.769367
2837.000000	96.798130
2836.000000	96.821818
2835.000000	96.840025
2834.000000	96.853251
2833.000000	96.863181
2832.000000	96.872266
2831.000000	96.882079
2830.000000	96.892290
2829.000000	96.902088
2828.000000	96.912153
2827.000000	96.923983
2826.000000	96.937411
2825.000000	96.950323
2824.000000	96.961282
2823.000000	96.971016
2822.000000	96.980629
2821.000000	96.989637
2820.000000	96.997016
2819.000000	97.003402
2818.000000	97.010782
2817.000000	97.020133
2816.000000	97.030328
2815.000000	97.039457
2814.000000	97.046580
2813.000000	97.052086
2812.000000	97.056978
2811.000000	97.062085
2810.000000	97.067719
2809.000000	97.073968
2808.000000	97.081210
2807.000000	97.089949
2806.000000	97.099810
2805.000000	97.109073
2804.000000	97.115884
2803.000000	97.120068
2802.000000	97.123362
2801.000000	97.127720
2800.000000	97.133534
2799.000000	97.139549
2798.000000	97.144314
2797.000000	97.147603
2796.000000	97.150504
2795.000000	97.154270
2794.000000	97.159188
2793.000000	97.164527
2792.000000	97.169339
2791.000000	97.173184
2790.000000	97.176370
2789.000000	97.179941
2788.000000	97.185362
2787.000000	97.193673
2786.000000	97.204562
2785.000000	97.216321
2784.000000	97.226754
2783.000000	97.234205
2782.000000	97.238161
2781.000000	97.239550
2780.000000	97.240509
2779.000000	97.243280
2778.000000	97.248846
2777.000000	97.256640
2776.000000	97.265457
2775.000000	97.274300
2774.000000	97.282395
2773.000000	97.289029
2772.000000	97.293870
2771.000000	97.297270
2770.000000	97.299960
2769.000000	97.302562
2768.000000	97.305492
2767.000000	97.309100
2766.000000	97.313603
2765.000000	97.318839
2764.000000	97.324206
2763.000000	97.328993
2762.000000	97.332994
2761.000000	97.336901
2760.000000	97.341859
2759.000000	97.348346
2758.000000	97.355559
2757.000000	97.362180
2756.000000	97.367604
2755.000000	97.372188
2754.000000	97.376497
2753.000000	97.380781
2752.000000	97.385057
2751.000000	97.389108
2750.000000	97.392283
2749.000000	97.393875
2748.000000	97.394083
2747.000000	97.394376
2746.000000	97.396635
2745.000000	97.401926
2744.000000	97.409939
2743.000000	97.419238
2742.000000	97.428004
2741.000000	97.434957
2740.000000	97.439880
2739.000000	97.443236
2738.000000	97.445420
2737.000000	97.446696
2736.000000	97.447792
2735.000000	97.449924
2734.000000	97.453883
2733.000000	97.459334
2732.000000	97.465245
2731.000000	97.470760
2730.000000	97.475544
2729.000000	97.479657
2728.000000	97.483547
2727.000000	97.487943
2726.000000	97.493242
2725.000000	97.498843
2724.000000	97.503415
2723.000000	97.506055
2722.000000	97.507097
2721.000000	97.507745
2720.000000	97.509188
2719.000000	97.512233
2718.000000	97.517378
2717.000000	97.524457
2716.000000	97.531962
2715.000000	97.537436
2714.000000	97.539291
2713.000000	97.538249
2712.000000	97.536568
2711.000000	97.536049
2710.000000	97.537294
2709.000000	97.540498
2708.000000	97.545766
2707.000000	97.552293
2706.000000	97.558258
2705.000000	97.562327
2704.000000	97.564748
2703.000000	97.566419
2702.000000	97.567544
2701.000000	97.568014
2700.000000	97.568573
2699.000000	97.570482
2698.000000	97.574069
2697.000000	97.578481
2696.000000	97.582918
2695.000000	97.587248
2694.000000	97.591152
2693.000000	97.593567
2692.000000	97.593718
2691.000000	97.592441
2690.000000	97.591768
2689.000000	97.593027
2688.000000	97.595677
2687.000000	97.598300
2686.000000	97.600467
2685.000000	97.603013
2684.000000	97.606260
2683.000000	97.608729
2682.000000	97.608623
2681.000000	97.606416
2680.000000	97.604934
2679.000000	97.606504
2678.000000	97.610818
2677.000000	97.615902
2676.000000	97.620253
2675.000000	97.623377
2674.000000	97.625131
2673.000000	97.625584
2672.000000	97.625223
2671.000000	97.624438
2670.000000	97.623084
2669.000000	97.621162
2668.000000	97.619538
2667.000000	97.619189
2666.000000	97.619964
2665.000000	97.620781
2664.000000	97.620830
2663.000000	97.619952
2662.000000	97.618287
2661.000000	97.616344
2660.000000	97.615046
2659.000000	97.614754
2658.000000	97.614518
2657.000000	97.613393
2656.000000	97.612445
2655.000000	97.614252
2654.000000	97.620127
2653.000000	97.628730
2652.000000	97.637474
2651.000000	97.644402
2650.000000	97.648670
2649.000000	97.650685
2648.000000	97.652525
2647.000000	97.657019
2646.000000	97.665125
2645.000000	97.674588
2644.000000	97.682124
2643.000000	97.686724
2642.000000	97.690134
2641.000000	97.694393
2640.000000	97.699830
2639.000000	97.705617
2638.000000	97.711328
2637.000000	97.717144
2636.000000	97.722682
2635.000000	97.726527
2634.000000	97.727629
2633.000000	97.726998
2632.000000	97.727337
2631.000000	97.730708
2630.000000	97.736984
2629.000000	97.744912
2628.000000	97.754095
2627.000000	97.765102
2626.000000	97.777543
2625.000000	97.788719
2624.000000	97.794899
2623.000000	97.794473
2622.000000	97.790089
2621.000000	97.787240
2620.000000	97.789952
2619.000000	97.797790
2618.000000	97.807408
2617.000000	97.816343
2616.000000	97.823946
2615.000000	97.829174
2614.000000	97.830312
2613.000000	97.828134
2612.000000	97.827077
2611.000000	97.830718
2610.000000	97.837102
2609.000000	97.840914
2608.000000	97.839990
2607.000000	97.837747
2606.000000	97.839185
2605.000000	97.846470
2604.000000	97.858455
2603.000000	97.872299
2602.000000	97.884498
2601.000000	97.891782
2600.000000	97.892741
2599.000000	97.888860
2598.000000	97.883793
2597.000000	97.881676
2596.000000	97.885461
2595.000000	97.895447
2594.000000	97.908687
2593.000000	97.920304
2592.000000	97.926379
2591.000000	97.926531
2590.000000	97.924200
2589.000000	97.923942
2588.000000	97.927253
2587.000000	97.931011
2586.000000	97.931239
2585.000000	97.928233
2584.000000	97.926317
2583.000000	97.928201
2582.000000	97.931988
2581.000000	97.934850
2580.000000	97.937032
2579.000000	97.939980
2578.000000	97.942459
2577.000000	97.941863
2576.000000	97.938765
2575.000000	97.937443
2574.000000	97.941387
2573.000000	97.949814
2572.000000	97.958591
2571.000000	97.963555
2570.000000	97.963660
2569.000000	97.962280
2568.000000	97.964604
2567.000000	97.972089
2566.000000	97.980246
2565.000000	97.983517
2564.000000	97.981605
2563.000000	97.979157
2562.000000	97.980099
2561.000000	97.984363
2560.000000	97.989561
2559.000000	97.993792
2558.000000	97.996813
2557.000000	97.999876
2556.000000	98.003946
2555.000000	98.007121
2554.000000	98.005396
2553.000000	97.997918
2552.000000	97.989753
2551.000000	97.986858
2550.000000	97.989460
2549.000000	97.993215
2548.000000	97.995537
2547.000000	97.997373
2546.000000	97.999482
2545.000000	98.000869
2544.000000	98.001295
2543.000000	98.001995
2542.000000	98.003128
2541.000000	98.003191
2540.000000	98.001651
2539.000000	97.999734
2538.000000	97.998262
2537.000000	97.997210
2536.000000	97.997935
2535.000000	98.003053
2534.000000	98.012811
2533.000000	98.023296
2532.000000	98.029184
2531.000000	98.027498
2530.000000	98.019219
2529.000000	98.009289
2528.000000	98.004546
2527.000000	98.008726
2526.000000	98.018742
2525.000000	98.027743
2524.000000	98.031902
2523.000000	98.032432
2522.000000	98.031706
2521.000000	98.030790
2520.000000	98.031155
2519.000000	98.035129
2518.000000	98.042740
2517.000000	98.050350
2516.000000	98.054376
2515.000000	98.055018
2514.000000	98.055149
2513.000000	98.056729
2512.000000	98.059190
2511.000000	98.060426
2510.000000	98.058855
2509.000000	98.055291
2508.000000	98.052545
2507.000000	98.052085
2506.000000	98.051978
2505.000000	98.050090
2504.000000	98.048549
2503.000000	98.052245
2502.000000	98.062735
2501.000000	98.076122
2500.000000	98.087131
2499.000000	98.093045
2498.000000	98.093820
2497.000000	98.091412
2496.000000	98.089458
2495.000000	98.090439
2494.000000	98.091863
2493.000000	98.088267
2492.000000	98.078744
2491.000000	98.070145
2490.000000	98.070933
2489.000000	98.083319
2488.000000	98.102760
2487.000000	98.123081
2486.000000	98.139974
2485.000000	98.150900
2484.000000	98.154530
2483.000000	98.151270
2482.000000	98.143619
2481.000000	98.135324
2480.000000	98.129470
2479.000000	98.126543
2478.000000	98.124597
2477.000000	98.122129
2476.000000	98.120168
2475.000000	98.120639
2474.000000	98.123549
2473.000000	98.127288
2472.000000	98.130827
2471.000000	98.133813
2470.000000	98.135309
2469.000000	98.134763
2468.000000	98.133758
2467.000000	98.134289
2466.000000	98.135513
2465.000000	98.134759
2464.000000	98.131890
2463.000000	98.130123
2462.000000	98.132099
2461.000000	98.137370
2460.000000	98.143787
2459.000000	98.148862
2458.000000	98.149440
2457.000000	98.143093
2456.000000	98.131413
2455.000000	98.120413
2454.000000	98.116603
2453.000000	98.123476
2452.000000	98.140533
2451.000000	98.162694
2450.000000	98.180915
2449.000000	98.187380
2448.000000	98.182257
2447.000000	98.173547
2446.000000	98.169048
2445.000000	98.170157
2444.000000	98.173632
2443.000000	98.176031
2442.000000	98.175357
2441.000000	98.171321
2440.000000	98.166201
2439.000000	98.163528
2438.000000	98.164210
2437.000000	98.165470
2436.000000	98.164817
2435.000000	98.163121
2434.000000	98.162470
2433.000000	98.163135
2432.000000	98.164481
2431.000000	98.167146
2430.000000	98.172040
2429.000000	98.177942
2428.000000	98.181835
2427.000000	98.181460
2426.000000	98.176864
2425.000000	98.170180
2424.000000	98.164494
2423.000000	98.162048
2422.000000	98.162899
2421.000000	98.165825
2420.000000	98.170164
2419.000000	98.175394
2418.000000	98.179391
2417.000000	98.179588
2416.000000	98.176536
2415.000000	98.174237
2414.000000	98.175895
2413.000000	98.180981
2412.000000	98.187255
2411.000000	98.193779
2410.000000	98.200573
2409.000000	98.206800
2408.000000	98.210883
2407.000000	98.211743
2406.000000	98.209103
2405.000000	98.203438
2404.000000	98.196549
2403.000000	98.191427
2402.000000	98.190780
2401.000000	98.195739
2400.000000	98.205448
2399.000000	98.216691
2398.000000	98.224395
2397.000000	98.224716
2396.000000	98.218659
2395.000000	98.211570
2394.000000	98.208486
2393.000000	98.210692
2392.000000	98.216367
2391.000000	98.222666
2390.000000	98.226827
2389.000000	98.227497
2388.000000	98.226263
2387.000000	98.226441
2386.000000	98.229213
2385.000000	98.231866
2384.000000	98.231028
2383.000000	98.227252
2382.000000	98.225234
2381.000000	98.229679
2380.000000	98.240790
2379.000000	98.253589
2378.000000	98.262114
2377.000000	98.264709
2376.000000	98.264413
2375.000000	98.263009
2374.000000	98.256751
2373.000000	98.241493
2372.000000	98.221645
2371.000000	98.209104
2370.000000	98.211106
2369.000000	98.222313
2368.000000	98.230924
2367.000000	98.230977
2366.000000	98.226753
2365.000000	98.226515
2364.000000	98.233423
2363.000000	98.241818
2362.000000	98.241947
2361.000000	98.228981
2360.000000	98.209118
2359.000000	98.195529
2358.000000	98.197347
2357.000000	98.214088
2356.000000	98.235567
2355.000000	98.249950
2354.000000	98.253411
2353.000000	98.250546
2352.000000	98.245153
2351.000000	98.234883
2350.000000	98.217862
2349.000000	98.196567
2348.000000	98.176215
2347.000000	98.162457
2346.000000	98.158494
2345.000000	98.162356
2344.000000	98.168336
2343.000000	98.174773
2342.000000	98.183082
2341.000000	98.192990
2340.000000	98.202578
2339.000000	98.209449
2338.000000	98.211563
2337.000000	98.207844
2336.000000	98.200125
2335.000000	98.192834
2334.000000	98.190893
2333.000000	98.195266
2332.000000	98.202565
2331.000000	98.207758
2330.000000	98.210070
2329.000000	98.209987
2328.000000	98.204469
2327.000000	98.186582
2326.000000	98.154218
2325.000000	98.117595
2324.000000	98.094580
2323.000000	98.096918
2322.000000	98.119584
2321.000000	98.146211
2320.000000	98.164849
2319.000000	98.174600
2318.000000	98.180804
2317.000000	98.187342
2316.000000	98.196018
2315.000000	98.206073
2314.000000	98.214812
2313.000000	98.219997
2312.000000	98.224245
2311.000000	98.232247
2310.000000	98.243994
2309.000000	98.252784
2308.000000	98.253215
2307.000000	98.247389
2306.000000	98.241443
2305.000000	98.237840
2304.000000	98.234384
2303.000000	98.228604
2302.000000	98.220595
2301.000000	98.211154
2300.000000	98.201143
2299.000000	98.192391
2298.000000	98.188172
2297.000000	98.190269
2296.000000	98.196160
2295.000000	98.199527
2294.000000	98.195171
2293.000000	98.183923
2292.000000	98.172380
2291.000000	98.167130
2290.000000	98.169216
2289.000000	98.174485
2288.000000	98.177971
2287.000000	98.177397
2286.000000	98.173718
2285.000000	98.170517
2284.000000	98.171963
2283.000000	98.179327
2282.000000	98.189591
2281.000000	98.198985
2280.000000	98.206692
2279.000000	98.212911
2278.000000	98.215019
2277.000000	98.209855
2276.000000	98.200078
2275.000000	98.194126
2274.000000	98.198622
2273.000000	98.212658
2272.000000	98.230099
2271.000000	98.245237
2270.000000	98.255882
2269.000000	98.263251
2268.000000	98.269907
2267.000000	98.276451
2266.000000	98.280082
2265.000000	98.277499
2264.000000	98.269160
2263.000000	98.259926
2262.000000	98.255933
2261.000000	98.260118
2260.000000	98.267608
2259.000000	98.266546
2258.000000	98.249731
2257.000000	98.227803
2256.000000	98.223457
2255.000000	98.246030
2254.000000	98.277330
2253.000000	98.290435
2252.000000	98.279084
2251.000000	98.260446
2250.000000	98.253177
2249.000000	98.261997
2248.000000	98.280916
2247.000000	98.300287
2246.000000	98.310222
2245.000000	98.306752
2244.000000	98.297784
2243.000000	98.296171
2242.000000	98.304928
2241.000000	98.315174
2240.000000	98.318547
2239.000000	98.314721
2238.000000	98.306479
2237.000000	98.296442
2236.000000	98.290456
2235.000000	98.295607
2234.000000	98.311015
2233.000000	98.327172
2232.000000	98.337237
2231.000000	98.342528
2230.000000	98.344147
2229.000000	98.337260
2228.000000	98.319211
2227.000000	98.297672
2226.000000	98.285259
2225.000000	98.288791
2224.000000	98.306330
2223.000000	98.330808
2222.000000	98.353385
2221.000000	98.366668
2220.000000	98.368674
2219.000000	98.362841
2218.000000	98.353626
2217.000000	98.344435
2216.000000	98.338907
2215.000000	98.339525
2214.000000	98.344512
2213.000000	98.349935
2212.000000	98.355398
2211.000000	98.364065
2210.000000	98.376434
2209.000000	98.387722
2208.000000	98.392796
2207.000000	98.392007
2206.000000	98.391631
2205.000000	98.398488
2204.000000	98.411481
2203.000000	98.418857
2202.000000	98.409835
2201.000000	98.390745
2200.000000	98.381234
2199.000000	98.389273
2198.000000	98.398955
2197.000000	98.391010
2196.000000	98.368663
2195.000000	98.352751
2194.000000	98.356412
2193.000000	98.373740
2192.000000	98.388622
2191.000000	98.386182
2190.000000	98.360890
2189.000000	98.325195
2188.000000	98.305695
2187.000000	98.319013
2186.000000	98.354403
2185.000000	98.388897
2184.000000	98.414066
2183.000000	98.437518
2182.000000	98.463230
2181.000000	98.484722
2180.000000	98.495377
2179.000000	98.493543
2178.000000	98.481025
2177.000000	98.467851
2176.000000	98.471465
2175.000000	98.497072
2174.000000	98.523733
2173.000000	98.523169
2172.000000	98.488114
2171.000000	98.432214
2170.000000	98.373309
2169.000000	98.329798
2168.000000	98.318944
2167.000000	98.338638
2166.000000	98.359560
2165.000000	98.355221
2164.000000	98.335236
2163.000000	98.329388
2162.000000	98.349655
2161.000000	98.395290
2160.000000	98.481080
2159.000000	98.618794
2158.000000	98.768547
2157.000000	98.859059
2156.000000	98.864013
2155.000000	98.815497
2154.000000	98.753005
2153.000000	98.697045
2152.000000	98.657436
2151.000000	98.634099
2150.000000	98.614866
2149.000000	98.594671
2148.000000	98.591418
2147.000000	98.620378
2146.000000	98.659654
2145.000000	98.666785
2144.000000	98.629616
2143.000000	98.576429
2142.000000	98.536925
2141.000000	98.517675
2140.000000	98.514877
2139.000000	98.526280
2138.000000	98.543528
2137.000000	98.551685
2136.000000	98.545552
2135.000000	98.534790
2134.000000	98.528394
2133.000000	98.526749
2132.000000	98.530389
2131.000000	98.542076
2130.000000	98.556439
2129.000000	98.559650
2128.000000	98.544581
2127.000000	98.518660
2126.000000	98.494500
2125.000000	98.479154
2124.000000	98.472963
2123.000000	98.471151
2122.000000	98.465845
2121.000000	98.453250
2120.000000	98.438748
2119.000000	98.428025
2118.000000	98.415618
2117.000000	98.391963
2116.000000	98.360839
2115.000000	98.337689
2114.000000	98.328583
2113.000000	98.321776
2112.000000	98.304127
2111.000000	98.276859
2110.000000	98.250422
2109.000000	98.232491
2108.000000	98.226321
2107.000000	98.233570
2106.000000	98.252602
2105.000000	98.278054
2104.000000	98.306027
2103.000000	98.335648
2102.000000	98.363388
2101.000000	98.381671
2100.000000	98.387065
2099.000000	98.385799
2098.000000	98.388405
2097.000000	98.401535
2096.000000	98.423781
2095.000000	98.444823
2094.000000	98.450624
2093.000000	98.435919
2092.000000	98.411571
2091.000000	98.393897
2090.000000	98.388691
2089.000000	98.390413
2088.000000	98.392991
2087.000000	98.394020
2086.000000	98.391027
2085.000000	98.383506
2084.000000	98.377645
2083.000000	98.380252
2082.000000	98.388744
2081.000000	98.395633
2080.000000	98.400381
2079.000000	98.406896
2078.000000	98.411505
2077.000000	98.406386
2076.000000	98.394472
2075.000000	98.388186
2074.000000	98.393204
2073.000000	98.405074
2072.000000	98.422044
2071.000000	98.445967
2070.000000	98.469341
2069.000000	98.477872
2068.000000	98.470527
2067.000000	98.463286
2066.000000	98.468798
2065.000000	98.484552
2064.000000	98.503287
2063.000000	98.521621
2062.000000	98.534678
2061.000000	98.536522
2060.000000	98.529694
2059.000000	98.521195
2058.000000	98.508662
2057.000000	98.487761
2056.000000	98.473128
2055.000000	98.488694
2054.000000	98.529869
2053.000000	98.558327
2052.000000	98.548518
2051.000000	98.519721
2050.000000	98.508559
2049.000000	98.524631
2048.000000	98.547994
2047.000000	98.561859
2046.000000	98.568582
2045.000000	98.576298
2044.000000	98.586359
2043.000000	98.592887
2042.000000	98.586387
2041.000000	98.563356
2040.000000	98.536090
2039.000000	98.522410
2038.000000	98.525612
2037.000000	98.538799
2036.000000	98.566454
2035.000000	98.619672
2034.000000	98.685699
2033.000000	98.729111
2032.000000	98.735896
2031.000000	98.729300
2030.000000	98.727622
2029.000000	98.717634
2028.000000	98.687318
2027.000000	98.657357
2026.000000	98.658234
2025.000000	98.691962
2024.000000	98.735075
2023.000000	98.768098
2022.000000	98.786688
2021.000000	98.794264
2020.000000	98.796505
2019.000000	98.795945
2018.000000	98.784487
2017.000000	98.750502
2016.000000	98.698109
2015.000000	98.647883
2014.000000	98.617278
2013.000000	98.611719
2012.000000	98.630771
2011.000000	98.670889
2010.000000	98.723424
2009.000000	98.779051
2008.000000	98.831873
2007.000000	98.870472
2006.000000	98.875871
2005.000000	98.844586
2004.000000	98.802772
2003.000000	98.776823
2002.000000	98.761899
2001.000000	98.739059
2000.000000	98.708994
1999.000000	98.689201
1998.000000	98.684070
1997.000000	98.683381
1996.000000	98.686993
1995.000000	98.702689
1994.000000	98.720038
1993.000000	98.712850
1992.000000	98.676411
1991.000000	98.638995
1990.000000	98.625376
1989.000000	98.631898
1988.000000	98.642154
1987.000000	98.645179
1986.000000	98.636364
1985.000000	98.620557
1984.000000	98.615295
1983.000000	98.630761
1982.000000	98.647534
1981.000000	98.638606
1980.000000	98.614094
1979.000000	98.617784
1978.000000	98.667713
1977.000000	98.728636
1976.000000	98.761171
1975.000000	98.766105
1974.000000	98.761852
1973.000000	98.754220
1972.000000	98.744818
1971.000000	98.740104
1970.000000	98.740610
1969.000000	98.740825
1968.000000	98.743543
1967.000000	98.754714
1966.000000	98.765287
1965.000000	98.762971
1964.000000	98.758883
1963.000000	98.776200
1962.000000	98.815376
1961.000000	98.851787
1960.000000	98.867753
1959.000000	98.866469
1958.000000	98.854501
1957.000000	98.835116
1956.000000	98.816934
1955.000000	98.806227
1954.000000	98.793856
1953.000000	98.770365
1952.000000	98.751220
1951.000000	98.761222
1950.000000	98.796220
1949.000000	98.822188
1948.000000	98.814359
1947.000000	98.781277
1946.000000	98.745447
1945.000000	98.718622
1944.000000	98.701604
1943.000000	98.692091
1942.000000	98.685970
1941.000000	98.682544
1940.000000	98.689990
1939.000000	98.712197
1938.000000	98.734509
1937.000000	98.736100
1936.000000	98.715854
1935.000000	98.693264
1934.000000	98.684065
1933.000000	98.688496
1932.000000	98.701011
1931.000000	98.714678
1930.000000	98.720200
1929.000000	98.712868
1928.000000	98.700314
1927.000000	98.696411
1926.000000	98.701906
1925.000000	98.707301
1924.000000	98.708389
1923.000000	98.710040
1922.000000	98.715747
1921.000000	98.720623
1920.000000	98.718740
1919.000000	98.707610
1918.000000	98.688797
1917.000000	98.670982
1916.000000	98.666566
1915.000000	98.677134
1914.000000	98.689073
1913.000000	98.691782
1912.000000	98.692992
1911.000000	98.704324
1910.000000	98.719526
1909.000000	98.720451
1908.000000	98.703695
1907.000000	98.685545
1906.000000	98.676968
1905.000000	98.677896
1904.000000	98.687054
1903.000000	98.702974
1902.000000	98.718446
1901.000000	98.722803
1900.000000	98.717868
1899.000000	98.718684
1898.000000	98.731570
1897.000000	98.747354
1896.000000	98.756133
1895.000000	98.758538
1894.000000	98.760810
1893.000000	98.765251
1892.000000	98.769685
1891.000000	98.768660
1890.000000	98.756407
1889.000000	98.737052
1888.000000	98.727736
1887.000000	98.739108
1886.000000	98.759105
1885.000000	98.767323
1884.000000	98.760529
1883.000000	98.752014
1882.000000	98.749206
1881.000000	98.746493
1880.000000	98.741386
1879.000000	98.741435
1878.000000	98.748623
1877.000000	98.755022
1876.000000	98.756550
1875.000000	98.755292
1874.000000	98.751378
1873.000000	98.744200
1872.000000	98.738989
1871.000000	98.742793
1870.000000	98.754118
1869.000000	98.764832
1868.000000	98.773073
1867.000000	98.782714
1866.000000	98.787543
1865.000000	98.775778
1864.000000	98.750712
1863.000000	98.730025
1862.000000	98.723342
1861.000000	98.723427
1860.000000	98.722527
1859.000000	98.723857
1858.000000	98.730932
1857.000000	98.739221
1856.000000	98.744775
1855.000000	98.748820
1854.000000	98.750168
1853.000000	98.745752
1852.000000	98.739396
1851.000000	98.741861
1850.000000	98.750153
1849.000000	98.751351
1848.000000	98.750206
1847.000000	98.765993
1846.000000	98.800415
1845.000000	98.826066
1844.000000	98.820079
1843.000000	98.797498
1842.000000	98.787023
1841.000000	98.788216
1840.000000	98.784211
1839.000000	98.773493
1838.000000	98.764666
1837.000000	98.761243
1836.000000	98.759713
1835.000000	98.758809
1834.000000	98.761121
1833.000000	98.766031
1832.000000	98.771716
1831.000000	98.780118
1830.000000	98.789374
1829.000000	98.794072
1828.000000	98.798287
1827.000000	98.806793
1826.000000	98.810515
1825.000000	98.798603
1824.000000	98.778406
1823.000000	98.767738
1822.000000	98.769077
1821.000000	98.770784
1820.000000	98.770670
1819.000000	98.777230
1818.000000	98.788970
1817.000000	98.794257
1816.000000	98.788932
1815.000000	98.782897
1814.000000	98.784272
1813.000000	98.786705
1812.000000	98.784642
1811.000000	98.781625
1810.000000	98.781698
1809.000000	98.781793
1808.000000	98.775577
1807.000000	98.764380
1806.000000	98.754344
1805.000000	98.748053
1804.000000	98.745748
1803.000000	98.748536
1802.000000	98.756092
1801.000000	98.761447
1800.000000	98.763162
1799.000000	98.765601
1798.000000	98.767967
1797.000000	98.765561
1796.000000	98.759917
1795.000000	98.760580
1794.000000	98.769676
1793.000000	98.775710
1792.000000	98.772969
1791.000000	98.771572
1790.000000	98.779723
1789.000000	98.790272
1788.000000	98.794264
1787.000000	98.794767
1786.000000	98.797299
1785.000000	98.798811
1784.000000	98.796078
1783.000000	98.796059
1782.000000	98.803115
1781.000000	98.804559
1780.000000	98.797857
1779.000000	98.796313
1778.000000	98.806321
1777.000000	98.819151
1776.000000	98.827006
1775.000000	98.837702
1774.000000	98.852132
1773.000000	98.854977
1772.000000	98.843414
1771.000000	98.840031
1770.000000	98.852295
1769.000000	98.854937
1768.000000	98.827439
1767.000000	98.783750
1766.000000	98.754231
1765.000000	98.744555
1764.000000	98.734819
1763.000000	98.707285
1762.000000	98.659295
1761.000000	98.597250
1760.000000	98.535416
1759.000000	98.475504
1758.000000	98.396913
1757.000000	98.276842
1756.000000	98.129797
1755.000000	98.003398
1754.000000	97.907235
1753.000000	97.798963
1752.000000	97.641947
1751.000000	97.453005
1750.000000	97.277693
1749.000000	97.133601
1748.000000	97.010202
1747.000000	96.910451
1746.000000	96.840443
1745.000000	96.787814
1744.000000	96.748618
1743.000000	96.736008
1742.000000	96.759473
1741.000000	96.809205
1740.000000	96.871155
1739.000000	96.944936
1738.000000	97.038947
1737.000000	97.151107
1736.000000	97.266341
1735.000000	97.386372
1734.000000	97.520706
1733.000000	97.652455
1732.000000	97.786015
1731.000000	97.927080
1730.000000	98.053828
1729.000000	98.153180
1728.000000	98.234520
1727.000000	98.317000
1726.000000	98.400769
1725.000000	98.471650
1724.000000	98.529322
1723.000000	98.581261
1722.000000	98.630959
1721.000000	98.675459
1720.000000	98.710379
1719.000000	98.740188
1718.000000	98.770957
1717.000000	98.794021
1716.000000	98.799937
1715.000000	98.791277
1714.000000	98.761288
1713.000000	98.705482
1712.000000	98.637195
1711.000000	98.573916
1710.000000	98.517242
1709.000000	98.454928
1708.000000	98.383725
1707.000000	98.308038
1706.000000	98.217275
1705.000000	98.107199
1704.000000	98.010054
1703.000000	97.951422
1702.000000	97.889238
1701.000000	97.734434
1700.000000	97.481463
1699.000000	97.284900
1698.000000	97.210412
1697.000000	97.126988
1696.000000	96.925222
1695.000000	96.663025
1694.000000	96.466293
1693.000000	96.352054
1692.000000	96.248575
1691.000000	96.113491
1690.000000	95.957805
1689.000000	95.808382
1688.000000	95.686989
1687.000000	95.598781
1686.000000	95.506322
1685.000000	95.339002
1684.000000	95.079896
1683.000000	94.848951
1682.000000	94.710760
1681.000000	94.587247
1680.000000	94.420946
1679.000000	94.240664
1678.000000	94.086422
1677.000000	93.937007
1676.000000	93.738162
1675.000000	93.492157
1674.000000	93.272167
1673.000000	93.111437
1672.000000	92.967990
1671.000000	92.787630
1670.000000	92.554468
1669.000000	92.294545
1668.000000	92.056973
1667.000000	91.872979
1666.000000	91.726085
1665.000000	91.572439
1664.000000	91.376355
1663.000000	91.142337
1662.000000	90.917885
1661.000000	90.731076
1660.000000	90.570010
1659.000000	90.420441
1658.000000	90.282371
1657.000000	90.165459
1656.000000	90.073360
1655.000000	89.984419
1654.000000	89.837683
1653.000000	89.601211
1652.000000	89.390230
1651.000000	89.309790
1650.000000	89.308156
1649.000000	89.282560
1648.000000	89.185890
1647.000000	89.043841
1646.000000	88.919502
1645.000000	88.836010
1644.000000	88.775018
1643.000000	88.721288
1642.000000	88.667679
1641.000000	88.606306
1640.000000	88.543178
1639.000000	88.498104
1638.000000	88.474201
1637.000000	88.445147
1636.000000	88.382312
1635.000000	88.307681
1634.000000	88.263848
1633.000000	88.255411
1632.000000	88.255166
1631.000000	88.249243
1630.000000	88.250954
1629.000000	88.273277
1628.000000	88.318156
1627.000000	88.384178
1626.000000	88.471082
1625.000000	88.573954
1624.000000	88.691143
1623.000000	88.826480
1622.000000	88.976554
1621.000000	89.129757
1620.000000	89.280956
1619.000000	89.433914
1618.000000	89.602979
1617.000000	89.804785
1616.000000	90.024622
1615.000000	90.233417
1614.000000	90.425799
1613.000000	90.606625
1612.000000	90.781871
1611.000000	90.960721
1610.000000	91.148765
1609.000000	91.342532
1608.000000	91.534414
1607.000000	91.717844
1606.000000	91.891080
1605.000000	92.056181
1604.000000	92.217786
1603.000000	92.373023
1602.000000	92.512056
1601.000000	92.635122
1600.000000	92.750214
1599.000000	92.859443
1598.000000	92.958709
1597.000000	93.049124
1596.000000	93.135941
1595.000000	93.216159
1594.000000	93.282267
1593.000000	93.334628
1592.000000	93.378266
1591.000000	93.411089
1590.000000	93.428253
1589.000000	93.434598
1588.000000	93.439641
1587.000000	93.442314
1586.000000	93.434997
1585.000000	93.417145
1584.000000	93.393042
1583.000000	93.361982
1582.000000	93.315297
1581.000000	93.257519
1580.000000	93.207928
1579.000000	93.171344
1578.000000	93.123708
1577.000000	93.039868
1576.000000	92.926645
1575.000000	92.817294
1574.000000	92.736485
1573.000000	92.676049
1572.000000	92.608407
1571.000000	92.503781
1570.000000	92.348706
1569.000000	92.176493
1568.000000	92.037503
1567.000000	91.931085
1566.000000	91.814443
1565.000000	91.668403
1564.000000	91.520228
1563.000000	91.410238
1562.000000	91.337617
1561.000000	91.263621
1560.000000	91.125036
1559.000000	90.879624
1558.000000	90.636239
1557.000000	90.500528
1556.000000	90.417182
1555.000000	90.311862
1554.000000	90.171399
1553.000000	90.032576
1552.000000	89.927889
1551.000000	89.838447
1550.000000	89.733727
1549.000000	89.625321
1548.000000	89.542079
1547.000000	89.486663
1546.000000	89.436613
1545.000000	89.382344
1544.000000	89.341147
1543.000000	89.325802
1542.000000	89.321189
1541.000000	89.309556
1540.000000	89.288921
1539.000000	89.260280
1538.000000	89.233614
1537.000000	89.230397
1536.000000	89.242869
1535.000000	89.250330
1534.000000	89.249903
1533.000000	89.253171
1532.000000	89.275914
1531.000000	89.314324
1530.000000	89.354306
1529.000000	89.395140
1528.000000	89.446414
1527.000000	89.514350
1526.000000	89.590292
1525.000000	89.660873
1524.000000	89.727018
1523.000000	89.793339
1522.000000	89.860119
1521.000000	89.923962
1520.000000	89.987058
1519.000000	90.063913
1518.000000	90.150496
1517.000000	90.231565
1516.000000	90.304606
1515.000000	90.379882
1514.000000	90.466205
1513.000000	90.558010
1512.000000	90.653591
1511.000000	90.762038
1510.000000	90.892912
1509.000000	91.043756
1508.000000	91.216095
1507.000000	91.421256
1506.000000	91.616175
1505.000000	91.749815
1504.000000	91.857287
1503.000000	91.968793
1502.000000	92.081322
1501.000000	92.195969
1500.000000	92.318760
1499.000000	92.459319
1498.000000	92.619405
1497.000000	92.785530
1496.000000	92.933326
1495.000000	93.056573
1494.000000	93.172801
1493.000000	93.287381
1492.000000	93.395447
1491.000000	93.504132
1490.000000	93.623629
1489.000000	93.740084
1488.000000	93.830359
1487.000000	93.891671
1486.000000	93.934587
1485.000000	93.960773
1484.000000	93.969738
1483.000000	93.971718
1482.000000	93.969840
1481.000000	93.960090
1480.000000	93.941455
1479.000000	93.917348
1478.000000	93.882878
1477.000000	93.829136
1476.000000	93.761932
1475.000000	93.695795
1474.000000	93.621718
1473.000000	93.502667
1472.000000	93.340222
1471.000000	93.186744
1470.000000	93.067879
1469.000000	92.965282
1468.000000	92.861997
1467.000000	92.757983
1466.000000	92.652748
1465.000000	92.536170
1464.000000	92.416520
1463.000000	92.318290
1462.000000	92.243754
1461.000000	92.177123
1460.000000	92.105575
1459.000000	92.020706
1458.000000	91.896521
1457.000000	91.716787
1456.000000	91.540384
1455.000000	91.436458
1454.000000	91.387849
1453.000000	91.343121
1452.000000	91.291312
1451.000000	91.251805
1450.000000	91.234396
1449.000000	91.228279
1448.000000	91.223764
1447.000000	91.226583
1446.000000	91.242583
1445.000000	91.264463
1444.000000	91.290372
1443.000000	91.321456
1442.000000	91.355756
1441.000000	91.393737
1440.000000	91.439828
1439.000000	91.494749
1438.000000	91.551257
1437.000000	91.607140
1436.000000	91.669055
1435.000000	91.746230
1434.000000	91.834395
1433.000000	91.917219
1432.000000	91.986310
1431.000000	92.047425
1430.000000	92.106650
1429.000000	92.160738
1428.000000	92.202298
1427.000000	92.233078
1426.000000	92.259063
1425.000000	92.277462
1424.000000	92.290730
1423.000000	92.307860
1422.000000	92.330541
1421.000000	92.347049
1420.000000	92.344626
1419.000000	92.328716
1418.000000	92.318965
1417.000000	92.323755
1416.000000	92.330088
1415.000000	92.326488
1414.000000	92.315149
1413.000000	92.301864
1412.000000	92.287671
1411.000000	92.270175
1410.000000	92.249355
1409.000000	92.228353
1408.000000	92.207021
1407.000000	92.182752
1406.000000	92.155234
1405.000000	92.124252
1404.000000	92.095671
1403.000000	92.078043
1402.000000	92.071785
1401.000000	92.068230
1400.000000	92.060792
1399.000000	92.055842
1398.000000	92.063062
1397.000000	92.080513
1396.000000	92.096655
1395.000000	92.106574
1394.000000	92.115560
1393.000000	92.131033
1392.000000	92.157776
1391.000000	92.192832
1390.000000	92.229734
1389.000000	92.265572
1388.000000	92.302269
1387.000000	92.342723
1386.000000	92.386687
1385.000000	92.431233
1384.000000	92.475046
1383.000000	92.518803
1382.000000	92.564374
1381.000000	92.614784
1380.000000	92.672018
1379.000000	92.737584
1378.000000	92.811736
1377.000000	92.893739
1376.000000	92.983006
1375.000000	93.077808
1374.000000	93.170512
1373.000000	93.252032
1372.000000	93.323832
1371.000000	93.394441
1370.000000	93.468510
1369.000000	93.545017
1368.000000	93.623833
1367.000000	93.705022
1366.000000	93.786465
1365.000000	93.866464
1364.000000	93.945891
1363.000000	94.024511
1362.000000	94.095062
1361.000000	94.148866
1360.000000	94.185675
1359.000000	94.211162
1358.000000	94.229332
1357.000000	94.241356
1356.000000	94.248035
1355.000000	94.250086
1354.000000	94.246290
1353.000000	94.234369
1352.000000	94.212782
1351.000000	94.182116
1350.000000	94.144784
1349.000000	94.101733
1348.000000	94.053878
1347.000000	94.000801
1346.000000	93.940277
1345.000000	93.871527
1344.000000	93.799322
1343.000000	93.732052
1342.000000	93.674138
1341.000000	93.622874
1340.000000	93.573384
1339.000000	93.524980
1338.000000	93.481267
1337.000000	93.446412
1336.000000	93.424154
1335.000000	93.418063
1334.000000	93.429700
1333.000000	93.457792
1332.000000	93.499738
1331.000000	93.552696
1330.000000	93.612205
1329.000000	93.672338
1328.000000	93.729341
1327.000000	93.782967
1326.000000	93.833165
1325.000000	93.877121
1324.000000	93.912059
1323.000000	93.937947
1322.000000	93.956680
1321.000000	93.969814
1320.000000	93.978448
1319.000000	93.984923
1318.000000	93.992746
1317.000000	94.005135
1316.000000	94.024477
1315.000000	94.052217
1314.000000	94.087244
1313.000000	94.125354
1312.000000	94.162309
1311.000000	94.197632
1310.000000	94.233859
1309.000000	94.272452
1308.000000	94.312215
1307.000000	94.351708
1306.000000	94.391260
1305.000000	94.431270
1304.000000	94.470541
1303.000000	94.506986
1302.000000	94.540141
1301.000000	94.571726
1300.000000	94.603727
1299.000000	94.636690
1298.000000	94.669234
1297.000000	94.697910
1296.000000	94.717444
1295.000000	94.722819
1294.000000	94.712633
1293.000000	94.690200
1292.000000	94.661094
1291.000000	94.629569
1290.000000	94.596134
1289.000000	94.558272
1288.000000	94.513960
1287.000000	94.465165
1286.000000	94.417588
1285.000000	94.376277
1284.000000	94.342409
1283.000000	94.314722
1282.000000	94.293117
1281.000000	94.279276
1280.000000	94.273480
1279.000000	94.271938
1278.000000	94.268902
1277.000000	94.261801
1276.000000	94.252475
1275.000000	94.242889
1274.000000	94.231367
1273.000000	94.214615
1272.000000	94.192073
1271.000000	94.165936
1270.000000	94.137015
1269.000000	94.103290
1268.000000	94.063096
1267.000000	94.017193
1266.000000	93.966961
1265.000000	93.912271
1264.000000	93.852353
1263.000000	93.787441
1262.000000	93.718774
1261.000000	93.648526
1260.000000	93.579956
1259.000000	93.515438
1258.000000	93.453574
1257.000000	93.390853
1256.000000	93.326439
1255.000000	93.262240
1254.000000	93.197892
1253.000000	93.129316
1252.000000	93.053629
1251.000000	92.972402
1250.000000	92.888396
1249.000000	92.802412
1248.000000	92.715248
1247.000000	92.628944
1246.000000	92.543646
1245.000000	92.456753
1244.000000	92.367886
1243.000000	92.281652
1242.000000	92.202966
1241.000000	92.132407
1240.000000	92.068801
1239.000000	92.013309
1238.000000	91.968179
1237.000000	91.935290
1236.000000	91.917533
1235.000000	91.918167
1234.000000	91.936893
1233.000000	91.969131
1232.000000	92.012417
1231.000000	92.069682
1230.000000	92.144658
1229.000000	92.237747
1228.000000	92.346527
1227.000000	92.468128
1226.000000	92.599291
1225.000000	92.736618
1224.000000	92.878140
1223.000000	93.022342
1222.000000	93.166637
1221.000000	93.308465
1220.000000	93.446560
1219.000000	93.578398
1218.000000	93.698124
1217.000000	93.799731
1216.000000	93.881423
1215.000000	93.944966
1214.000000	93.991361
1213.000000	94.021143
1212.000000	94.036995
1211.000000	94.041937
1210.000000	94.035188
1209.000000	94.012497
1208.000000	93.973067
1207.000000	93.923175
1206.000000	93.871769
1205.000000	93.825092
1204.000000	93.786598
1203.000000	93.759300
1202.000000	93.745603
1201.000000	93.746567
1200.000000	93.762316
1199.000000	93.792171
1198.000000	93.833624
1197.000000	93.883652
1196.000000	93.941206
1195.000000	94.005145
1194.000000	94.070825
1193.000000	94.132134
1192.000000	94.187349
1191.000000	94.239776
1190.000000	94.292085
1189.000000	94.343125
1188.000000	94.390486
1187.000000	94.432529
1186.000000	94.466802
1185.000000	94.490624
1184.000000	94.504452
1183.000000	94.511954
1182.000000	94.515310
1181.000000	94.512704
1180.000000	94.502540
1179.000000	94.486694
1178.000000	94.467533
1177.000000	94.445153
1176.000000	94.419759
1175.000000	94.394018
1174.000000	94.369954
1173.000000	94.346051
1172.000000	94.320302
1171.000000	94.293415
1170.000000	94.266249
1169.000000	94.236664
1168.000000	94.202574
1167.000000	94.166335
1166.000000	94.132963
1165.000000	94.105325
1164.000000	94.084025
1163.000000	94.070532
1162.000000	94.067081
1161.000000	94.075345
1160.000000	94.097134
1159.000000	94.134767
1158.000000	94.188925
1157.000000	94.257150
1156.000000	94.336871
1155.000000	94.426968
1154.000000	94.525211
1153.000000	94.628198
1152.000000	94.735464
1151.000000	94.850790
1150.000000	94.975665
1149.000000	95.103913
1148.000000	95.226606
1147.000000	95.340629
1146.000000	95.449300
1145.000000	95.555827
1144.000000	95.659998
1143.000000	95.760581
1142.000000	95.857240
1141.000000	95.948860
1140.000000	96.033132
1139.000000	96.109597
1138.000000	96.180310
1137.000000	96.246446
1136.000000	96.305901
1135.000000	96.355961
1134.000000	96.397164
1133.000000	96.432406
1132.000000	96.463878
1131.000000	96.491788
1130.000000	96.514794
1129.000000	96.531321
1128.000000	96.541786
1127.000000	96.550411
1126.000000	96.562328
1125.000000	96.577778
1124.000000	96.592001
1123.000000	96.601565
1122.000000	96.607865
1121.000000	96.612297
1120.000000	96.611011
1119.000000	96.597969
1118.000000	96.571065
1117.000000	96.532868
1116.000000	96.486993
1115.000000	96.436092
1114.000000	96.382287
1113.000000	96.327497
1112.000000	96.274919
1111.000000	96.230855
1110.000000	96.201701
1109.000000	96.187070
1108.000000	96.179085
1107.000000	96.170735
1106.000000	96.162614
1105.000000	96.159407
1104.000000	96.162190
1103.000000	96.167185
1102.000000	96.169625
1101.000000	96.165279
1100.000000	96.150001
1099.000000	96.121884
1098.000000	96.083917
1097.000000	96.041899
1096.000000	95.999722
1095.000000	95.958152
1094.000000	95.916855
1093.000000	95.875314
1092.000000	95.832913
1091.000000	95.790330
1090.000000	95.749629
1089.000000	95.710984
1088.000000	95.670718
1087.000000	95.625441
1086.000000	95.577562
1085.000000	95.535084
1084.000000	95.505866
1083.000000	95.493294
1082.000000	95.496976
1081.000000	95.515244
1080.000000	95.547461
1079.000000	95.594209
1078.000000	95.655309
1077.000000	95.727845
1076.000000	95.805885
1075.000000	95.883112
1074.000000	95.955215
1073.000000	96.019361
1072.000000	96.072567
1071.000000	96.112571
1070.000000	96.139986
1069.000000	96.157775
1068.000000	96.168977
1067.000000	96.176142
1066.000000	96.182308
1065.000000	96.189424
1064.000000	96.196102
1063.000000	96.199882
1062.000000	96.201726
1061.000000	96.205819
1060.000000	96.214636
1059.000000	96.227468
1058.000000	96.244621
1057.000000	96.269658
1056.000000	96.304647
1055.000000	96.345243
1054.000000	96.383664
1053.000000	96.415750
1052.000000	96.442603
1051.000000	96.465845
1050.000000	96.484531
1049.000000	96.497674
1048.000000	96.507627
1047.000000	96.519115
1046.000000	96.535084
1045.000000	96.553555
1044.000000	96.568027
1043.000000	96.571973
1042.000000	96.563899
1041.000000	96.547799
1040.000000	96.527366
1039.000000	96.499949
1038.000000	96.458167
1037.000000	96.397796
1036.000000	96.323585
1035.000000	96.246863
1034.000000	96.178029
1033.000000	96.121776
1032.000000	96.078826
1031.000000	96.050302
1030.000000	96.039121
1029.000000	96.048627
1028.000000	96.079647
1027.000000	96.128030
1026.000000	96.184830
1025.000000	96.240341
1024.000000	96.289922
1023.000000	96.335609
1022.000000	96.382334
1021.000000	96.432757
1020.000000	96.485279
1019.000000	96.535852
1018.000000	96.580999
1017.000000	96.619536
1016.000000	96.652205
1015.000000	96.680518
1014.000000	96.706546
1013.000000	96.734147
1012.000000	96.769489
1011.000000	96.818053
1010.000000	96.879261
1009.000000	96.944774
1008.000000	97.004485
1007.000000	97.055326
1006.000000	97.103220
1005.000000	97.155577
1004.000000	97.212927
1003.000000	97.269119
1002.000000	97.318671
1001.000000	97.361617
1000.000000	97.401832
999.000000	97.443253
998.000000	97.488102
997.000000	97.535950
996.000000	97.582607
995.000000	97.621960
994.000000	97.651111
993.000000	97.673261
992.000000	97.694601
991.000000	97.719143
990.000000	97.746978
989.000000	97.775476
988.000000	97.800582
987.000000	97.818410
986.000000	97.827566
985.000000	97.829877
984.000000	97.827684
983.000000	97.821522
982.000000	97.811998
981.000000	97.802407
980.000000	97.796981
979.000000	97.796209
978.000000	97.795855
977.000000	97.791198
976.000000	97.780876
975.000000	97.766402
974.000000	97.750030
973.000000	97.734818
972.000000	97.725407
971.000000	97.726394
970.000000	97.738982
969.000000	97.760183
968.000000	97.785765
967.000000	97.813094
966.000000	97.841567
965.000000	97.871262
964.000000	97.901699
963.000000	97.931714
962.000000	97.960407
961.000000	97.988439
960.000000	98.017487
959.000000	98.047597
958.000000	98.075853
957.000000	98.099320
956.000000	98.119155
955.000000	98.139717
954.000000	98.163263
953.000000	98.187626
952.000000	98.210075
951.000000	98.230901
950.000000	98.251003
949.000000	98.268387
948.000000	98.280394
947.000000	98.288301
946.000000	98.295528
945.000000	98.301362
944.000000	98.301160
943.000000	98.294080
942.000000	98.286459
941.000000	98.284134
940.000000	98.284721
939.000000	98.281487
938.000000	98.273318
937.000000	98.267201
936.000000	98.270768
935.000000	98.285542
934.000000	98.307484
933.000000	98.331499
932.000000	98.354330
931.000000	98.374554
930.000000	98.391529
929.000000	98.404523
928.000000	98.412855
927.000000	98.417035
926.000000	98.419255
925.000000	98.422235
924.000000	98.427978
923.000000	98.437567
922.000000	98.450897
921.000000	98.466206
920.000000	98.481283
919.000000	98.495961
918.000000	98.512400
917.000000	98.532332
916.000000	98.555385
915.000000	98.580583
914.000000	98.607215
913.000000	98.633201
912.000000	98.655465
911.000000	98.673999
910.000000	98.692841
909.000000	98.713942
908.000000	98.732307
907.000000	98.741606
906.000000	98.743467
905.000000	98.746542
904.000000	98.755829
903.000000	98.766818
902.000000	98.771629
901.000000	98.768184
900.000000	98.762337
899.000000	98.762876
898.000000	98.775009
897.000000	98.796593
896.000000	98.819590
895.000000	98.836683
894.000000	98.847083
893.000000	98.855045
892.000000	98.863563
891.000000	98.871378
890.000000	98.874312
889.000000	98.865858
888.000000	98.837125
887.000000	98.780966
886.000000	98.699182
885.000000	98.602853
884.000000	98.503589
883.000000	98.406085
882.000000	98.308670
881.000000	98.208250
880.000000	98.103294
879.000000	97.994791
878.000000	97.886874
877.000000	97.786671
876.000000	97.702717
875.000000	97.643771
874.000000	97.618550
873.000000	97.633441
872.000000	97.688612
871.000000	97.775552
870.000000	97.880048
869.000000	97.988547
868.000000	98.091347
867.000000	98.182191
866.000000	98.258023
865.000000	98.319743
864.000000	98.370800
863.000000	98.414007
862.000000	98.450155
861.000000	98.479317
860.000000	98.502131
859.000000	98.519618
858.000000	98.533361
857.000000	98.545599
856.000000	98.557720
855.000000	98.568730
854.000000	98.576646
853.000000	98.581461
852.000000	98.584902
851.000000	98.587425
850.000000	98.588327
849.000000	98.590017
848.000000	98.599100
847.000000	98.619802
846.000000	98.647530
845.000000	98.672522
844.000000	98.689866
843.000000	98.703145
842.000000	98.717827
841.000000	98.734424
840.000000	98.750315
839.000000	98.765720
838.000000	98.784270
837.000000	98.807129
836.000000	98.829110
835.000000	98.842514
834.000000	98.844325
833.000000	98.838708
832.000000	98.832670
831.000000	98.830584
830.000000	98.833172
829.000000	98.839758
828.000000	98.849240
827.000000	98.858709
826.000000	98.863360
825.000000	98.859599
824.000000	98.847705
823.000000	98.831174
822.000000	98.814880
821.000000	98.804081
820.000000	98.802078
819.000000	98.806249
818.000000	98.808641
817.000000	98.803662
816.000000	98.794165
815.000000	98.787454
814.000000	98.786784
813.000000	98.790711
812.000000	98.799424
811.000000	98.815176
810.000000	98.835073
809.000000	98.849400
808.000000	98.851271
807.000000	98.844700
806.000000	98.839390
805.000000	98.839745
804.000000	98.842422
803.000000	98.842913
802.000000	98.840283
801.000000	98.835431
800.000000	98.828108
799.000000	98.816998
798.000000	98.802018
797.000000	98.786101
796.000000	98.774172
795.000000	98.769055
794.000000	98.768327
793.000000	98.766829
792.000000	98.761977
791.000000	98.754302
790.000000	98.743520
789.000000	98.728230
788.000000	98.710317
787.000000	98.695576
786.000000	98.688155
785.000000	98.687243
784.000000	98.690800
783.000000	98.699070
782.000000	98.712112
781.000000	98.726964
780.000000	98.739397
779.000000	98.745875
778.000000	98.742446
777.000000	98.725746
776.000000	98.698337
775.000000	98.669923
774.000000	98.649757
773.000000	98.639706
772.000000	98.636839
771.000000	98.639248
770.000000	98.645683
769.000000	98.652562
768.000000	98.655968
767.000000	98.655402
766.000000	98.652151
765.000000	98.645262
764.000000	98.632598
763.000000	98.614968
762.000000	98.595989
761.000000	98.578189
760.000000	98.561735
759.000000	98.546572
758.000000	98.533148
757.000000	98.520294
756.000000	98.504033
755.000000	98.480394
754.000000	98.451048
753.000000	98.425793
752.000000	98.415392
751.000000	98.418819
750.000000	98.420822
749.000000	98.407525
748.000000	98.382201
747.000000	98.359258
746.000000	98.344861
745.000000	98.332418
744.000000	98.317429
743.000000	98.305881
742.000000	98.303541
741.000000	98.305677
740.000000	98.303329
739.000000	98.293259
738.000000	98.276380
737.000000	98.252971
736.000000	98.225523
735.000000	98.200693
734.000000	98.181713
733.000000	98.163380
732.000000	98.140335
731.000000	98.115525
730.000000	98.094107
729.000000	98.073373
728.000000	98.046673
727.000000	98.014265
726.000000	97.982647
725.000000	97.955577
724.000000	97.931980
723.000000	97.909798
722.000000	97.886236
721.000000	97.857387
720.000000	97.823509
719.000000	97.790879
718.000000	97.761335
717.000000	97.723411
716.000000	97.661860
715.000000	97.575314
714.000000	97.479708
713.000000	97.396154
712.000000	97.339764
711.000000	97.316067
710.000000	97.319650
709.000000	97.335539
708.000000	97.347957
707.000000	97.350164
706.000000	97.343699
705.000000	97.331265
704.000000	97.315126
703.000000	97.298806
702.000000	97.285182
701.000000	97.273480
700.000000	97.260516
699.000000	97.244193
698.000000	97.223502
697.000000	97.198587
696.000000	97.174248
695.000000	97.158709
694.000000	97.156686
693.000000	97.166458
692.000000	97.184117
691.000000	97.205713
690.000000	97.222164
689.000000	97.220043
688.000000	97.195210
687.000000	97.160571
686.000000	97.133408
685.000000	97.118440
684.000000	97.106730
683.000000	97.087009
682.000000	97.054683
681.000000	97.014399
680.000000	96.977543
679.000000	96.952961
678.000000	96.937346
677.000000	96.919555
676.000000	96.897538
675.000000	96.882688
674.000000	96.882921
673.000000	96.890555
672.000000	96.894782
671.000000	96.896366
670.000000	96.901091
669.000000	96.905502
668.000000	96.892706
667.000000	96.859461
666.000000	96.830577
665.000000	96.812292
664.000000	96.797545
663.000000	96.786291
662.000000	96.777351
661.000000	96.767886
660.000000	96.760152
659.000000	96.763109
658.000000	96.775998
657.000000	96.781945
656.000000	96.767197
655.000000	96.737434
654.000000	96.706808
653.000000	96.683384
652.000000	96.673915
651.000000	96.686060
650.000000	96.713393
649.000000	96.732948
648.000000	96.730821
647.000000	96.716107
646.000000	96.698904
645.000000	96.672453
644.000000	96.631748
643.000000	96.593033
642.000000	96.576553
641.000000	96.580100
640.000000	96.586866
639.000000	96.590843
638.000000	96.596121
637.000000	96.599497
636.000000	96.592297
635.000000	96.576149
634.000000	96.563210
633.000000	96.561733
632.000000	96.569999
631.000000	96.579655
630.000000	96.577228
629.000000	96.551195
628.000000	96.507181
627.000000	96.468343
626.000000	96.451007
625.000000	96.448492
624.000000	96.447150
623.000000	96.444623
622.000000	96.441665
621.000000	96.431217
620.000000	96.411052
619.000000	96.394917
618.000000	96.395172
617.000000	96.403889
616.000000	96.407273
615.000000	96.407798
614.000000	96.413134
613.000000	96.414809
612.000000	96.398785
611.000000	96.371646
610.000000	96.356369
609.000000	96.363760
608.000000	96.384024
607.000000	96.403232
606.000000	96.413587
605.000000	96.412609
604.000000	96.406339
603.000000	96.409480
602.000000	96.429859
601.000000	96.456360
600.000000	96.473570
599.000000	96.481759
598.000000	96.489964
597.000000	96.496773
596.000000	96.493938
595.000000	96.483745
594.000000	96.477635
593.000000	96.479503
592.000000	96.482651
591.000000	96.482588
590.000000	96.482167
589.000000	96.485729
588.000000	96.494762
587.000000	96.504123
586.000000	96.499617
585.000000	96.471081
584.000000	96.435092
583.000000	96.427307
582.000000	96.458530
581.000000	96.494910
580.000000	96.498682
579.000000	96.475215
578.000000	96.458264
577.000000	96.461942
576.000000	96.471315
575.000000	96.471376
574.000000	96.462913
573.000000	96.451305
572.000000	96.439774
571.000000	96.432682
570.000000	96.428833
569.000000	96.415063
568.000000	96.381013
567.000000	96.335279
566.000000	96.294267
565.000000	96.261649
564.000000	96.232284
563.000000	96.206112
562.000000	96.183426
561.000000	96.158514
560.000000	96.132604
559.000000	96.120480
558.000000	96.127930
557.000000	96.138043
556.000000	96.138083
555.000000	96.142502
554.000000	96.167526
553.000000	96.199613
552.000000	96.213414
551.000000	96.207841
550.000000	96.202343
549.000000	96.209401
548.000000	96.231585
547.000000	96.270423
546.000000	96.314835
545.000000	96.336713
544.000000	96.324597
543.000000	96.306796
542.000000	96.315925
541.000000	96.343797
540.000000	96.357627
539.000000	96.348722
538.000000	96.336782
537.000000	96.335541
536.000000	96.341426
535.000000	96.348740
534.000000	96.350732
533.000000	96.332657
532.000000	96.287347
531.000000	96.232957
530.000000	96.196142
529.000000	96.184866
528.000000	96.195137
527.000000	96.227887
526.000000	96.272960
525.000000	96.296550
524.000000	96.279345
523.000000	96.246688
522.000000	96.235542
521.000000	96.253324
520.000000	96.285575
519.000000	96.323271
518.000000	96.361224
517.000000	96.388234
516.000000	96.407288
515.000000	96.443304
514.000000	96.503637
513.000000	96.558548
512.000000	96.586330
511.000000	96.611210
510.000000	96.666858
509.000000	96.745015
508.000000	96.813001
507.000000	96.858355
506.000000	96.880886
505.000000	96.869368
504.000000	96.830152
503.000000	96.818112
502.000000	96.882471
501.000000	96.987053
500.000000	97.056371
499.000000	97.085264
498.000000	97.131426
497.000000	97.218159
496.000000	97.300760
495.000000	97.329882
494.000000	97.304352
493.000000	97.253397
492.000000	97.207708
491.000000	97.198139
490.000000	97.243269
489.000000	97.322894
488.000000	97.390547
487.000000	97.417685
486.000000	97.409835
485.000000	97.390031
484.000000	97.387931
483.000000	97.434028
482.000000	97.529438
481.000000	97.629129
480.000000	97.684561
479.000000	97.692453
478.000000	97.682632
477.000000	97.674416
476.000000	97.673522
475.000000	97.696302
474.000000	97.757400
473.000000	97.839475
472.000000	97.913714
471.000000	97.984241
470.000000	98.060923
469.000000	98.108812
468.000000	98.087409
467.000000	98.025888
466.000000	98.000910
465.000000	98.035253
464.000000	98.084997
463.000000	98.124052
462.000000	98.169522
461.000000	98.236134
460.000000	98.299666
459.000000	98.365848
458.000000	98.443255
457.000000	98.508734
456.000000	98.546083
455.000000	98.594263
454.000000	98.696469
453.000000	98.820389
452.000000	98.878976
451.000000	98.851196
450.000000	98.802206
