PE IR       SUBTECH     SPECTRUM    ASCII       PEDS        4.00        
   -1
3C-YYX-F011_1.ASC
23/09/07
11:01:36.00
23/09/07
11:30:09.00
uco
Sample 011 By uco Date Thursday, September 07 2023
450.000000
#HDR
-1
-1
#GR
cm-1
%T
1.0
0.0
4000.000000
-1.000000
3551
8
99.063431
84.897271
#DATA
4000.000000	98.946685
3999.000000	98.945806
3998.000000	98.943861
3997.000000	98.942408
3996.000000	98.941705
3995.000000	98.940860
3994.000000	98.939006
3993.000000	98.936386
3992.000000	98.934181
3991.000000	98.933269
3990.000000	98.933191
3989.000000	98.932598
3988.000000	98.930782
3987.000000	98.928563
3986.000000	98.927442
3985.000000	98.928013
3984.000000	98.929614
3983.000000	98.931372
3982.000000	98.933090
3981.000000	98.934834
3980.000000	98.936041
3979.000000	98.935496
3978.000000	98.932299
3977.000000	98.926714
3976.000000	98.920157
3975.000000	98.914581
3974.000000	98.911642
3973.000000	98.911988
3972.000000	98.914948
3971.000000	98.918803
3970.000000	98.921613
3969.000000	98.921959
3968.000000	98.919425
3967.000000	98.914730
3966.000000	98.909440
3965.000000	98.905387
3964.000000	98.903888
3963.000000	98.905234
3962.000000	98.908695
3961.000000	98.912849
3960.000000	98.915998
3959.000000	98.916588
3958.000000	98.913856
3957.000000	98.908387
3956.000000	98.902028
3955.000000	98.896905
3954.000000	98.894124
3953.000000	98.893258
3952.000000	98.892992
3951.000000	98.892357
3950.000000	98.891596
3949.000000	98.891856
3948.000000	98.893845
3947.000000	98.896768
3946.000000	98.898772
3945.000000	98.898522
3944.000000	98.896579
3943.000000	98.895491
3942.000000	98.897947
3941.000000	98.904649
3940.000000	98.913475
3939.000000	98.920266
3938.000000	98.920964
3937.000000	98.913870
3936.000000	98.901075
3935.000000	98.887786
3934.000000	98.879795
3933.000000	98.880695
3932.000000	98.889765
3931.000000	98.902282
3930.000000	98.912558
3929.000000	98.917129
3928.000000	98.915970
3927.000000	98.911454
3926.000000	98.906427
3925.000000	98.902507
3924.000000	98.899699
3923.000000	98.897563
3922.000000	98.896099
3921.000000	98.895153
3920.000000	98.893921
3919.000000	98.891821
3918.000000	98.889886
3917.000000	98.890402
3916.000000	98.894370
3915.000000	98.899810
3914.000000	98.903008
3913.000000	98.901363
3912.000000	98.895046
3911.000000	98.886741
3910.000000	98.879700
3909.000000	98.875498
3908.000000	98.873648
3907.000000	98.872958
3906.000000	98.873244
3905.000000	98.875764
3904.000000	98.881563
3903.000000	98.889583
3902.000000	98.897157
3901.000000	98.902047
3900.000000	98.903868
3899.000000	98.903755
3898.000000	98.903143
3897.000000	98.902982
3896.000000	98.903378
3895.000000	98.903856
3894.000000	98.904152
3893.000000	98.904544
3892.000000	98.905364
3891.000000	98.906106
3890.000000	98.905784
3889.000000	98.903776
3888.000000	98.899883
3887.000000	98.895199
3886.000000	98.892478
3885.000000	98.893498
3884.000000	98.897221
3883.000000	98.901031
3882.000000	98.902581
3881.000000	98.900769
3880.000000	98.896059
3879.000000	98.890516
3878.000000	98.886852
3877.000000	98.886463
3876.000000	98.889127
3875.000000	98.893614
3874.000000	98.897404
3873.000000	98.897808
3872.000000	98.894804
3871.000000	98.891803
3870.000000	98.892401
3869.000000	98.896372
3868.000000	98.900740
3867.000000	98.902994
3866.000000	98.902213
3865.000000	98.899535
3864.000000	98.897299
3863.000000	98.896586
3862.000000	98.895952
3861.000000	98.893290
3860.000000	98.888421
3859.000000	98.882752
3858.000000	98.876948
3857.000000	98.869472
3856.000000	98.858928
3855.000000	98.848139
3854.000000	98.844537
3853.000000	98.851456
3852.000000	98.863146
3851.000000	98.873981
3850.000000	98.881960
3849.000000	98.886290
3848.000000	98.887544
3847.000000	98.886998
3846.000000	98.885575
3845.000000	98.883496
3844.000000	98.880583
3843.000000	98.876778
3842.000000	98.872877
3841.000000	98.871247
3840.000000	98.874842
3839.000000	98.884172
3838.000000	98.895372
3837.000000	98.903210
3836.000000	98.906492
3835.000000	98.907832
3834.000000	98.909590
3833.000000	98.911861
3832.000000	98.913024
3831.000000	98.911021
3830.000000	98.905062
3829.000000	98.895985
3828.000000	98.885745
3827.000000	98.876915
3826.000000	98.871510
3825.000000	98.870067
3824.000000	98.872378
3823.000000	98.879132
3822.000000	98.890624
3821.000000	98.902178
3820.000000	98.906042
3819.000000	98.901071
3818.000000	98.892819
3817.000000	98.886313
3816.000000	98.882560
3815.000000	98.878893
3814.000000	98.874269
3813.000000	98.871026
3812.000000	98.871078
3811.000000	98.874433
3810.000000	98.879878
3809.000000	98.886053
3808.000000	98.892150
3807.000000	98.897123
3806.000000	98.899395
3805.000000	98.898529
3804.000000	98.895861
3803.000000	98.894692
3802.000000	98.898892
3801.000000	98.906793
3800.000000	98.911606
3799.000000	98.910729
3798.000000	98.906229
3797.000000	98.900868
3796.000000	98.895933
3795.000000	98.890534
3794.000000	98.883779
3793.000000	98.876685
3792.000000	98.871576
3791.000000	98.870270
3790.000000	98.872604
3789.000000	98.876294
3788.000000	98.878764
3787.000000	98.878942
3786.000000	98.877744
3785.000000	98.877133
3784.000000	98.878535
3783.000000	98.882154
3782.000000	98.887611
3781.000000	98.894138
3780.000000	98.899784
3779.000000	98.901307
3778.000000	98.896825
3777.000000	98.888632
3776.000000	98.881583
3775.000000	98.879198
3774.000000	98.881470
3773.000000	98.885523
3772.000000	98.888234
3771.000000	98.888767
3770.000000	98.888712
3769.000000	98.889560
3768.000000	98.891197
3767.000000	98.892561
3766.000000	98.892945
3765.000000	98.892363
3764.000000	98.891122
3763.000000	98.889283
3762.000000	98.886741
3761.000000	98.883533
3760.000000	98.880134
3759.000000	98.877548
3758.000000	98.877188
3757.000000	98.880001
3756.000000	98.885265
3755.000000	98.890854
3754.000000	98.895139
3753.000000	98.898260
3752.000000	98.900958
3751.000000	98.901961
3750.000000	98.898861
3749.000000	98.893188
3748.000000	98.889569
3747.000000	98.890359
3746.000000	98.895662
3745.000000	98.903544
3744.000000	98.908384
3743.000000	98.908259
3742.000000	98.907611
3741.000000	98.908008
3740.000000	98.907930
3739.000000	98.908121
3738.000000	98.912236
3737.000000	98.923976
3736.000000	98.942848
3735.000000	98.961446
3734.000000	98.970198
3733.000000	98.966006
3732.000000	98.953635
3731.000000	98.940453
3730.000000	98.931267
3729.000000	98.926755
3728.000000	98.925300
3727.000000	98.924982
3726.000000	98.924168
3725.000000	98.922208
3724.000000	98.919770
3723.000000	98.917422
3722.000000	98.914272
3721.000000	98.909561
3720.000000	98.904697
3719.000000	98.902050
3718.000000	98.902384
3717.000000	98.904246
3716.000000	98.905901
3715.000000	98.906897
3714.000000	98.907530
3713.000000	98.908654
3712.000000	98.911691
3711.000000	98.917253
3710.000000	98.923187
3709.000000	98.926399
3708.000000	98.926196
3707.000000	98.924279
3706.000000	98.922860
3705.000000	98.923000
3704.000000	98.924396
3703.000000	98.925610
3702.000000	98.925371
3701.000000	98.923627
3700.000000	98.921624
3699.000000	98.919883
3698.000000	98.917053
3697.000000	98.911383
3696.000000	98.903045
3695.000000	98.894714
3694.000000	98.889799
3693.000000	98.890948
3692.000000	98.899172
3691.000000	98.913281
3690.000000	98.927816
3689.000000	98.933530
3688.000000	98.925226
3687.000000	98.908640
3686.000000	98.893487
3685.000000	98.884297
3684.000000	98.880422
3683.000000	98.879132
3682.000000	98.878308
3681.000000	98.877195
3680.000000	98.875851
3679.000000	98.873700
3678.000000	98.869980
3677.000000	98.865864
3676.000000	98.864191
3675.000000	98.864324
3674.000000	98.862656
3673.000000	98.859246
3672.000000	98.856100
3671.000000	98.854318
3670.000000	98.852355
3669.000000	98.845805
3668.000000	98.834068
3667.000000	98.821849
3666.000000	98.812954
3665.000000	98.808345
3664.000000	98.807131
3663.000000	98.807335
3662.000000	98.806791
3661.000000	98.804245
3660.000000	98.800102
3659.000000	98.795947
3658.000000	98.793285
3657.000000	98.792396
3656.000000	98.791988
3655.000000	98.791000
3654.000000	98.789600
3653.000000	98.787476
3652.000000	98.783449
3651.000000	98.777155
3650.000000	98.770494
3649.000000	98.767097
3648.000000	98.768258
3647.000000	98.769965
3646.000000	98.766770
3645.000000	98.756710
3644.000000	98.742028
3643.000000	98.727174
3642.000000	98.715830
3641.000000	98.708675
3640.000000	98.704157
3639.000000	98.700997
3638.000000	98.698708
3637.000000	98.696391
3636.000000	98.692671
3635.000000	98.687216
3634.000000	98.681368
3633.000000	98.676292
3632.000000	98.671200
3631.000000	98.664385
3630.000000	98.655677
3629.000000	98.646768
3628.000000	98.638977
3627.000000	98.632851
3626.000000	98.628422
3625.000000	98.624225
3624.000000	98.619328
3623.000000	98.614084
3622.000000	98.608630
3621.000000	98.602447
3620.000000	98.594975
3619.000000	98.585793
3618.000000	98.574838
3617.000000	98.563195
3616.000000	98.552648
3615.000000	98.544182
3614.000000	98.536932
3613.000000	98.527919
3612.000000	98.514237
3611.000000	98.495942
3610.000000	98.475934
3609.000000	98.458854
3608.000000	98.448972
3607.000000	98.446694
3606.000000	98.448396
3605.000000	98.449844
3604.000000	98.449103
3603.000000	98.446217
3602.000000	98.441915
3601.000000	98.436908
3600.000000	98.431839
3599.000000	98.426827
3598.000000	98.420681
3597.000000	98.411364
3596.000000	98.397819
3595.000000	98.381754
3594.000000	98.366582
3593.000000	98.355033
3592.000000	98.347486
3591.000000	98.342906
3590.000000	98.339947
3589.000000	98.337266
3588.000000	98.332670
3587.000000	98.323966
3586.000000	98.311804
3585.000000	98.299454
3584.000000	98.289095
3583.000000	98.279940
3582.000000	98.270017
3581.000000	98.258525
3580.000000	98.246545
3579.000000	98.235677
3578.000000	98.226216
3577.000000	98.217352
3576.000000	98.208280
3575.000000	98.198608
3574.000000	98.187467
3573.000000	98.173588
3572.000000	98.156546
3571.000000	98.137692
3570.000000	98.119775
3569.000000	98.106245
3568.000000	98.099750
3567.000000	98.099236
3566.000000	98.099248
3565.000000	98.094740
3564.000000	98.084791
3563.000000	98.071035
3562.000000	98.055651
3561.000000	98.040880
3560.000000	98.028383
3559.000000	98.017814
3558.000000	98.006570
3557.000000	97.992037
3556.000000	97.974352
3555.000000	97.956585
3554.000000	97.942207
3553.000000	97.932447
3552.000000	97.926034
3551.000000	97.920829
3550.000000	97.915211
3549.000000	97.908411
3548.000000	97.900507
3547.000000	97.892269
3546.000000	97.884362
3545.000000	97.876612
3544.000000	97.868194
3543.000000	97.858131
3542.000000	97.845431
3541.000000	97.829776
3540.000000	97.812668
3539.000000	97.797188
3538.000000	97.785700
3537.000000	97.777685
3536.000000	97.770123
3535.000000	97.760182
3534.000000	97.747119
3533.000000	97.732222
3532.000000	97.717829
3531.000000	97.706232
3530.000000	97.698362
3529.000000	97.693195
3528.000000	97.688995
3527.000000	97.684923
3526.000000	97.680693
3525.000000	97.674975
3524.000000	97.665525
3523.000000	97.651622
3522.000000	97.635711
3521.000000	97.621791
3520.000000	97.612288
3519.000000	97.606439
3518.000000	97.601033
3517.000000	97.592503
3516.000000	97.579068
3515.000000	97.561647
3514.000000	97.543026
3513.000000	97.526091
3512.000000	97.512504
3511.000000	97.502529
3510.000000	97.495384
3509.000000	97.489696
3508.000000	97.484190
3507.000000	97.478443
3506.000000	97.472905
3505.000000	97.467935
3504.000000	97.462830
3503.000000	97.456055
3502.000000	97.446778
3501.000000	97.435862
3500.000000	97.424926
3499.000000	97.414918
3498.000000	97.405925
3497.000000	97.397725
3496.000000	97.389686
3495.000000	97.380350
3494.000000	97.368235
3493.000000	97.353657
3492.000000	97.339143
3491.000000	97.327440
3490.000000	97.319250
3489.000000	97.313086
3488.000000	97.306881
3487.000000	97.299102
3486.000000	97.288734
3485.000000	97.275294
3484.000000	97.259469
3483.000000	97.243565
3482.000000	97.230773
3481.000000	97.223363
3480.000000	97.221112
3479.000000	97.221243
3478.000000	97.220187
3477.000000	97.215842
3476.000000	97.208543
3475.000000	97.199992
3474.000000	97.191461
3473.000000	97.183171
3472.000000	97.174847
3471.000000	97.166208
3470.000000	97.157151
3469.000000	97.148015
3468.000000	97.139521
3467.000000	97.131916
3466.000000	97.124506
3465.000000	97.116671
3464.000000	97.108966
3463.000000	97.102288
3462.000000	97.096011
3461.000000	97.087967
3460.000000	97.076584
3459.000000	97.062371
3458.000000	97.047143
3457.000000	97.032601
3456.000000	97.020063
3455.000000	97.010758
3454.000000	97.005428
3453.000000	97.003760
3452.000000	97.004484
3451.000000	97.006098
3450.000000	97.007358
3449.000000	97.007169
3448.000000	97.004360
3447.000000	96.997891
3446.000000	96.987514
3445.000000	96.974249
3444.000000	96.960003
3443.000000	96.946727
3442.000000	96.935927
3441.000000	96.928496
3440.000000	96.924311
3439.000000	96.921770
3438.000000	96.918312
3437.000000	96.912170
3436.000000	96.903570
3435.000000	96.893970
3434.000000	96.884475
3433.000000	96.875589
3432.000000	96.867923
3431.000000	96.862087
3430.000000	96.857784
3429.000000	96.853785
3428.000000	96.848998
3427.000000	96.843011
3426.000000	96.835735
3425.000000	96.827320
3424.000000	96.818392
3423.000000	96.809444
3422.000000	96.799818
3421.000000	96.788387
3420.000000	96.775760
3419.000000	96.764771
3418.000000	96.757808
3417.000000	96.754292
3416.000000	96.751371
3415.000000	96.746523
3414.000000	96.738919
3413.000000	96.728798
3412.000000	96.716648
3411.000000	96.703404
3410.000000	96.691021
3409.000000	96.682211
3408.000000	96.679013
3407.000000	96.680980
3406.000000	96.684548
3405.000000	96.684660
3404.000000	96.677817
3403.000000	96.664233
3402.000000	96.647486
3401.000000	96.632273
3400.000000	96.621821
3399.000000	96.616260
3398.000000	96.612767
3397.000000	96.607634
3396.000000	96.598832
3395.000000	96.586951
3394.000000	96.574100
3393.000000	96.562347
3392.000000	96.552774
3391.000000	96.545016
3390.000000	96.537527
3389.000000	96.529098
3388.000000	96.520482
3387.000000	96.513954
3386.000000	96.510667
3385.000000	96.508715
3384.000000	96.504471
3383.000000	96.495843
3382.000000	96.483959
3381.000000	96.471884
3380.000000	96.461949
3379.000000	96.454003
3378.000000	96.445864
3377.000000	96.435443
3376.000000	96.422546
3375.000000	96.408695
3374.000000	96.395522
3373.000000	96.383862
3372.000000	96.374223
3371.000000	96.367156
3370.000000	96.362456
3369.000000	96.358339
3368.000000	96.352089
3367.000000	96.341757
3366.000000	96.327306
3365.000000	96.310444
3364.000000	96.293648
3363.000000	96.279025
3362.000000	96.267438
3361.000000	96.258257
3360.000000	96.249843
3359.000000	96.240262
3358.000000	96.227764
3357.000000	96.211210
3356.000000	96.190766
3355.000000	96.168489
3354.000000	96.147853
3353.000000	96.131883
3352.000000	96.121093
3351.000000	96.113092
3350.000000	96.104529
3349.000000	96.093512
3348.000000	96.080047
3347.000000	96.064492
3346.000000	96.046601
3345.000000	96.026578
3344.000000	96.006359
3343.000000	95.988880
3342.000000	95.975966
3341.000000	95.967287
3340.000000	95.960966
3339.000000	95.954531
3338.000000	95.945584
3337.000000	95.932761
3336.000000	95.916688
3335.000000	95.899582
3334.000000	95.883483
3333.000000	95.868894
3332.000000	95.855116
3331.000000	95.841483
3330.000000	95.828085
3329.000000	95.815460
3328.000000	95.803724
3327.000000	95.792096
3326.000000	95.779498
3325.000000	95.765738
3324.000000	95.751807
3323.000000	95.738825
3322.000000	95.727002
3321.000000	95.715803
3320.000000	95.704593
3319.000000	95.692684
3318.000000	95.679325
3317.000000	95.664399
3316.000000	95.649020
3315.000000	95.634885
3314.000000	95.623001
3313.000000	95.613252
3312.000000	95.604684
3311.000000	95.595765
3310.000000	95.584984
3309.000000	95.572188
3308.000000	95.559219
3307.000000	95.548365
3306.000000	95.540073
3305.000000	95.532619
3304.000000	95.523794
3303.000000	95.512622
3302.000000	95.499960
3301.000000	95.488182
3300.000000	95.479850
3299.000000	95.475652
3298.000000	95.473629
3297.000000	95.471035
3296.000000	95.466744
3295.000000	95.461208
3294.000000	95.454616
3293.000000	95.446483
3292.000000	95.437009
3291.000000	95.427463
3290.000000	95.418884
3289.000000	95.411368
3288.000000	95.404975
3287.000000	95.400365
3286.000000	95.398092
3285.000000	95.397940
3284.000000	95.399095
3283.000000	95.400279
3282.000000	95.399790
3281.000000	95.396636
3280.000000	95.392290
3279.000000	95.390281
3278.000000	95.393411
3277.000000	95.401655
3276.000000	95.412957
3275.000000	95.425385
3274.000000	95.437876
3273.000000	95.449782
3272.000000	95.460472
3271.000000	95.469149
3270.000000	95.474759
3269.000000	95.476664
3268.000000	95.476011
3267.000000	95.476030
3266.000000	95.480285
3265.000000	95.490334
3264.000000	95.504941
3263.000000	95.521029
3262.000000	95.535429
3261.000000	95.546544
3260.000000	95.555188
3259.000000	95.563664
3258.000000	95.573856
3257.000000	95.586330
3256.000000	95.600970
3255.000000	95.617695
3254.000000	95.636181
3253.000000	95.655479
3252.000000	95.674265
3251.000000	95.691164
3250.000000	95.704828
3249.000000	95.714585
3248.000000	95.721488
3247.000000	95.728081
3246.000000	95.736473
3245.000000	95.746729
3244.000000	95.757391
3243.000000	95.767137
3242.000000	95.775494
3241.000000	95.782574
3240.000000	95.788994
3239.000000	95.796079
3238.000000	95.805472
3237.000000	95.818070
3236.000000	95.833175
3235.000000	95.848766
3234.000000	95.862799
3233.000000	95.874402
3232.000000	95.883768
3231.000000	95.891023
3230.000000	95.895907
3229.000000	95.899005
3228.000000	95.902576
3227.000000	95.908979
3226.000000	95.918213
3225.000000	95.927879
3224.000000	95.935641
3223.000000	95.941227
3222.000000	95.946150
3221.000000	95.952400
3220.000000	95.961403
3219.000000	95.973064
3218.000000	95.985432
3217.000000	95.996117
3216.000000	96.004334
3215.000000	96.010992
3214.000000	96.016532
3213.000000	96.019851
3212.000000	96.020041
3211.000000	96.018568
3210.000000	96.018864
3209.000000	96.023708
3208.000000	96.033187
3207.000000	96.044681
3206.000000	96.054716
3205.000000	96.061319
3204.000000	96.065227
3203.000000	96.068836
3202.000000	96.074047
3201.000000	96.081472
3200.000000	96.091145
3199.000000	96.102718
3198.000000	96.114670
3197.000000	96.124569
3196.000000	96.131136
3195.000000	96.135694
3194.000000	96.141122
3193.000000	96.149756
3192.000000	96.162266
3191.000000	96.177579
3190.000000	96.193347
3189.000000	96.207195
3188.000000	96.218269
3187.000000	96.227456
3186.000000	96.236280
3185.000000	96.246180
3184.000000	96.258531
3183.000000	96.273745
3182.000000	96.289845
3181.000000	96.303496
3180.000000	96.313538
3179.000000	96.322378
3178.000000	96.332770
3177.000000	96.344273
3176.000000	96.354621
3175.000000	96.363666
3174.000000	96.373884
3173.000000	96.386956
3172.000000	96.401561
3171.000000	96.414943
3170.000000	96.425528
3169.000000	96.433622
3168.000000	96.440743
3167.000000	96.448727
3166.000000	96.458608
3165.000000	96.469611
3164.000000	96.479913
3163.000000	96.488933
3162.000000	96.498364
3161.000000	96.510317
3160.000000	96.524862
3159.000000	96.539996
3158.000000	96.553793
3157.000000	96.565832
3156.000000	96.576583
3155.000000	96.586287
3154.000000	96.594997
3153.000000	96.603217
3152.000000	96.611665
3151.000000	96.620312
3150.000000	96.628392
3149.000000	96.635736
3148.000000	96.643535
3147.000000	96.653171
3146.000000	96.664610
3145.000000	96.676631
3144.000000	96.688324
3143.000000	96.699655
3142.000000	96.710716
3141.000000	96.721503
3140.000000	96.732447
3139.000000	96.744015
3138.000000	96.755238
3137.000000	96.763703
3136.000000	96.767656
3135.000000	96.767765
3134.000000	96.766586
3133.000000	96.767066
3132.000000	96.771471
3131.000000	96.780174
3130.000000	96.790522
3129.000000	96.798192
3128.000000	96.801173
3127.000000	96.802071
3126.000000	96.805376
3125.000000	96.812831
3124.000000	96.822455
3123.000000	96.831352
3122.000000	96.837991
3121.000000	96.842270
3120.000000	96.845176
3119.000000	96.848626
3118.000000	96.853936
3117.000000	96.859879
3116.000000	96.863314
3115.000000	96.862308
3114.000000	96.857687
3113.000000	96.851337
3112.000000	96.844513
3111.000000	96.838610
3110.000000	96.836006
3109.000000	96.838395
3108.000000	96.844333
3107.000000	96.849708
3106.000000	96.850843
3105.000000	96.846979
3104.000000	96.840191
3103.000000	96.833556
3102.000000	96.828840
3101.000000	96.825134
3100.000000	96.819985
3099.000000	96.812631
3098.000000	96.805634
3097.000000	96.802456
3096.000000	96.803701
3095.000000	96.806695
3094.000000	96.808626
3093.000000	96.808943
3092.000000	96.808524
3091.000000	96.807888
3090.000000	96.806985
3089.000000	96.805726
3088.000000	96.803717
3087.000000	96.800009
3086.000000	96.794052
3085.000000	96.786705
3084.000000	96.779713
3083.000000	96.774297
3082.000000	96.770773
3081.000000	96.769100
3080.000000	96.769000
3079.000000	96.769577
3078.000000	96.769536
3077.000000	96.767880
3076.000000	96.764141
3075.000000	96.758424
3074.000000	96.751989
3073.000000	96.747338
3072.000000	96.746471
3071.000000	96.748867
3070.000000	96.752070
3069.000000	96.754420
3068.000000	96.756285
3067.000000	96.758635
3066.000000	96.761708
3065.000000	96.765637
3064.000000	96.770998
3063.000000	96.777809
3062.000000	96.785174
3061.000000	96.792854
3060.000000	96.802006
3059.000000	96.812813
3058.000000	96.822422
3057.000000	96.827285
3056.000000	96.827614
3055.000000	96.827710
3054.000000	96.831442
3053.000000	96.838700
3052.000000	96.846661
3051.000000	96.853224
3050.000000	96.858661
3049.000000	96.864910
3048.000000	96.873785
3047.000000	96.885290
3046.000000	96.897289
3045.000000	96.907364
3044.000000	96.915095
3043.000000	96.921856
3042.000000	96.928499
3041.000000	96.934379
3040.000000	96.939094
3039.000000	96.944067
3038.000000	96.951596
3037.000000	96.962801
3036.000000	96.976929
3035.000000	96.991908
3034.000000	97.005096
3033.000000	97.014404
3032.000000	97.019720
3031.000000	97.023034
3030.000000	97.026549
3029.000000	97.030976
3028.000000	97.036007
3027.000000	97.041622
3026.000000	97.048042
3025.000000	97.054827
3024.000000	97.061015
3023.000000	97.066198
3022.000000	97.070789
3021.000000	97.075165
3020.000000	97.079088
3019.000000	97.082150
3018.000000	97.084475
3017.000000	97.086691
3016.000000	97.089149
3015.000000	97.091182
3014.000000	97.091152
3013.000000	97.087556
3012.000000	97.080114
3011.000000	97.069796
3010.000000	97.058068
3009.000000	97.046475
3008.000000	97.036693
3007.000000	97.030023
3006.000000	97.026471
3005.000000	97.024564
3004.000000	97.022058
3003.000000	97.016580
3002.000000	97.005987
3001.000000	96.989323
3000.000000	96.967885
2999.000000	96.944555
2998.000000	96.921479
2997.000000	96.898749
2996.000000	96.875430
2995.000000	96.851059
2994.000000	96.825505
2993.000000	96.798310
2992.000000	96.769120
2991.000000	96.738277
2990.000000	96.705946
2989.000000	96.670668
2988.000000	96.629953
2987.000000	96.582884
2986.000000	96.531711
2985.000000	96.480325
2984.000000	96.430989
2983.000000	96.382499
2982.000000	96.331405
2981.000000	96.274538
2980.000000	96.210641
2979.000000	96.140124
2978.000000	96.064416
2977.000000	95.985681
2976.000000	95.906011
2975.000000	95.825920
2974.000000	95.743697
2973.000000	95.656998
2972.000000	95.564910
2971.000000	95.468056
2970.000000	95.367609
2969.000000	95.265361
2968.000000	95.164254
2967.000000	95.066916
2966.000000	94.973252
2965.000000	94.881165
2964.000000	94.790544
2963.000000	94.705693
2962.000000	94.632730
2961.000000	94.575460
2960.000000	94.534533
2959.000000	94.509519
2958.000000	94.500478
2957.000000	94.507209
2956.000000	94.528462
2955.000000	94.561894
2954.000000	94.604456
2953.000000	94.652574
2952.000000	94.702190
2951.000000	94.749039
2950.000000	94.788336
2949.000000	94.815073
2948.000000	94.825248
2947.000000	94.817559
2946.000000	94.793667
2945.000000	94.756372
2944.000000	94.707394
2943.000000	94.646159
2942.000000	94.570951
2941.000000	94.481313
2940.000000	94.379918
2939.000000	94.271783
2938.000000	94.161372
2937.000000	94.050844
2936.000000	93.940851
2935.000000	93.832811
2934.000000	93.729697
2933.000000	93.635085
2932.000000	93.551707
2931.000000	93.480535
2930.000000	93.420556
2929.000000	93.369278
2928.000000	93.324476
2927.000000	93.286181
2926.000000	93.257115
2925.000000	93.241058
2924.000000	93.240319
2923.000000	93.254601
2922.000000	93.281601
2921.000000	93.318728
2920.000000	93.364640
2919.000000	93.419574
2918.000000	93.484900
2917.000000	93.562496
2916.000000	93.654190
2915.000000	93.760458
2914.000000	93.878319
2913.000000	94.000823
2912.000000	94.120013
2911.000000	94.231590
2910.000000	94.336483
2909.000000	94.437676
2908.000000	94.536389
2907.000000	94.631734
2906.000000	94.723329
2905.000000	94.812635
2904.000000	94.901604
2903.000000	94.990880
2902.000000	95.079926
2901.000000	95.168274
2900.000000	95.255844
2899.000000	95.342419
2898.000000	95.427252
2897.000000	95.509300
2896.000000	95.587531
2895.000000	95.660969
2894.000000	95.728914
2893.000000	95.791365
2892.000000	95.849025
2891.000000	95.902727
2890.000000	95.952643
2889.000000	95.997784
2888.000000	96.035946
2887.000000	96.064447
2886.000000	96.081858
2885.000000	96.089338
2884.000000	96.089774
2883.000000	96.085035
2882.000000	96.074281
2881.000000	96.055220
2880.000000	96.026496
2879.000000	95.988457
2878.000000	95.942286
2877.000000	95.889723
2876.000000	95.833750
2875.000000	95.778777
2874.000000	95.729796
2873.000000	95.691133
2872.000000	95.665582
2871.000000	95.653585
2870.000000	95.652553
2869.000000	95.657024
2868.000000	95.660057
2867.000000	95.655396
2866.000000	95.639521
2865.000000	95.612526
2864.000000	95.576626
2863.000000	95.533563
2862.000000	95.483663
2861.000000	95.427918
2860.000000	95.370056
2859.000000	95.315292
2858.000000	95.267186
2857.000000	95.226934
2856.000000	95.195746
2855.000000	95.176230
2854.000000	95.171329
2853.000000	95.183112
2852.000000	95.213742
2851.000000	95.266905
2850.000000	95.346760
2849.000000	95.455046
2848.000000	95.588886
2847.000000	95.740521
2846.000000	95.898673
2845.000000	96.051779
2844.000000	96.191757
2843.000000	96.316190
2842.000000	96.426782
2841.000000	96.525553
2840.000000	96.612851
2839.000000	96.688158
2838.000000	96.751788
2837.000000	96.805327
2836.000000	96.850888
2835.000000	96.890443
2834.000000	96.925862
2833.000000	96.958872
2832.000000	96.990360
2831.000000	97.019707
2830.000000	97.045414
2829.000000	97.066992
2828.000000	97.085705
2827.000000	97.103021
2826.000000	97.118962
2825.000000	97.132850
2824.000000	97.145242
2823.000000	97.157803
2822.000000	97.171334
2821.000000	97.185152
2820.000000	97.198555
2819.000000	97.211575
2818.000000	97.223894
2817.000000	97.234522
2816.000000	97.243582
2815.000000	97.253396
2814.000000	97.266514
2813.000000	97.282936
2812.000000	97.300012
2811.000000	97.314787
2810.000000	97.326056
2809.000000	97.334902
2808.000000	97.343944
2807.000000	97.355468
2806.000000	97.369271
2805.000000	97.382624
2804.000000	97.393025
2803.000000	97.400729
2802.000000	97.407971
2801.000000	97.416402
2800.000000	97.426100
2799.000000	97.436511
2798.000000	97.447084
2797.000000	97.457049
2796.000000	97.465652
2795.000000	97.472831
2794.000000	97.479009
2793.000000	97.484238
2792.000000	97.488294
2791.000000	97.491611
2790.000000	97.495421
2789.000000	97.500907
2788.000000	97.508906
2787.000000	97.520239
2786.000000	97.535089
2785.000000	97.551524
2784.000000	97.565570
2783.000000	97.573816
2782.000000	97.575982
2781.000000	97.574756
2780.000000	97.573386
2779.000000	97.573820
2778.000000	97.576580
2777.000000	97.581332
2776.000000	97.587053
2775.000000	97.592129
2774.000000	97.595228
2773.000000	97.596671
2772.000000	97.598645
2771.000000	97.603462
2770.000000	97.611396
2769.000000	97.620458
2768.000000	97.628255
2767.000000	97.633727
2766.000000	97.637162
2765.000000	97.639241
2764.000000	97.640570
2763.000000	97.641817
2762.000000	97.643750
2761.000000	97.647067
2760.000000	97.652233
2759.000000	97.659146
2758.000000	97.666699
2757.000000	97.673113
2756.000000	97.677282
2755.000000	97.679771
2754.000000	97.682104
2753.000000	97.685025
2752.000000	97.687710
2751.000000	97.688677
2750.000000	97.687221
2749.000000	97.684039
2748.000000	97.680798
2747.000000	97.679130
2746.000000	97.679826
2745.000000	97.682791
2744.000000	97.687697
2743.000000	97.694468
2742.000000	97.702920
2741.000000	97.712008
2740.000000	97.719754
2739.000000	97.724287
2738.000000	97.725204
2737.000000	97.724092
2736.000000	97.723601
2735.000000	97.725666
2734.000000	97.730302
2733.000000	97.735972
2732.000000	97.740986
2731.000000	97.744512
2730.000000	97.746684
2729.000000	97.748384
2728.000000	97.750956
2727.000000	97.755468
2726.000000	97.761713
2725.000000	97.768155
2724.000000	97.773320
2723.000000	97.777097
2722.000000	97.780339
2721.000000	97.783443
2720.000000	97.785965
2719.000000	97.787719
2718.000000	97.789620
2717.000000	97.792895
2716.000000	97.797563
2715.000000	97.802101
2714.000000	97.804750
2713.000000	97.805045
2712.000000	97.804161
2711.000000	97.804042
2710.000000	97.806187
2709.000000	97.810729
2708.000000	97.816175
2707.000000	97.820320
2706.000000	97.822083
2705.000000	97.822556
2704.000000	97.823676
2703.000000	97.825804
2702.000000	97.827404
2701.000000	97.827534
2700.000000	97.827787
2699.000000	97.830710
2698.000000	97.836571
2697.000000	97.842709
2696.000000	97.846246
2695.000000	97.846664
2694.000000	97.845422
2693.000000	97.843908
2692.000000	97.842528
2691.000000	97.841379
2690.000000	97.840883
2689.000000	97.841424
2688.000000	97.842810
2687.000000	97.844529
2686.000000	97.846418
2685.000000	97.848632
2684.000000	97.850918
2683.000000	97.852386
2682.000000	97.852498
2681.000000	97.852068
2680.000000	97.852711
2679.000000	97.855220
2678.000000	97.858892
2677.000000	97.862410
2676.000000	97.864808
2675.000000	97.865500
2674.000000	97.864223
2673.000000	97.861568
2672.000000	97.859092
2671.000000	97.858067
2670.000000	97.858188
2669.000000	97.857939
2668.000000	97.856240
2667.000000	97.853494
2666.000000	97.851161
2665.000000	97.850512
2664.000000	97.851608
2663.000000	97.853279
2662.000000	97.854238
2661.000000	97.854306
2660.000000	97.854244
2659.000000	97.854519
2658.000000	97.854994
2657.000000	97.856018
2656.000000	97.858867
2655.000000	97.864292
2654.000000	97.871170
2653.000000	97.877493
2652.000000	97.882358
2651.000000	97.886316
2650.000000	97.890127
2649.000000	97.894129
2648.000000	97.898761
2647.000000	97.904761
2646.000000	97.912404
2645.000000	97.920801
2644.000000	97.928108
2643.000000	97.932555
2642.000000	97.933812
2641.000000	97.933638
2640.000000	97.934728
2639.000000	97.938522
2638.000000	97.944423
2637.000000	97.951037
2636.000000	97.957230
2635.000000	97.961870
2634.000000	97.964182
2633.000000	97.965324
2632.000000	97.968239
2631.000000	97.974477
2630.000000	97.982054
2629.000000	97.987986
2628.000000	97.992142
2627.000000	97.996909
2626.000000	98.003540
2625.000000	98.010563
2624.000000	98.015750
2623.000000	98.018235
2622.000000	98.018721
2621.000000	98.018828
2620.000000	98.020124
2619.000000	98.022839
2618.000000	98.025859
2617.000000	98.028765
2616.000000	98.032869
2615.000000	98.038854
2614.000000	98.044674
2613.000000	98.047883
2612.000000	98.049198
2611.000000	98.051207
2610.000000	98.054025
2609.000000	98.055321
2608.000000	98.054911
2607.000000	98.056320
2606.000000	98.062196
2605.000000	98.070361
2604.000000	98.076143
2603.000000	98.077343
2602.000000	98.075500
2601.000000	98.073157
2600.000000	98.071466
2599.000000	98.070314
2598.000000	98.069794
2597.000000	98.071107
2596.000000	98.075848
2595.000000	98.084225
2594.000000	98.094153
2593.000000	98.102312
2592.000000	98.106109
2591.000000	98.105081
2590.000000	98.101590
2589.000000	98.100003
2588.000000	98.103128
2587.000000	98.108570
2586.000000	98.110774
2585.000000	98.107857
2584.000000	98.104302
2583.000000	98.104863
2582.000000	98.108092
2581.000000	98.108909
2580.000000	98.105873
2579.000000	98.102641
2578.000000	98.102809
2577.000000	98.106494
2576.000000	98.111537
2575.000000	98.115354
2574.000000	98.115928
2573.000000	98.113701
2572.000000	98.112398
2571.000000	98.115611
2570.000000	98.123001
2569.000000	98.131830
2568.000000	98.140793
2567.000000	98.149304
2566.000000	98.154629
2565.000000	98.154172
2564.000000	98.150496
2563.000000	98.149710
2562.000000	98.154043
2561.000000	98.159506
2560.000000	98.161552
2559.000000	98.159821
2558.000000	98.156583
2557.000000	98.153920
2556.000000	98.153423
2555.000000	98.155699
2554.000000	98.159082
2553.000000	98.161238
2552.000000	98.162217
2551.000000	98.163172
2550.000000	98.162368
2549.000000	98.156542
2548.000000	98.146763
2547.000000	98.138700
2546.000000	98.135776
2545.000000	98.136162
2544.000000	98.138169
2543.000000	98.144049
2542.000000	98.155330
2541.000000	98.167719
2540.000000	98.174259
2539.000000	98.171876
2538.000000	98.162396
2537.000000	98.149487
2536.000000	98.137578
2535.000000	98.131918
2534.000000	98.135600
2533.000000	98.145866
2532.000000	98.154944
2531.000000	98.155293
2530.000000	98.144275
2529.000000	98.125177
2528.000000	98.104867
2527.000000	98.089573
2526.000000	98.081698
2525.000000	98.080209
2524.000000	98.082956
2523.000000	98.087346
2522.000000	98.090083
2521.000000	98.089213
2520.000000	98.086737
2519.000000	98.086794
2518.000000	98.090595
2517.000000	98.094971
2516.000000	98.096298
2515.000000	98.093774
2514.000000	98.088924
2513.000000	98.084526
2512.000000	98.084401
2511.000000	98.091237
2510.000000	98.103283
2509.000000	98.115294
2508.000000	98.123730
2507.000000	98.129268
2506.000000	98.134041
2505.000000	98.139213
2504.000000	98.145994
2503.000000	98.155865
2502.000000	98.168004
2501.000000	98.178785
2500.000000	98.185640
2499.000000	98.189773
2498.000000	98.193847
2497.000000	98.198916
2496.000000	98.204633
2495.000000	98.210408
2494.000000	98.215054
2493.000000	98.217458
2492.000000	98.219167
2491.000000	98.224194
2490.000000	98.234424
2489.000000	98.246840
2488.000000	98.257425
2487.000000	98.266466
2486.000000	98.277557
2485.000000	98.291754
2484.000000	98.304659
2483.000000	98.310236
2482.000000	98.307207
2481.000000	98.301034
2480.000000	98.298916
2479.000000	98.302148
2478.000000	98.304524
2477.000000	98.299933
2476.000000	98.290381
2475.000000	98.284327
2474.000000	98.287112
2473.000000	98.295535
2472.000000	98.302387
2471.000000	98.304322
2470.000000	98.304214
2469.000000	98.307058
2468.000000	98.314477
2467.000000	98.322838
2466.000000	98.326887
2465.000000	98.325591
2464.000000	98.323319
2463.000000	98.324187
2462.000000	98.327037
2461.000000	98.328076
2460.000000	98.326809
2459.000000	98.326060
2458.000000	98.326902
2457.000000	98.327261
2456.000000	98.325690
2455.000000	98.323533
2454.000000	98.322920
2453.000000	98.325228
2452.000000	98.331310
2451.000000	98.340111
2450.000000	98.346921
2449.000000	98.346572
2448.000000	98.339396
2447.000000	98.331340
2446.000000	98.327502
2445.000000	98.328292
2444.000000	98.332062
2443.000000	98.337383
2442.000000	98.341525
2441.000000	98.340501
2440.000000	98.333499
2439.000000	98.324963
2438.000000	98.320126
2437.000000	98.320035
2436.000000	98.322510
2435.000000	98.325950
2434.000000	98.329999
2433.000000	98.333719
2432.000000	98.335425
2431.000000	98.334449
2430.000000	98.332124
2429.000000	98.330837
2428.000000	98.332202
2427.000000	98.336062
2426.000000	98.341617
2425.000000	98.349236
2424.000000	98.359335
2423.000000	98.368826
2422.000000	98.371533
2421.000000	98.364885
2420.000000	98.354278
2419.000000	98.347483
2418.000000	98.345897
2417.000000	98.344658
2416.000000	98.340608
2415.000000	98.336169
2414.000000	98.335394
2413.000000	98.339796
2412.000000	98.348753
2411.000000	98.360789
2410.000000	98.373374
2409.000000	98.383602
2408.000000	98.389936
2407.000000	98.391961
2406.000000	98.389100
2405.000000	98.381842
2404.000000	98.373534
2403.000000	98.368070
2402.000000	98.365944
2401.000000	98.365036
2400.000000	98.364517
2399.000000	98.365127
2398.000000	98.366319
2397.000000	98.366552
2396.000000	98.366257
2395.000000	98.367298
2394.000000	98.369431
2393.000000	98.370457
2392.000000	98.369946
2391.000000	98.369767
2390.000000	98.370991
2389.000000	98.373479
2388.000000	98.378719
2387.000000	98.389181
2386.000000	98.404460
2385.000000	98.420999
2384.000000	98.436476
2383.000000	98.451965
2382.000000	98.468147
2381.000000	98.482381
2380.000000	98.489749
2379.000000	98.485501
2378.000000	98.467662
2377.000000	98.440634
2376.000000	98.416093
2375.000000	98.404944
2374.000000	98.406970
2373.000000	98.412143
2372.000000	98.413136
2371.000000	98.411654
2370.000000	98.411743
2369.000000	98.413332
2368.000000	98.413971
2367.000000	98.413047
2366.000000	98.410807
2365.000000	98.406622
2364.000000	98.401109
2363.000000	98.397239
2362.000000	98.396893
2361.000000	98.399241
2360.000000	98.404261
2359.000000	98.410361
2358.000000	98.413654
2357.000000	98.411955
2356.000000	98.404021
2355.000000	98.393459
2354.000000	98.386750
2353.000000	98.386053
2352.000000	98.386735
2351.000000	98.385600
2350.000000	98.384399
2349.000000	98.382337
2348.000000	98.379192
2347.000000	98.377149
2346.000000	98.376218
2345.000000	98.372037
2344.000000	98.364409
2343.000000	98.362607
2342.000000	98.366889
2341.000000	98.370323
2340.000000	98.369791
2339.000000	98.367575
2338.000000	98.365428
2337.000000	98.361822
2336.000000	98.356219
2335.000000	98.351362
2334.000000	98.352348
2333.000000	98.358922
2332.000000	98.365503
2331.000000	98.365929
2330.000000	98.362960
2329.000000	98.358474
2328.000000	98.351979
2327.000000	98.337864
2326.000000	98.315963
2325.000000	98.293355
2324.000000	98.280709
2323.000000	98.283792
2322.000000	98.296279
2321.000000	98.307194
2320.000000	98.313044
2319.000000	98.318756
2318.000000	98.329327
2317.000000	98.342682
2316.000000	98.356930
2315.000000	98.370962
2314.000000	98.385181
2313.000000	98.398962
2312.000000	98.416410
2311.000000	98.440497
2310.000000	98.467067
2309.000000	98.483570
2308.000000	98.484426
2307.000000	98.475750
2306.000000	98.466818
2305.000000	98.458721
2304.000000	98.449303
2303.000000	98.439978
2302.000000	98.434112
2301.000000	98.429304
2300.000000	98.421427
2299.000000	98.410649
2298.000000	98.402363
2297.000000	98.399170
2296.000000	98.399635
2295.000000	98.400478
2294.000000	98.400208
2293.000000	98.398451
2292.000000	98.396306
2291.000000	98.395076
2290.000000	98.393820
2289.000000	98.389250
2288.000000	98.379916
2287.000000	98.369250
2286.000000	98.362288
2285.000000	98.361821
2284.000000	98.367952
2283.000000	98.379055
2282.000000	98.391017
2281.000000	98.399101
2280.000000	98.401815
2279.000000	98.400817
2278.000000	98.396463
2277.000000	98.387997
2276.000000	98.378741
2275.000000	98.375799
2274.000000	98.383472
2273.000000	98.400516
2272.000000	98.424299
2271.000000	98.451256
2270.000000	98.473154
2269.000000	98.480878
2268.000000	98.475189
2267.000000	98.466905
2266.000000	98.463284
2265.000000	98.460920
2264.000000	98.455329
2263.000000	98.449674
2262.000000	98.449341
2261.000000	98.453675
2260.000000	98.457015
2259.000000	98.454125
2258.000000	98.442608
2257.000000	98.426324
2256.000000	98.416884
2255.000000	98.423493
2254.000000	98.439341
2253.000000	98.446983
2252.000000	98.440555
2251.000000	98.432725
2250.000000	98.437192
2249.000000	98.453746
2248.000000	98.473960
2247.000000	98.490450
2246.000000	98.496349
2245.000000	98.487570
2244.000000	98.472698
2243.000000	98.469940
2242.000000	98.486262
2241.000000	98.508737
2240.000000	98.522871
2239.000000	98.529610
2238.000000	98.536260
2237.000000	98.542310
2236.000000	98.544726
2235.000000	98.548125
2234.000000	98.557638
2233.000000	98.567658
2232.000000	98.567517
2231.000000	98.553404
2230.000000	98.527591
2229.000000	98.493700
2228.000000	98.461396
2227.000000	98.447917
2226.000000	98.464281
2225.000000	98.503000
2224.000000	98.545937
2223.000000	98.579902
2222.000000	98.600389
2221.000000	98.608359
2220.000000	98.610573
2219.000000	98.615031
2218.000000	98.619898
2217.000000	98.615336
2216.000000	98.601623
2215.000000	98.593812
2214.000000	98.600609
2213.000000	98.610902
2212.000000	98.611292
2211.000000	98.606232
2210.000000	98.608372
2209.000000	98.618439
2208.000000	98.627570
2207.000000	98.631632
2206.000000	98.630039
2205.000000	98.616096
2204.000000	98.583209
2203.000000	98.539203
2202.000000	98.504873
2201.000000	98.497507
2200.000000	98.518687
2199.000000	98.553751
2198.000000	98.579975
2197.000000	98.583236
2196.000000	98.573408
2195.000000	98.576004
2194.000000	98.603063
2193.000000	98.639581
2192.000000	98.662609
2191.000000	98.664651
2190.000000	98.652853
2189.000000	98.639152
2188.000000	98.638711
2187.000000	98.663777
2186.000000	98.706767
2185.000000	98.740213
2184.000000	98.747408
2183.000000	98.745422
2182.000000	98.763412
2181.000000	98.803975
2180.000000	98.839093
2179.000000	98.839904
2178.000000	98.800524
2177.000000	98.739291
2176.000000	98.687171
2175.000000	98.667603
2174.000000	98.678124
2173.000000	98.694635
2172.000000	98.697825
2171.000000	98.690485
2170.000000	98.686860
2169.000000	98.692901
2168.000000	98.700032
2167.000000	98.694352
2166.000000	98.671153
2165.000000	98.643935
2164.000000	98.633094
2163.000000	98.637954
2162.000000	98.633775
2161.000000	98.614029
2160.000000	98.621064
2159.000000	98.699136
2158.000000	98.818905
2157.000000	98.901374
2156.000000	98.914749
2155.000000	98.891399
2154.000000	98.864002
2153.000000	98.838031
2152.000000	98.816564
2151.000000	98.807674
2150.000000	98.804889
2149.000000	98.792150
2148.000000	98.775178
2147.000000	98.778237
2146.000000	98.802611
2145.000000	98.816036
2144.000000	98.794660
2143.000000	98.749814
2142.000000	98.703019
2141.000000	98.660588
2140.000000	98.624690
2139.000000	98.607001
2138.000000	98.614520
2137.000000	98.636357
2136.000000	98.657339
2135.000000	98.673332
2134.000000	98.683065
2133.000000	98.679920
2132.000000	98.664010
2131.000000	98.649715
2130.000000	98.649121
2129.000000	98.656247
2128.000000	98.656106
2127.000000	98.642959
2126.000000	98.623050
2125.000000	98.605235
2124.000000	98.594381
2123.000000	98.588555
2122.000000	98.578832
2121.000000	98.557917
2120.000000	98.532077
2119.000000	98.517046
2118.000000	98.518523
2117.000000	98.524559
2116.000000	98.521279
2115.000000	98.508352
2114.000000	98.492989
2113.000000	98.477092
2112.000000	98.457974
2111.000000	98.436856
2110.000000	98.419589
2109.000000	98.411704
2108.000000	98.416320
2107.000000	98.432593
2106.000000	98.453305
2105.000000	98.469484
2104.000000	98.480513
2103.000000	98.493582
2102.000000	98.510368
2101.000000	98.522210
2100.000000	98.522828
2099.000000	98.517995
2098.000000	98.518251
2097.000000	98.528180
2096.000000	98.546245
2095.000000	98.567202
2094.000000	98.581249
2093.000000	98.580079
2092.000000	98.568018
2091.000000	98.558068
2090.000000	98.553621
2089.000000	98.543798
2088.000000	98.521659
2087.000000	98.497224
2086.000000	98.484883
2085.000000	98.486838
2084.000000	98.496117
2083.000000	98.508437
2082.000000	98.522424
2081.000000	98.533291
2080.000000	98.535521
2079.000000	98.529333
2078.000000	98.519260
2077.000000	98.509194
2076.000000	98.502708
2075.000000	98.503865
2074.000000	98.513567
2073.000000	98.529477
2072.000000	98.550319
2071.000000	98.574385
2070.000000	98.593248
2069.000000	98.596003
2068.000000	98.583804
2067.000000	98.571280
2066.000000	98.569841
2065.000000	98.576115
2064.000000	98.578479
2063.000000	98.568169
2062.000000	98.543929
2061.000000	98.515842
2060.000000	98.504216
2059.000000	98.521776
2058.000000	98.557039
2057.000000	98.587953
2056.000000	98.609839
2055.000000	98.633272
2054.000000	98.654926
2053.000000	98.655058
2052.000000	98.631024
2051.000000	98.610120
2050.000000	98.617268
2049.000000	98.644632
2048.000000	98.666238
2047.000000	98.671896
2046.000000	98.669620
2045.000000	98.666551
2044.000000	98.665620
2043.000000	98.670674
2042.000000	98.681866
2041.000000	98.694903
2040.000000	98.711029
2039.000000	98.733858
2038.000000	98.753244
2037.000000	98.753384
2036.000000	98.742707
2035.000000	98.750844
2034.000000	98.786006
2033.000000	98.823677
2032.000000	98.848977
2031.000000	98.876539
2030.000000	98.910286
2029.000000	98.920395
2028.000000	98.884765
2027.000000	98.827789
2026.000000	98.793403
2025.000000	98.799543
2024.000000	98.831933
2023.000000	98.864378
2022.000000	98.874594
2021.000000	98.859065
2020.000000	98.843860
2019.000000	98.860238
2018.000000	98.901818
2017.000000	98.925504
2016.000000	98.904319
2015.000000	98.855214
2014.000000	98.807183
2013.000000	98.774773
2012.000000	98.766993
2011.000000	98.791450
2010.000000	98.841254
2009.000000	98.900266
2008.000000	98.963786
2007.000000	99.028571
2006.000000	99.063431
2005.000000	99.031644
2004.000000	98.948000
2003.000000	98.871053
2002.000000	98.834334
2001.000000	98.818182
2000.000000	98.794288
1999.000000	98.763635
1998.000000	98.740734
1997.000000	98.730987
1996.000000	98.736154
1995.000000	98.757811
1994.000000	98.782171
1993.000000	98.783687
1992.000000	98.759250
1991.000000	98.737414
1990.000000	98.736301
1989.000000	98.739828
1988.000000	98.728996
1987.000000	98.710472
1986.000000	98.701325
1985.000000	98.707460
1984.000000	98.728322
1983.000000	98.760669
1982.000000	98.787706
1981.000000	98.787992
1980.000000	98.770492
1979.000000	98.773061
1978.000000	98.809839
1977.000000	98.847364
1976.000000	98.855497
1975.000000	98.849708
1974.000000	98.856533
1973.000000	98.875795
1972.000000	98.897006
1971.000000	98.919710
1970.000000	98.939774
1969.000000	98.943814
1968.000000	98.932470
1967.000000	98.924659
1966.000000	98.926156
1965.000000	98.922326
1964.000000	98.911659
1963.000000	98.913924
1962.000000	98.935482
1961.000000	98.955448
1960.000000	98.958107
1959.000000	98.952796
1958.000000	98.948813
1957.000000	98.937731
1956.000000	98.912899
1955.000000	98.883034
1954.000000	98.856671
1953.000000	98.835313
1952.000000	98.827006
1951.000000	98.846001
1950.000000	98.888084
1949.000000	98.925300
1948.000000	98.937444
1947.000000	98.929672
1946.000000	98.911769
1945.000000	98.882603
1944.000000	98.845853
1943.000000	98.820860
1942.000000	98.820153
1941.000000	98.831319
1940.000000	98.836988
1939.000000	98.834510
1938.000000	98.827398
1937.000000	98.816558
1936.000000	98.806339
1935.000000	98.804321
1934.000000	98.808365
1933.000000	98.807375
1932.000000	98.798087
1931.000000	98.790078
1930.000000	98.787203
1929.000000	98.779885
1928.000000	98.766303
1927.000000	98.758677
1926.000000	98.766779
1925.000000	98.785297
1924.000000	98.808047
1923.000000	98.839010
1922.000000	98.874580
1921.000000	98.895616
1920.000000	98.889693
1919.000000	98.867310
1918.000000	98.849216
1917.000000	98.841917
1916.000000	98.838378
1915.000000	98.834097
1914.000000	98.828206
1913.000000	98.819446
1912.000000	98.808422
1911.000000	98.799997
1910.000000	98.796083
1909.000000	98.791918
1908.000000	98.786402
1907.000000	98.784038
1906.000000	98.788586
1905.000000	98.797521
1904.000000	98.809075
1903.000000	98.826143
1902.000000	98.844529
1901.000000	98.853264
1900.000000	98.852663
1899.000000	98.855570
1898.000000	98.868342
1897.000000	98.880259
1896.000000	98.879681
1895.000000	98.871492
1894.000000	98.866349
1893.000000	98.864728
1892.000000	98.861236
1891.000000	98.855216
1890.000000	98.848922
1889.000000	98.842656
1888.000000	98.839448
1887.000000	98.845760
1886.000000	98.860516
1885.000000	98.872822
1884.000000	98.875061
1883.000000	98.871957
1882.000000	98.870075
1881.000000	98.868723
1880.000000	98.867697
1879.000000	98.870581
1878.000000	98.877614
1877.000000	98.882843
1876.000000	98.881831
1875.000000	98.879173
1874.000000	98.881959
1873.000000	98.890516
1872.000000	98.901806
1871.000000	98.915407
1870.000000	98.931050
1869.000000	98.944754
1868.000000	98.952995
1867.000000	98.955852
1866.000000	98.949833
1865.000000	98.929762
1864.000000	98.900409
1863.000000	98.875172
1862.000000	98.861246
1861.000000	98.855693
1860.000000	98.857862
1859.000000	98.872518
1858.000000	98.896525
1857.000000	98.915108
1856.000000	98.918291
1855.000000	98.910598
1854.000000	98.900398
1853.000000	98.889040
1852.000000	98.880673
1851.000000	98.880073
1850.000000	98.885741
1849.000000	98.894274
1848.000000	98.907421
1847.000000	98.928611
1846.000000	98.950437
1845.000000	98.958944
1844.000000	98.951410
1843.000000	98.942532
1842.000000	98.940358
1841.000000	98.933514
1840.000000	98.914139
1839.000000	98.890886
1838.000000	98.876301
1837.000000	98.869171
1836.000000	98.864250
1835.000000	98.867271
1834.000000	98.884211
1833.000000	98.908925
1832.000000	98.932327
1831.000000	98.951202
1830.000000	98.967080
1829.000000	98.976255
1828.000000	98.972584
1827.000000	98.957368
1826.000000	98.937279
1825.000000	98.921088
1824.000000	98.913825
1823.000000	98.913547
1822.000000	98.913069
1821.000000	98.907852
1820.000000	98.901877
1819.000000	98.901246
1818.000000	98.905839
1817.000000	98.908328
1816.000000	98.907116
1815.000000	98.910600
1814.000000	98.919682
1813.000000	98.924480
1812.000000	98.915913
1811.000000	98.899199
1810.000000	98.886631
1809.000000	98.877747
1808.000000	98.865456
1807.000000	98.850453
1806.000000	98.836913
1805.000000	98.822414
1804.000000	98.800812
1803.000000	98.772822
1802.000000	98.742191
1801.000000	98.714007
1800.000000	98.690294
1799.000000	98.670909
1798.000000	98.655890
1797.000000	98.645979
1796.000000	98.644147
1795.000000	98.652610
1794.000000	98.668873
1793.000000	98.693224
1792.000000	98.727339
1791.000000	98.766883
1790.000000	98.801707
1789.000000	98.822903
1788.000000	98.830302
1787.000000	98.832732
1786.000000	98.838460
1785.000000	98.847539
1784.000000	98.857759
1783.000000	98.871162
1782.000000	98.881681
1781.000000	98.885734
1780.000000	98.887228
1779.000000	98.892825
1778.000000	98.904654
1777.000000	98.918869
1776.000000	98.936499
1775.000000	98.956966
1774.000000	98.972880
1773.000000	98.979805
1772.000000	98.981411
1771.000000	98.977838
1770.000000	98.955747
1769.000000	98.900286
1768.000000	98.821944
1767.000000	98.758650
1766.000000	98.728278
1765.000000	98.705895
1764.000000	98.656220
1763.000000	98.570665
1762.000000	98.462729
1761.000000	98.346925
1760.000000	98.221607
1759.000000	98.073126
1758.000000	97.876838
1757.000000	97.618381
1756.000000	97.330825
1755.000000	97.061054
1754.000000	96.802444
1753.000000	96.503810
1752.000000	96.136059
1751.000000	95.732821
1750.000000	95.353921
1749.000000	95.005533
1748.000000	94.671075
1747.000000	94.365589
1746.000000	94.100611
1745.000000	93.867583
1744.000000	93.665874
1743.000000	93.516648
1742.000000	93.427891
1741.000000	93.377876
1740.000000	93.357882
1739.000000	93.391307
1738.000000	93.474881
1737.000000	93.568664
1736.000000	93.660108
1735.000000	93.810013
1734.000000	94.081041
1733.000000	94.397870
1732.000000	94.677232
1731.000000	94.937846
1730.000000	95.207280
1729.000000	95.482554
1728.000000	95.751276
1727.000000	96.009472
1726.000000	96.256278
1725.000000	96.493304
1724.000000	96.720873
1723.000000	96.940159
1722.000000	97.144313
1721.000000	97.317088
1720.000000	97.455343
1719.000000	97.582851
1718.000000	97.728991
1717.000000	97.873996
1716.000000	97.978903
1715.000000	98.047053
1714.000000	98.086021
1713.000000	98.092449
1712.000000	98.077864
1711.000000	98.065591
1710.000000	98.064311
1709.000000	98.066097
1708.000000	98.064850
1707.000000	98.054628
1706.000000	98.029303
1705.000000	97.991166
1704.000000	97.956428
1703.000000	97.925430
1702.000000	97.866698
1701.000000	97.754653
1700.000000	97.621496
1699.000000	97.534370
1698.000000	97.466383
1697.000000	97.333367
1696.000000	97.128389
1695.000000	96.947242
1694.000000	96.847492
1693.000000	96.782484
1692.000000	96.695285
1691.000000	96.582095
1690.000000	96.467817
1689.000000	96.367630
1688.000000	96.285947
1687.000000	96.211361
1686.000000	96.122982
1685.000000	95.998053
1684.000000	95.849608
1683.000000	95.733394
1682.000000	95.635834
1681.000000	95.510109
1680.000000	95.360633
1679.000000	95.230167
1678.000000	95.129403
1677.000000	95.021823
1676.000000	94.878629
1675.000000	94.725811
1674.000000	94.602950
1673.000000	94.504590
1672.000000	94.397134
1671.000000	94.266492
1670.000000	94.117014
1669.000000	93.951185
1668.000000	93.782950
1667.000000	93.634826
1666.000000	93.506785
1665.000000	93.376192
1664.000000	93.224977
1663.000000	93.064784
1662.000000	92.913071
1661.000000	92.766333
1660.000000	92.616731
1659.000000	92.471461
1658.000000	92.348869
1657.000000	92.255244
1656.000000	92.171411
1655.000000	92.066619
1654.000000	91.933431
1653.000000	91.791068
1652.000000	91.679051
1651.000000	91.632850
1650.000000	91.627841
1649.000000	91.601383
1648.000000	91.544432
1647.000000	91.499133
1646.000000	91.487911
1645.000000	91.478113
1644.000000	91.459900
1643.000000	91.449749
1642.000000	91.450798
1641.000000	91.462475
1640.000000	91.489704
1639.000000	91.531288
1638.000000	91.579922
1637.000000	91.630966
1636.000000	91.693614
1635.000000	91.754852
1634.000000	91.788502
1633.000000	91.798416
1632.000000	91.800883
1631.000000	91.815420
1630.000000	91.859052
1629.000000	91.935788
1628.000000	92.036449
1627.000000	92.147293
1626.000000	92.254651
1625.000000	92.358333
1624.000000	92.474025
1623.000000	92.613418
1622.000000	92.755110
1621.000000	92.871979
1620.000000	92.964102
1619.000000	93.045513
1618.000000	93.143771
1617.000000	93.288440
1616.000000	93.466156
1615.000000	93.625461
1614.000000	93.742171
1613.000000	93.825866
1612.000000	93.903919
1611.000000	94.002597
1610.000000	94.120255
1609.000000	94.237749
1608.000000	94.345877
1607.000000	94.447130
1606.000000	94.537530
1605.000000	94.614782
1604.000000	94.685625
1603.000000	94.753387
1602.000000	94.813410
1601.000000	94.861915
1600.000000	94.903709
1599.000000	94.944214
1598.000000	94.981850
1597.000000	95.014893
1596.000000	95.046895
1595.000000	95.079820
1594.000000	95.106847
1593.000000	95.121218
1592.000000	95.126275
1591.000000	95.128971
1590.000000	95.129219
1589.000000	95.123274
1588.000000	95.111435
1587.000000	95.095403
1586.000000	95.074096
1585.000000	95.046025
1584.000000	95.017512
1583.000000	94.988208
1582.000000	94.952239
1581.000000	94.914915
1580.000000	94.887885
1579.000000	94.864288
1578.000000	94.823527
1577.000000	94.761241
1576.000000	94.699809
1575.000000	94.661323
1574.000000	94.638472
1573.000000	94.611882
1572.000000	94.570403
1571.000000	94.517527
1570.000000	94.458163
1569.000000	94.390190
1568.000000	94.319503
1567.000000	94.246665
1566.000000	94.163375
1565.000000	94.068724
1564.000000	93.983796
1563.000000	93.920427
1562.000000	93.865126
1561.000000	93.802459
1560.000000	93.731066
1559.000000	93.637535
1558.000000	93.515463
1557.000000	93.369391
1556.000000	93.212247
1555.000000	93.043241
1554.000000	92.872812
1553.000000	92.724977
1552.000000	92.602764
1551.000000	92.486068
1550.000000	92.368914
1549.000000	92.259004
1548.000000	92.163096
1547.000000	92.075633
1546.000000	91.990838
1545.000000	91.917799
1544.000000	91.873938
1543.000000	91.859083
1542.000000	91.851849
1541.000000	91.825586
1540.000000	91.777442
1539.000000	91.721854
1538.000000	91.672312
1537.000000	91.641474
1536.000000	91.618846
1535.000000	91.602364
1534.000000	91.609478
1533.000000	91.642062
1532.000000	91.666997
1531.000000	91.669030
1530.000000	91.663075
1529.000000	91.662612
1528.000000	91.674738
1527.000000	91.704827
1526.000000	91.747557
1525.000000	91.787575
1524.000000	91.811532
1523.000000	91.817664
1522.000000	91.819412
1521.000000	91.826862
1520.000000	91.837339
1519.000000	91.846556
1518.000000	91.842464
1517.000000	91.821727
1516.000000	91.801020
1515.000000	91.794405
1514.000000	91.795532
1513.000000	91.799865
1512.000000	91.819676
1511.000000	91.871104
1510.000000	91.943983
1509.000000	92.011681
1508.000000	92.069213
1507.000000	92.144746
1506.000000	92.211957
1505.000000	92.217416
1504.000000	92.200121
1503.000000	92.190619
1502.000000	92.184998
1501.000000	92.182947
1500.000000	92.192142
1499.000000	92.212996
1498.000000	92.230108
1497.000000	92.225154
1496.000000	92.202147
1495.000000	92.189839
1494.000000	92.194362
1493.000000	92.193894
1492.000000	92.177360
1491.000000	92.160936
1490.000000	92.155815
1489.000000	92.139755
1488.000000	92.090933
1487.000000	92.018892
1486.000000	91.935270
1485.000000	91.838056
1484.000000	91.735073
1483.000000	91.633597
1482.000000	91.530366
1481.000000	91.417347
1480.000000	91.297664
1479.000000	91.178867
1478.000000	91.054850
1477.000000	90.915321
1476.000000	90.765151
1475.000000	90.617177
1474.000000	90.452297
1473.000000	90.236129
1472.000000	89.982451
1471.000000	89.745205
1470.000000	89.536768
1469.000000	89.338818
1468.000000	89.149315
1467.000000	88.982366
1466.000000	88.837078
1465.000000	88.699917
1464.000000	88.573332
1463.000000	88.467399
1462.000000	88.379160
1461.000000	88.295351
1460.000000	88.208301
1459.000000	88.107682
1458.000000	87.966474
1457.000000	87.767340
1456.000000	87.572689
1455.000000	87.446024
1454.000000	87.358056
1453.000000	87.263897
1452.000000	87.166174
1451.000000	87.089425
1450.000000	87.031360
1449.000000	86.969516
1448.000000	86.901070
1447.000000	86.843695
1446.000000	86.791579
1445.000000	86.730307
1444.000000	86.660915
1443.000000	86.591667
1442.000000	86.524625
1441.000000	86.455970
1440.000000	86.386190
1439.000000	86.310837
1438.000000	86.216849
1437.000000	86.097199
1436.000000	85.981453
1435.000000	85.904686
1434.000000	85.854086
1433.000000	85.801726
1432.000000	85.746083
1431.000000	85.695721
1430.000000	85.636121
1429.000000	85.543605
1428.000000	85.426268
1427.000000	85.314280
1426.000000	85.215080
1425.000000	85.128122
1424.000000	85.068998
1423.000000	85.044099
1422.000000	85.026115
1421.000000	84.987107
1420.000000	84.938891
1419.000000	84.914532
1418.000000	84.912257
1417.000000	84.905713
1416.000000	84.897271
1415.000000	84.904855
1414.000000	84.932142
1413.000000	84.973835
1412.000000	85.033586
1411.000000	85.117296
1410.000000	85.216309
1409.000000	85.317258
1408.000000	85.421613
1407.000000	85.539899
1406.000000	85.668947
1405.000000	85.798147
1404.000000	85.922968
1403.000000	86.037208
1402.000000	86.131198
1401.000000	86.206225
1400.000000	86.282819
1399.000000	86.376330
1398.000000	86.470764
1397.000000	86.546073
1396.000000	86.613118
1395.000000	86.695274
1394.000000	86.788546
1393.000000	86.876173
1392.000000	86.960498
1391.000000	87.051188
1390.000000	87.148026
1389.000000	87.250172
1388.000000	87.366720
1387.000000	87.501661
1386.000000	87.635933
1385.000000	87.751717
1384.000000	87.855757
1383.000000	87.962991
1382.000000	88.078490
1381.000000	88.199088
1380.000000	88.327709
1379.000000	88.470315
1378.000000	88.623525
1377.000000	88.780980
1376.000000	88.947320
1375.000000	89.129971
1374.000000	89.316407
1373.000000	89.481523
1372.000000	89.617925
1371.000000	89.737679
1370.000000	89.850831
1369.000000	89.963208
1368.000000	90.078593
1367.000000	90.193984
1366.000000	90.302255
1365.000000	90.402699
1364.000000	90.502699
1363.000000	90.604664
1362.000000	90.697441
1361.000000	90.770815
1360.000000	90.829067
1359.000000	90.880464
1358.000000	90.927568
1357.000000	90.972888
1356.000000	91.022443
1355.000000	91.079120
1354.000000	91.138944
1353.000000	91.197738
1352.000000	91.254988
1351.000000	91.311310
1350.000000	91.363303
1349.000000	91.408945
1348.000000	91.448010
1347.000000	91.476420
1346.000000	91.487697
1345.000000	91.482374
1344.000000	91.469220
1343.000000	91.453567
1342.000000	91.431112
1341.000000	91.395995
1340.000000	91.349839
1339.000000	91.299460
1338.000000	91.250368
1337.000000	91.208345
1336.000000	91.181920
1335.000000	91.177354
1334.000000	91.194366
1333.000000	91.230002
1332.000000	91.282247
1331.000000	91.347287
1330.000000	91.417908
1329.000000	91.489379
1328.000000	91.562677
1327.000000	91.638525
1326.000000	91.712114
1325.000000	91.778613
1324.000000	91.838311
1323.000000	91.893430
1322.000000	91.944344
1321.000000	91.991459
1320.000000	92.037470
1319.000000	92.085413
1318.000000	92.136966
1317.000000	92.193522
1316.000000	92.255885
1315.000000	92.321980
1314.000000	92.388303
1313.000000	92.454083
1312.000000	92.520384
1311.000000	92.585918
1310.000000	92.648231
1309.000000	92.708884
1308.000000	92.772027
1307.000000	92.838543
1306.000000	92.905251
1305.000000	92.970747
1304.000000	93.036280
1303.000000	93.101508
1302.000000	93.164798
1301.000000	93.227520
1300.000000	93.292942
1299.000000	93.360575
1298.000000	93.426588
1297.000000	93.488986
1296.000000	93.547425
1295.000000	93.597997
1294.000000	93.634993
1293.000000	93.658457
1292.000000	93.674831
1291.000000	93.689646
1290.000000	93.703011
1289.000000	93.712965
1288.000000	93.719035
1287.000000	93.722082
1286.000000	93.724323
1285.000000	93.729303
1284.000000	93.738721
1283.000000	93.749618
1282.000000	93.757636
1281.000000	93.761838
1280.000000	93.762597
1279.000000	93.756572
1278.000000	93.739126
1277.000000	93.710399
1276.000000	93.674102
1275.000000	93.629654
1274.000000	93.571437
1273.000000	93.496400
1272.000000	93.407095
1271.000000	93.306463
1270.000000	93.193303
1269.000000	93.066163
1268.000000	92.928116
1267.000000	92.783800
1266.000000	92.634494
1265.000000	92.478800
1264.000000	92.317620
1263.000000	92.155644
1262.000000	91.998086
1261.000000	91.848243
1260.000000	91.708020
1259.000000	91.577906
1258.000000	91.457011
1257.000000	91.346986
1256.000000	91.254692
1255.000000	91.187990
1254.000000	91.148057
1253.000000	91.127362
1252.000000	91.115290
1251.000000	91.102210
1250.000000	91.080773
1249.000000	91.048064
1248.000000	91.006932
1247.000000	90.962766
1246.000000	90.918707
1245.000000	90.875555
1244.000000	90.834997
1243.000000	90.800313
1242.000000	90.774711
1241.000000	90.760850
1240.000000	90.760886
1239.000000	90.775343
1238.000000	90.803173
1237.000000	90.846122
1236.000000	90.909120
1235.000000	90.993101
1234.000000	91.090698
1233.000000	91.192294
1232.000000	91.295404
1231.000000	91.404616
1230.000000	91.525823
1229.000000	91.664468
1228.000000	91.824622
1227.000000	92.005644
1226.000000	92.200408
1225.000000	92.399716
1224.000000	92.596806
1223.000000	92.785956
1222.000000	92.961368
1221.000000	93.120093
1220.000000	93.263081
1219.000000	93.390963
1218.000000	93.502942
1217.000000	93.600150
1216.000000	93.685770
1215.000000	93.760674
1214.000000	93.821948
1213.000000	93.869043
1212.000000	93.906613
1211.000000	93.938555
1210.000000	93.962568
1209.000000	93.972561
1208.000000	93.965821
1207.000000	93.945614
1206.000000	93.918591
1205.000000	93.891452
1204.000000	93.867916
1203.000000	93.847418
1202.000000	93.827198
1201.000000	93.806672
1200.000000	93.788613
1199.000000	93.774951
1198.000000	93.763390
1197.000000	93.749807
1196.000000	93.732473
1195.000000	93.712269
1194.000000	93.689984
1193.000000	93.665389
1192.000000	93.638284
1191.000000	93.608718
1190.000000	93.576626
1189.000000	93.541827
1188.000000	93.503738
1187.000000	93.460444
1186.000000	93.408953
1185.000000	93.347797
1184.000000	93.277874
1183.000000	93.199972
1182.000000	93.113119
1181.000000	93.016564
1180.000000	92.912837
1179.000000	92.806131
1178.000000	92.698323
1177.000000	92.588959
1176.000000	92.478464
1175.000000	92.369064
1174.000000	92.262475
1173.000000	92.159287
1172.000000	92.060479
1171.000000	91.967083
1170.000000	91.878129
1169.000000	91.792090
1168.000000	91.710985
1167.000000	91.639485
1166.000000	91.580024
1165.000000	91.531495
1164.000000	91.493934
1163.000000	91.471741
1162.000000	91.469956
1161.000000	91.491116
1160.000000	91.535514
1159.000000	91.601986
1158.000000	91.688707
1157.000000	91.794079
1156.000000	91.918403
1155.000000	92.061925
1154.000000	92.222676
1153.000000	92.399244
1152.000000	92.591992
1151.000000	92.799389
1150.000000	93.014574
1149.000000	93.229611
1148.000000	93.442456
1147.000000	93.656175
1146.000000	93.872890
1145.000000	94.090388
1144.000000	94.303561
1143.000000	94.506842
1142.000000	94.696967
1141.000000	94.874299
1140.000000	95.040389
1139.000000	95.194657
1138.000000	95.334187
1137.000000	95.457424
1136.000000	95.564879
1135.000000	95.656060
1134.000000	95.729459
1133.000000	95.785533
1132.000000	95.828796
1131.000000	95.864390
1130.000000	95.892700
1129.000000	95.909656
1128.000000	95.912354
1127.000000	95.904632
1126.000000	95.894672
1125.000000	95.886076
1124.000000	95.874165
1123.000000	95.852281
1122.000000	95.820027
1121.000000	95.781693
1120.000000	95.737347
1119.000000	95.680550
1118.000000	95.604124
1117.000000	95.504833
1116.000000	95.381840
1115.000000	95.234913
1114.000000	95.068153
1113.000000	94.892955
1112.000000	94.725693
1111.000000	94.581888
1110.000000	94.471629
1109.000000	94.397479
1108.000000	94.355308
1107.000000	94.337218
1106.000000	94.334815
1105.000000	94.342764
1104.000000	94.358037
1103.000000	94.376351
1102.000000	94.389454
1101.000000	94.387208
1100.000000	94.363427
1099.000000	94.319671
1098.000000	94.263666
1097.000000	94.203117
1096.000000	94.142422
1095.000000	94.085226
1094.000000	94.037817
1093.000000	94.007177
1092.000000	93.996965
1091.000000	94.007191
1090.000000	94.038461
1089.000000	94.092657
1088.000000	94.168284
1087.000000	94.258445
1086.000000	94.355593
1085.000000	94.458104
1084.000000	94.568050
1083.000000	94.683765
1082.000000	94.798589
1081.000000	94.906737
1080.000000	95.007372
1079.000000	95.102351
1078.000000	95.193057
1077.000000	95.279989
1076.000000	95.363546
1075.000000	95.443847
1074.000000	95.519919
1073.000000	95.588485
1072.000000	95.643310
1071.000000	95.679294
1070.000000	95.698016
1069.000000	95.706792
1068.000000	95.711479
1067.000000	95.712817
1066.000000	95.710999
1065.000000	95.709007
1064.000000	95.709079
1063.000000	95.709773
1062.000000	95.709111
1061.000000	95.707708
1060.000000	95.706255
1059.000000	95.703850
1058.000000	95.702000
1057.000000	95.706782
1056.000000	95.722829
1055.000000	95.747780
1054.000000	95.776539
1053.000000	95.807909
1052.000000	95.842786
1051.000000	95.878325
1050.000000	95.910126
1049.000000	95.938851
1048.000000	95.968621
1047.000000	95.999169
1046.000000	96.024421
1045.000000	96.038816
1044.000000	96.040983
1043.000000	96.032680
1042.000000	96.017302
1041.000000	95.998319
1040.000000	95.975609
1039.000000	95.943652
1038.000000	95.897087
1037.000000	95.837113
1036.000000	95.770448
1035.000000	95.703638
1034.000000	95.640874
1033.000000	95.585079
1032.000000	95.537271
1031.000000	95.496365
1030.000000	95.463074
1029.000000	95.443052
1028.000000	95.441183
1027.000000	95.453507
1026.000000	95.469833
1025.000000	95.484328
1024.000000	95.499514
1023.000000	95.519493
1022.000000	95.544951
1021.000000	95.575812
1020.000000	95.612767
1019.000000	95.653873
1018.000000	95.694014
1017.000000	95.730915
1016.000000	95.768416
1015.000000	95.811477
1014.000000	95.861221
1013.000000	95.916350
1012.000000	95.976277
1011.000000	96.040760
1010.000000	96.109000
1009.000000	96.180794
1008.000000	96.255709
1007.000000	96.330277
1006.000000	96.399418
1005.000000	96.461631
1004.000000	96.519428
1003.000000	96.573605
1002.000000	96.621274
1001.000000	96.660815
1000.000000	96.694924
999.000000	96.726216
998.000000	96.753499
997.000000	96.775496
996.000000	96.794842
995.000000	96.814984
994.000000	96.834582
993.000000	96.849001
992.000000	96.857083
991.000000	96.863086
990.000000	96.871392
989.000000	96.880980
988.000000	96.886383
987.000000	96.883528
986.000000	96.873898
985.000000	96.863105
984.000000	96.855262
983.000000	96.849097
982.000000	96.840047
981.000000	96.825314
980.000000	96.805872
979.000000	96.783616
978.000000	96.758438
977.000000	96.729078
976.000000	96.695460
975.000000	96.659152
974.000000	96.622026
973.000000	96.585519
972.000000	96.551096
971.000000	96.520902
970.000000	96.497962
969.000000	96.485450
968.000000	96.484856
967.000000	96.494000
966.000000	96.508408
965.000000	96.525753
964.000000	96.547594
963.000000	96.576094
962.000000	96.610444
961.000000	96.648785
960.000000	96.691873
959.000000	96.741551
958.000000	96.796630
957.000000	96.853599
956.000000	96.912451
955.000000	96.978236
954.000000	97.054509
953.000000	97.137412
952.000000	97.218280
951.000000	97.291248
950.000000	97.356121
949.000000	97.414867
948.000000	97.468585
947.000000	97.518709
946.000000	97.568107
945.000000	97.618096
944.000000	97.665931
943.000000	97.707345
942.000000	97.741446
941.000000	97.771057
940.000000	97.798674
939.000000	97.824380
938.000000	97.847425
937.000000	97.868372
936.000000	97.889752
935.000000	97.915672
934.000000	97.949574
933.000000	97.990309
932.000000	98.031517
931.000000	98.067307
930.000000	98.097344
929.000000	98.124081
928.000000	98.146883
927.000000	98.163536
926.000000	98.177061
925.000000	98.195566
924.000000	98.223968
923.000000	98.259526
922.000000	98.296916
921.000000	98.333525
920.000000	98.367905
919.000000	98.397564
918.000000	98.422323
917.000000	98.447264
916.000000	98.478310
915.000000	98.515610
914.000000	98.553330
913.000000	98.585426
912.000000	98.610403
911.000000	98.631622
910.000000	98.654401
909.000000	98.681751
908.000000	98.712260
907.000000	98.742891
906.000000	98.773124
905.000000	98.803895
904.000000	98.832906
903.000000	98.854635
902.000000	98.866328
901.000000	98.871608
900.000000	98.877680
899.000000	98.890748
898.000000	98.913469
897.000000	98.942500
896.000000	98.968668
895.000000	98.983802
894.000000	98.988695
893.000000	98.990575
892.000000	98.991614
891.000000	98.982998
890.000000	98.946498
889.000000	98.853445
888.000000	98.664425
887.000000	98.343899
886.000000	97.891109
885.000000	97.353632
884.000000	96.800153
883.000000	96.274760
882.000000	95.769295
881.000000	95.236723
880.000000	94.632530
879.000000	93.953495
878.000000	93.245512
877.000000	92.583146
876.000000	92.041812
875.000000	91.682367
874.000000	91.550550
873.000000	91.674419
872.000000	92.057281
871.000000	92.661328
870.000000	93.403720
869.000000	94.182298
868.000000	94.910640
867.000000	95.539843
866.000000	96.057789
865.000000	96.476587
864.000000	96.816387
863.000000	97.095805
862.000000	97.329323
861.000000	97.527167
860.000000	97.694683
859.000000	97.834084
858.000000	97.950684
857.000000	98.052221
856.000000	98.140862
855.000000	98.212240
854.000000	98.265417
853.000000	98.306446
852.000000	98.334209
851.000000	98.332236
850.000000	98.289748
849.000000	98.229466
848.000000	98.200304
847.000000	98.235179
846.000000	98.322178
845.000000	98.421368
844.000000	98.501674
843.000000	98.556863
842.000000	98.594824
841.000000	98.622961
840.000000	98.644458
839.000000	98.660696
838.000000	98.672640
837.000000	98.680308
836.000000	98.682097
835.000000	98.675995
834.000000	98.663083
833.000000	98.649986
832.000000	98.645540
831.000000	98.654223
830.000000	98.674245
829.000000	98.701972
828.000000	98.735320
827.000000	98.771645
826.000000	98.805758
825.000000	98.832637
824.000000	98.850557
823.000000	98.860580
822.000000	98.865799
821.000000	98.871704
820.000000	98.883206
819.000000	98.899019
818.000000	98.912318
817.000000	98.919491
816.000000	98.925062
815.000000	98.935025
814.000000	98.948387
813.000000	98.959594
812.000000	98.967162
811.000000	98.974023
810.000000	98.979597
809.000000	98.977081
808.000000	98.961429
807.000000	98.936762
806.000000	98.912562
805.000000	98.893868
804.000000	98.877702
803.000000	98.859176
802.000000	98.838728
801.000000	98.821708
800.000000	98.811009
799.000000	98.801741
798.000000	98.785570
797.000000	98.760662
796.000000	98.734563
795.000000	98.715248
794.000000	98.701655
793.000000	98.686524
792.000000	98.667123
791.000000	98.648437
790.000000	98.635042
789.000000	98.623950
788.000000	98.607864
787.000000	98.583332
786.000000	98.554374
785.000000	98.529915
784.000000	98.518224
783.000000	98.520894
782.000000	98.530029
781.000000	98.533228
780.000000	98.523615
779.000000	98.504170
778.000000	98.482140
777.000000	98.461622
776.000000	98.442742
775.000000	98.424860
774.000000	98.407684
773.000000	98.390824
772.000000	98.374676
771.000000	98.360249
770.000000	98.346331
769.000000	98.329301
768.000000	98.308369
767.000000	98.288098
766.000000	98.271902
765.000000	98.255593
764.000000	98.232502
763.000000	98.204042
762.000000	98.179013
761.000000	98.160891
760.000000	98.141088
759.000000	98.108370
758.000000	98.062118
757.000000	98.012569
756.000000	97.969631
755.000000	97.935760
754.000000	97.909974
753.000000	97.894084
752.000000	97.890490
751.000000	97.894773
750.000000	97.895789
749.000000	97.887033
748.000000	97.875351
747.000000	97.872952
746.000000	97.881106
745.000000	97.886782
744.000000	97.877413
743.000000	97.854400
742.000000	97.829038
741.000000	97.809309
740.000000	97.794666
739.000000	97.779992
738.000000	97.758757
737.000000	97.724547
736.000000	97.676053
735.000000	97.621254
734.000000	97.571541
733.000000	97.530283
732.000000	97.490942
731.000000	97.447089
730.000000	97.400190
729.000000	97.355684
728.000000	97.317470
727.000000	97.287656
726.000000	97.265352
725.000000	97.244841
724.000000	97.218719
723.000000	97.183450
722.000000	97.137470
721.000000	97.073390
720.000000	96.978170
719.000000	96.841355
718.000000	96.652287
717.000000	96.385378
716.000000	96.006525
715.000000	95.519041
714.000000	95.009121
713.000000	94.625623
712.000000	94.488906
711.000000	94.605429
710.000000	94.871279
709.000000	95.155095
708.000000	95.376710
707.000000	95.523085
706.000000	95.612461
705.000000	95.662374
704.000000	95.685365
703.000000	95.692443
702.000000	95.691089
701.000000	95.683663
700.000000	95.670282
699.000000	95.652850
698.000000	95.633280
697.000000	95.612283
696.000000	95.592031
695.000000	95.574702
694.000000	95.560799
693.000000	95.550740
692.000000	95.546599
691.000000	95.550715
690.000000	95.559588
689.000000	95.564624
688.000000	95.561121
687.000000	95.552304
686.000000	95.543941
685.000000	95.536164
684.000000	95.522686
683.000000	95.499724
682.000000	95.473330
681.000000	95.455711
680.000000	95.453679
679.000000	95.462988
678.000000	95.474447
677.000000	95.481082
676.000000	95.484830
675.000000	95.492677
674.000000	95.514426
673.000000	95.556811
672.000000	95.612929
671.000000	95.663713
670.000000	95.699128
669.000000	95.723609
668.000000	95.725007
667.000000	95.737453
666.000000	95.809143
665.000000	95.874281
664.000000	95.899303
663.000000	95.904937
662.000000	95.915806
661.000000	95.934062
660.000000	95.953216
659.000000	95.973874
658.000000	95.992437
657.000000	95.991586
656.000000	95.963613
655.000000	95.920771
654.000000	95.875799
653.000000	95.826795
652.000000	95.771008
651.000000	95.714336
650.000000	95.658439
649.000000	95.593971
648.000000	95.520233
647.000000	95.452007
646.000000	95.393256
645.000000	95.325973
644.000000	95.238546
643.000000	95.145609
642.000000	95.066428
641.000000	94.997206
640.000000	94.923400
639.000000	94.847809
638.000000	94.785057
637.000000	94.739934
636.000000	94.710163
635.000000	94.700582
634.000000	94.717880
633.000000	94.756526
632.000000	94.800990
631.000000	94.836139
630.000000	94.849607
629.000000	94.835412
628.000000	94.804120
627.000000	94.778953
626.000000	94.770436
625.000000	94.765170
624.000000	94.746471
623.000000	94.714106
622.000000	94.676872
621.000000	94.639231
620.000000	94.605430
619.000000	94.583367
618.000000	94.571664
617.000000	94.552728
616.000000	94.511906
615.000000	94.455057
614.000000	94.396833
613.000000	94.344351
612.000000	94.302866
611.000000	94.285057
610.000000	94.299787
609.000000	94.338896
608.000000	94.386703
607.000000	94.436322
606.000000	94.487800
605.000000	94.544107
604.000000	94.618030
603.000000	94.730351
602.000000	94.888520
601.000000	95.071986
600.000000	95.247904
599.000000	95.396007
598.000000	95.514443
597.000000	95.610232
596.000000	95.693572
595.000000	95.775142
594.000000	95.857449
593.000000	95.930708
592.000000	95.984409
591.000000	96.021530
590.000000	96.055431
589.000000	96.094793
588.000000	96.137311
587.000000	96.174396
586.000000	96.198153
585.000000	96.208103
584.000000	96.213278
583.000000	96.221227
582.000000	96.224427
581.000000	96.209309
580.000000	96.183156
579.000000	96.177072
578.000000	96.210764
577.000000	96.267779
576.000000	96.316894
575.000000	96.347714
574.000000	96.372532
573.000000	96.399300
572.000000	96.422045
571.000000	96.434790
570.000000	96.440745
569.000000	96.446338
568.000000	96.454759
567.000000	96.466567
566.000000	96.479567
565.000000	96.488563
564.000000	96.490262
563.000000	96.486449
562.000000	96.480024
561.000000	96.473458
560.000000	96.472987
559.000000	96.485607
558.000000	96.507152
557.000000	96.524288
556.000000	96.534965
555.000000	96.552981
554.000000	96.582796
553.000000	96.604664
552.000000	96.598263
551.000000	96.569737
550.000000	96.542677
549.000000	96.530573
548.000000	96.533693
547.000000	96.553705
546.000000	96.591636
545.000000	96.635315
544.000000	96.667965
543.000000	96.687723
542.000000	96.704739
541.000000	96.721616
540.000000	96.728615
539.000000	96.717701
538.000000	96.692902
537.000000	96.667532
536.000000	96.655455
535.000000	96.661169
534.000000	96.673265
533.000000	96.671447
532.000000	96.643780
531.000000	96.593477
530.000000	96.532753
529.000000	96.481169
528.000000	96.468727
527.000000	96.518987
526.000000	96.611428
525.000000	96.682637
524.000000	96.691926
523.000000	96.658319
522.000000	96.621241
521.000000	96.598431
520.000000	96.590362
519.000000	96.599454
518.000000	96.627751
517.000000	96.669944
516.000000	96.724011
515.000000	96.790946
514.000000	96.855316
513.000000	96.889736
512.000000	96.891264
511.000000	96.891806
510.000000	96.917963
509.000000	96.961873
508.000000	97.006839
507.000000	97.051486
506.000000	97.084091
505.000000	97.071751
504.000000	97.008941
503.000000	96.951841
502.000000	96.966204
501.000000	97.042940
500.000000	97.119909
499.000000	97.172090
498.000000	97.216499
497.000000	97.253655
496.000000	97.261459
495.000000	97.242778
494.000000	97.232341
493.000000	97.244606
492.000000	97.254436
491.000000	97.246914
490.000000	97.246015
489.000000	97.272325
488.000000	97.307647
487.000000	97.322674
486.000000	97.317818
485.000000	97.321458
484.000000	97.357415
483.000000	97.424636
482.000000	97.500108
481.000000	97.555632
480.000000	97.579754
479.000000	97.585303
478.000000	97.590294
477.000000	97.596331
476.000000	97.599699
475.000000	97.616843
474.000000	97.676704
473.000000	97.782945
472.000000	97.898031
471.000000	97.981603
470.000000	98.026048
469.000000	98.039610
468.000000	98.031897
467.000000	98.022639
466.000000	98.031009
465.000000	98.049079
464.000000	98.051620
463.000000	98.037915
462.000000	98.045994
461.000000	98.112735
460.000000	98.242975
459.000000	98.417381
458.000000	98.593491
457.000000	98.720461
456.000000	98.754807
455.000000	98.841295
454.000000	98.930257
453.000000	98.988762
452.000000	98.985314
451.000000	98.943145
450.000000	98.914691
