PE UV       SUBTECH     SPECTRUM    ASCII       PEDS        4.00        
   -1
RTgVeauUK 52.Sample.asc
18/03/09
15:25:11.00
18/03/09
15:25:11.00
Administrator

200.000000
1
Lambda 750
750N8071901
PerkinElmer UV WinLab 6.0.4.0738 / 1.61.00 Lambda 900

0
0
3350/servo 860.8/2
0
0
UV/VIS
1
1
1
CommonBeamDepol,150mm sphere / downward view
0
0
0
0
Program
Program
3350/servo 860.8/2
3350/0.2 860.8/0.2
3350/0.2 860.8/0.2
0
1
 
 
 
0
 
860.8
319.2
860.8
Front
100
on
 
 
0
0
0
 
0
 
 
 
0
 
 
0
0
0
0
0
 
 
 
 
0
0


0
0
#HDR
-1
-1
#GR
nm
%R
1.0
0.0
2350.000000
-1.000000
2151
8
56.324221
11.489010
#DATA
2350.000000	22.491279
2349.000000	22.482603
2348.000000	22.398183
2347.000000	22.962739
2346.000000	22.764545
2345.000000	22.855744
2344.000000	22.794873
2343.000000	22.623787
2342.000000	22.497549
2341.000000	22.989275
2340.000000	22.780396
2339.000000	23.301947
2338.000000	23.026081
2337.000000	23.123858
2336.000000	23.372047
2335.000000	23.389417
2334.000000	23.208229
2333.000000	23.301333
2332.000000	23.465344
2331.000000	23.387655
2330.000000	23.478094
2329.000000	23.210191
2328.000000	23.196422
2327.000000	23.160075
2326.000000	23.365246
2325.000000	23.271778
2324.000000	23.192485
2323.000000	23.109480
2322.000000	23.000222
2321.000000	23.020285
2320.000000	22.958744
2319.000000	22.998786
2318.000000	23.004773
2317.000000	23.025112
2316.000000	23.021502
2315.000000	22.831042
2314.000000	23.075407
2313.000000	22.998139
2312.000000	22.655255
2311.000000	22.660853
2310.000000	22.645709
2309.000000	22.798931
2308.000000	22.521567
2307.000000	22.544623
2306.000000	22.657234
2305.000000	22.610103
2304.000000	22.745671
2303.000000	22.622259
2302.000000	22.588068
2301.000000	22.329095
2300.000000	22.159015
2299.000000	22.170425
2298.000000	22.016668
2297.000000	21.854487
2296.000000	21.976197
2295.000000	22.178412
2294.000000	22.150480
2293.000000	21.720657
2292.000000	21.788834
2291.000000	21.764878
2290.000000	21.757219
2289.000000	21.611161
2288.000000	21.716879
2287.000000	21.624728
2286.000000	21.650880
2285.000000	21.616707
2284.000000	21.491687
2283.000000	21.323645
2282.000000	21.457388
2281.000000	21.555439
2280.000000	21.568974
2279.000000	21.556052
2278.000000	21.549601
2277.000000	21.591439
2276.000000	21.584613
2275.000000	21.569675
2274.000000	21.592147
2273.000000	21.638480
2272.000000	21.692305
2271.000000	21.656561
2270.000000	21.598167
2269.000000	21.610291
2268.000000	21.681538
2267.000000	21.815117
2266.000000	22.026470
2265.000000	21.996084
2264.000000	21.986010
2263.000000	22.008824
2262.000000	22.129548
2261.000000	22.248886
2260.000000	22.479593
2259.000000	22.617166
2258.000000	22.592357
2257.000000	22.563097
2256.000000	22.610193
2255.000000	22.697615
2254.000000	22.945007
2253.000000	23.196260
2252.000000	23.308568
2251.000000	23.341955
2250.000000	23.574763
2249.000000	23.732688
2248.000000	23.667491
2247.000000	23.851776
2246.000000	24.057769
2245.000000	24.176274
2244.000000	24.296071
2243.000000	24.419865
2242.000000	24.605892
2241.000000	24.694510
2240.000000	24.716425
2239.000000	24.830773
2238.000000	24.822683
2237.000000	24.831608
2236.000000	24.936135
2235.000000	25.026240
2234.000000	25.118804
2233.000000	25.143342
2232.000000	25.248760
2231.000000	25.228177
2230.000000	25.231828
2229.000000	25.377745
2228.000000	25.498397
2227.000000	25.434289
2226.000000	25.360460
2225.000000	25.406556
2224.000000	25.326926
2223.000000	25.208164
2222.000000	25.314221
2221.000000	25.285972
2220.000000	25.280311
2219.000000	25.248461
2218.000000	25.261372
2217.000000	25.338876
2216.000000	25.305848
2215.000000	25.190046
2214.000000	25.144610
2213.000000	25.236098
2212.000000	25.252813
2211.000000	25.080157
2210.000000	24.965721
2209.000000	24.884833
2208.000000	25.015802
2207.000000	24.965662
2206.000000	24.825050
2205.000000	24.827310
2204.000000	24.809197
2203.000000	24.725011
2202.000000	24.648251
2201.000000	24.634205
2200.000000	24.773608
2199.000000	24.719192
2198.000000	24.702221
2197.000000	24.613699
2196.000000	24.449186
2195.000000	24.230692
2194.000000	24.197570
2193.000000	24.195209
2192.000000	24.272915
2191.000000	24.125292
2190.000000	24.179600
2189.000000	24.071722
2188.000000	24.119279
2187.000000	24.096015
2186.000000	24.068684
2185.000000	24.008428
2184.000000	24.036089
2183.000000	24.001322
2182.000000	23.969520
2181.000000	23.981585
2180.000000	23.883698
2179.000000	23.884221
2178.000000	23.788822
2177.000000	23.961084
2176.000000	24.005894
2175.000000	24.047911
2174.000000	23.982320
2173.000000	24.062808
2172.000000	23.981491
2171.000000	24.043261
2170.000000	24.329647
2169.000000	24.469615
2168.000000	24.351975
2167.000000	24.283683
2166.000000	24.413921
2165.000000	24.366766
2164.000000	24.378767
2163.000000	24.427965
2162.000000	24.580516
2161.000000	24.627933
2160.000000	24.816551
2159.000000	24.917622
2158.000000	24.954713
2157.000000	24.774870
2156.000000	25.024180
2155.000000	25.225765
2154.000000	25.306667
2153.000000	25.463599
2152.000000	25.513259
2151.000000	25.702282
2150.000000	25.766832
2149.000000	25.841804
2148.000000	25.863982
2147.000000	25.901020
2146.000000	25.935900
2145.000000	26.159773
2144.000000	26.291234
2143.000000	26.283214
2142.000000	26.233575
2141.000000	26.403121
2140.000000	26.713795
2139.000000	26.853361
2138.000000	26.733032
2137.000000	26.858022
2136.000000	26.905271
2135.000000	27.031185
2134.000000	27.118438
2133.000000	27.006326
2132.000000	27.264726
2131.000000	27.354859
2130.000000	27.460767
2129.000000	27.565496
2128.000000	27.331668
2127.000000	27.443614
2126.000000	27.418082
2125.000000	27.523553
2124.000000	27.681148
2123.000000	27.447249
2122.000000	27.679234
2121.000000	27.688104
2120.000000	27.536310
2119.000000	27.786185
2118.000000	27.795112
2117.000000	27.884830
2116.000000	27.837762
2115.000000	27.888761
2114.000000	27.823968
2113.000000	27.850955
2112.000000	27.857043
2111.000000	27.810547
2110.000000	27.814534
2109.000000	27.961630
2108.000000	28.038814
2107.000000	27.940018
2106.000000	27.975366
2105.000000	28.062981
2104.000000	27.995647
2103.000000	28.002845
2102.000000	28.050449
2101.000000	28.160700
2100.000000	28.037666
2099.000000	27.937938
2098.000000	28.011081
2097.000000	28.084515
2096.000000	27.995246
2095.000000	28.003374
2094.000000	27.979663
2093.000000	27.964874
2092.000000	28.093748
2091.000000	27.990132
2090.000000	27.894336
2089.000000	27.963231
2088.000000	27.961299
2087.000000	27.890681
2086.000000	27.848169
2085.000000	27.931112
2084.000000	27.800938
2083.000000	27.798513
2082.000000	27.739374
2081.000000	27.736573
2080.000000	27.698818
2079.000000	27.700147
2078.000000	27.609803
2077.000000	27.532093
2076.000000	27.435748
2075.000000	27.351464
2074.000000	27.331363
2073.000000	27.252993
2072.000000	27.170844
2071.000000	27.091707
2070.000000	27.104412
2069.000000	27.001898
2068.000000	26.802237
2067.000000	26.710168
2066.000000	26.586385
2065.000000	26.403357
2064.000000	26.333933
2063.000000	26.251766
2062.000000	26.222465
2061.000000	26.164702
2060.000000	26.030545
2059.000000	25.903268
2058.000000	25.884496
2057.000000	25.756634
2056.000000	25.639909
2055.000000	25.564246
2054.000000	25.475195
2053.000000	25.393004
2052.000000	25.212013
2051.000000	25.127045
2050.000000	25.135962
2049.000000	25.072143
2048.000000	24.997225
2047.000000	24.991196
2046.000000	24.977170
2045.000000	24.880499
2044.000000	24.843752
2043.000000	24.807857
2042.000000	24.794585
2041.000000	24.839977
2040.000000	24.872350
2039.000000	24.873493
2038.000000	24.845970
2037.000000	24.873237
2036.000000	24.866306
2035.000000	24.907397
2034.000000	24.997856
2033.000000	25.043811
2032.000000	25.138866
2031.000000	25.237069
2030.000000	25.331097
2029.000000	25.384219
2028.000000	25.441859
2027.000000	25.526583
2026.000000	25.570440
2025.000000	25.576547
2024.000000	25.603872
2023.000000	25.668228
2022.000000	25.731636
2021.000000	25.778254
2020.000000	25.805904
2019.000000	25.824796
2018.000000	25.852419
2017.000000	25.875517
2016.000000	25.891645
2015.000000	25.923352
2014.000000	25.901100
2013.000000	25.851190
2012.000000	25.846940
2011.000000	25.826861
2010.000000	25.759223
2009.000000	25.680955
2008.000000	25.659095
2007.000000	25.624633
2006.000000	25.560131
2005.000000	25.530048
2004.000000	25.424956
2003.000000	25.344298
2002.000000	25.321024
2001.000000	25.284584
2000.000000	25.201581
1999.000000	25.171967
1998.000000	25.122938
1997.000000	25.056405
1996.000000	25.008089
1995.000000	24.895061
1994.000000	24.807475
1993.000000	24.741010
1992.000000	24.658836
1991.000000	24.613290
1990.000000	24.581923
1989.000000	24.469928
1988.000000	24.397265
1987.000000	24.327551
1986.000000	24.234187
1985.000000	24.163379
1984.000000	24.141277
1983.000000	24.124948
1982.000000	24.017630
1981.000000	23.968915
1980.000000	23.898617
1979.000000	23.818754
1978.000000	23.768751
1977.000000	23.694025
1976.000000	23.642219
1975.000000	23.571100
1974.000000	23.501039
1973.000000	23.463872
1972.000000	23.443933
1971.000000	23.387526
1970.000000	23.270415
1969.000000	23.248811
1968.000000	23.196428
1967.000000	23.146917
1966.000000	23.109192
1965.000000	23.016014
1964.000000	22.993871
1963.000000	22.952100
1962.000000	22.893425
1961.000000	22.906763
1960.000000	22.836661
1959.000000	22.746336
1958.000000	22.683256
1957.000000	22.674487
1956.000000	22.656141
1955.000000	22.590588
1954.000000	22.580710
1953.000000	22.553124
1952.000000	22.538986
1951.000000	22.580166
1950.000000	22.474213
1949.000000	22.404113
1948.000000	22.440916
1947.000000	22.422851
1946.000000	22.410848
1945.000000	22.419170
1944.000000	22.466519
1943.000000	22.399291
1942.000000	22.470518
1941.000000	22.503365
1940.000000	22.507798
1939.000000	22.603692
1938.000000	22.616762
1937.000000	22.628507
1936.000000	22.716595
1935.000000	22.807472
1934.000000	22.850692
1933.000000	22.947561
1932.000000	22.996950
1931.000000	23.107349
1930.000000	23.217249
1929.000000	23.335183
1928.000000	23.446651
1927.000000	23.534514
1926.000000	23.660810
1925.000000	23.822748
1924.000000	24.018972
1923.000000	24.182047
1922.000000	24.287318
1921.000000	24.523833
1920.000000	24.701018
1919.000000	24.866981
1918.000000	25.083238
1917.000000	25.216572
1916.000000	25.419375
1915.000000	25.737188
1914.000000	25.959696
1913.000000	26.285093
1912.000000	26.459925
1911.000000	26.723409
1910.000000	26.993089
1909.000000	27.285571
1908.000000	27.600561
1907.000000	27.960864
1906.000000	28.311409
1905.000000	28.606816
1904.000000	28.941570
1903.000000	29.324362
1902.000000	29.693423
1901.000000	30.008446
1900.000000	30.424002
1899.000000	30.852061
1898.000000	31.317567
1897.000000	31.671791
1896.000000	32.042467
1895.000000	32.426903
1894.000000	32.798158
1893.000000	33.185335
1892.000000	33.592517
1891.000000	33.976968
1890.000000	34.404778
1889.000000	34.769822
1888.000000	35.179313
1887.000000	35.554326
1886.000000	35.940637
1885.000000	36.301510
1884.000000	36.607504
1883.000000	37.008223
1882.000000	37.279625
1881.000000	37.646651
1880.000000	37.902457
1879.000000	38.148505
1878.000000	38.470128
1877.000000	38.692515
1876.000000	38.940275
1875.000000	39.207161
1874.000000	39.451627
1873.000000	39.673384
1872.000000	39.847556
1871.000000	40.037574
1870.000000	40.232557
1869.000000	40.379137
1868.000000	40.559131
1867.000000	40.668487
1866.000000	40.794014
1865.000000	40.878895
1864.000000	40.934613
1863.000000	41.024297
1862.000000	41.142130
1861.000000	41.209371
1860.000000	41.328387
1859.000000	41.369884
1858.000000	41.384847
1857.000000	41.441344
1856.000000	41.511458
1855.000000	41.558802
1854.000000	41.580126
1853.000000	41.613291
1852.000000	41.623354
1851.000000	41.643368
1850.000000	41.645075
1849.000000	41.682274
1848.000000	41.738406
1847.000000	41.699278
1846.000000	41.674278
1845.000000	41.675906
1844.000000	41.653545
1843.000000	41.602840
1842.000000	41.568966
1841.000000	41.560118
1840.000000	41.534761
1839.000000	41.523570
1838.000000	41.489524
1837.000000	41.435375
1836.000000	41.384409
1835.000000	41.321685
1834.000000	41.284869
1833.000000	41.242718
1832.000000	41.207373
1831.000000	41.150052
1830.000000	41.133302
1829.000000	41.103785
1828.000000	41.072400
1827.000000	41.039181
1826.000000	40.982195
1825.000000	40.919968
1824.000000	40.907516
1823.000000	40.894588
1822.000000	40.835701
1821.000000	40.793154
1820.000000	40.777560
1819.000000	40.740400
1818.000000	40.702015
1817.000000	40.671163
1816.000000	40.634178
1815.000000	40.593551
1814.000000	40.571813
1813.000000	40.556157
1812.000000	40.522872
1811.000000	40.493598
1810.000000	40.461193
1809.000000	40.439602
1808.000000	40.406675
1807.000000	40.366817
1806.000000	40.332622
1805.000000	40.292378
1804.000000	40.276457
1803.000000	40.257138
1802.000000	40.237639
1801.000000	40.222369
1800.000000	40.193153
1799.000000	40.155334
1798.000000	40.133672
1797.000000	40.122875
1796.000000	40.090117
1795.000000	40.064407
1794.000000	40.076888
1793.000000	40.061041
1792.000000	40.022060
1791.000000	40.019026
1790.000000	40.012671
1789.000000	39.979011
1788.000000	39.985887
1787.000000	39.959629
1786.000000	39.943209
1785.000000	39.936676
1784.000000	39.905607
1783.000000	39.892866
1782.000000	39.872340
1781.000000	39.834193
1780.000000	39.794031
1779.000000	39.779367
1778.000000	39.766999
1777.000000	39.709377
1776.000000	39.675639
1775.000000	39.629734
1774.000000	39.573175
1773.000000	39.519028
1772.000000	39.471502
1771.000000	39.448369
1770.000000	39.414734
1769.000000	39.341722
1768.000000	39.282674
1767.000000	39.231806
1766.000000	39.183069
1765.000000	39.155739
1764.000000	39.122939
1763.000000	39.044216
1762.000000	38.962601
1761.000000	38.935611
1760.000000	38.887191
1759.000000	38.851403
1758.000000	38.823660
1757.000000	38.791468
1756.000000	38.746560
1755.000000	38.692940
1754.000000	38.632803
1753.000000	38.584124
1752.000000	38.549248
1751.000000	38.478035
1750.000000	38.433000
1749.000000	38.386199
1748.000000	38.310419
1747.000000	38.280445
1746.000000	38.246239
1745.000000	38.165084
1744.000000	38.104575
1743.000000	38.090129
1742.000000	38.009026
1741.000000	37.962569
1740.000000	37.937883
1739.000000	37.912192
1738.000000	37.881511
1737.000000	37.842233
1736.000000	37.808968
1735.000000	37.791424
1734.000000	37.785830
1733.000000	37.767156
1732.000000	37.766466
1731.000000	37.790665
1730.000000	37.750690
1729.000000	37.782125
1728.000000	37.864486
1727.000000	37.913630
1726.000000	37.960493
1725.000000	38.015228
1724.000000	38.094169
1723.000000	38.157479
1722.000000	38.239445
1721.000000	38.339819
1720.000000	38.431654
1719.000000	38.511398
1718.000000	38.589685
1717.000000	38.685667
1716.000000	38.771118
1715.000000	38.853104
1714.000000	38.929572
1713.000000	38.989674
1712.000000	39.057657
1711.000000	39.120093
1710.000000	39.185720
1709.000000	39.258918
1708.000000	39.290402
1707.000000	39.352324
1706.000000	39.377894
1705.000000	39.415304
1704.000000	39.448318
1703.000000	39.435625
1702.000000	39.453847
1701.000000	39.478323
1700.000000	39.486344
1699.000000	39.482807
1698.000000	39.528527
1697.000000	39.549422
1696.000000	39.582581
1695.000000	39.591389
1694.000000	39.637332
1693.000000	39.663626
1692.000000	39.708953
1691.000000	39.775293
1690.000000	39.860285
1689.000000	39.931919
1688.000000	40.032783
1687.000000	40.137518
1686.000000	40.243442
1685.000000	40.371589
1684.000000	40.505551
1683.000000	40.653162
1682.000000	40.805089
1681.000000	40.964213
1680.000000	41.122593
1679.000000	41.277888
1678.000000	41.452585
1677.000000	41.609778
1676.000000	41.808818
1675.000000	41.970864
1674.000000	42.164810
1673.000000	42.355826
1672.000000	42.507364
1671.000000	42.663588
1670.000000	42.830475
1669.000000	42.996717
1668.000000	43.134566
1667.000000	43.294674
1666.000000	43.376895
1665.000000	43.493395
1664.000000	43.601513
1663.000000	43.659278
1662.000000	43.750575
1661.000000	43.866501
1660.000000	43.925035
1659.000000	43.969239
1658.000000	44.026612
1657.000000	44.088036
1656.000000	44.121123
1655.000000	44.158545
1654.000000	44.184981
1653.000000	44.190864
1652.000000	44.205267
1651.000000	44.224733
1650.000000	44.236775
1649.000000	44.215135
1648.000000	44.204364
1647.000000	44.209652
1646.000000	44.201620
1645.000000	44.173226
1644.000000	44.153657
1643.000000	44.126271
1642.000000	44.112174
1641.000000	44.082675
1640.000000	44.043363
1639.000000	44.013526
1638.000000	43.983040
1637.000000	43.955651
1636.000000	43.901549
1635.000000	43.881322
1634.000000	43.833885
1633.000000	43.779077
1632.000000	43.733344
1631.000000	43.701322
1630.000000	43.661583
1629.000000	43.615127
1628.000000	43.573902
1627.000000	43.530122
1626.000000	43.488552
1625.000000	43.440469
1624.000000	43.382339
1623.000000	43.343221
1622.000000	43.296558
1621.000000	43.233038
1620.000000	43.175819
1619.000000	43.118922
1618.000000	43.065863
1617.000000	43.007137
1616.000000	42.956648
1615.000000	42.888455
1614.000000	42.831048
1613.000000	42.776211
1612.000000	42.712441
1611.000000	42.660851
1610.000000	42.606187
1609.000000	42.538969
1608.000000	42.481030
1607.000000	42.411942
1606.000000	42.341610
1605.000000	42.283693
1604.000000	42.215222
1603.000000	42.156430
1602.000000	42.102794
1601.000000	42.039821
1600.000000	41.969162
1599.000000	41.908832
1598.000000	41.852568
1597.000000	41.801094
1596.000000	41.740239
1595.000000	41.676716
1594.000000	41.622890
1593.000000	41.570076
1592.000000	41.526269
1591.000000	41.469231
1590.000000	41.408223
1589.000000	41.350480
1588.000000	41.292066
1587.000000	41.256061
1586.000000	41.211440
1585.000000	41.164329
1584.000000	41.124149
1583.000000	41.070811
1582.000000	41.030552
1581.000000	40.991212
1580.000000	40.944743
1579.000000	40.892090
1578.000000	40.849400
1577.000000	40.800945
1576.000000	40.746116
1575.000000	40.701139
1574.000000	40.653075
1573.000000	40.603733
1572.000000	40.565505
1571.000000	40.529996
1570.000000	40.491252
1569.000000	40.437999
1568.000000	40.398823
1567.000000	40.369567
1566.000000	40.332370
1565.000000	40.292588
1564.000000	40.260602
1563.000000	40.233732
1562.000000	40.199270
1561.000000	40.175504
1560.000000	40.157175
1559.000000	40.118151
1558.000000	40.092866
1557.000000	40.081821
1556.000000	40.050532
1555.000000	40.030680
1554.000000	39.999090
1553.000000	39.968636
1552.000000	39.948753
1551.000000	39.916849
1550.000000	39.874094
1549.000000	39.828842
1548.000000	39.803125
1547.000000	39.738615
1546.000000	39.688028
1545.000000	39.633660
1544.000000	39.564983
1543.000000	39.501483
1542.000000	39.434579
1541.000000	39.366080
1540.000000	39.299055
1539.000000	39.218567
1538.000000	39.123008
1537.000000	39.047828
1536.000000	38.956083
1535.000000	38.876385
1534.000000	38.802943
1533.000000	38.733496
1532.000000	38.640712
1531.000000	38.566960
1530.000000	38.504848
1529.000000	38.425190
1528.000000	38.367713
1527.000000	38.293697
1526.000000	38.227659
1525.000000	38.164378
1524.000000	38.098870
1523.000000	38.059074
1522.000000	38.011678
1521.000000	37.957235
1520.000000	37.921405
1519.000000	37.882428
1518.000000	37.854704
1517.000000	37.817702
1516.000000	37.773743
1515.000000	37.735294
1514.000000	37.703459
1513.000000	37.688119
1512.000000	37.664586
1511.000000	37.656102
1510.000000	37.629296
1509.000000	37.632563
1508.000000	37.636159
1507.000000	37.671165
1506.000000	37.654473
1505.000000	37.646224
1504.000000	37.618436
1503.000000	37.585335
1502.000000	37.578117
1501.000000	37.570989
1500.000000	37.534651
1499.000000	37.550189
1498.000000	37.559085
1497.000000	37.560039
1496.000000	37.564894
1495.000000	37.578049
1494.000000	37.581148
1493.000000	37.593838
1492.000000	37.615380
1491.000000	37.633554
1490.000000	37.670912
1489.000000	37.704883
1488.000000	37.729952
1487.000000	37.776107
1486.000000	37.802418
1485.000000	37.845145
1484.000000	37.899662
1483.000000	37.941512
1482.000000	37.968820
1481.000000	38.047849
1480.000000	38.065837
1479.000000	38.113056
1478.000000	38.154497
1477.000000	38.191317
1476.000000	38.250037
1475.000000	38.280993
1474.000000	38.327775
1473.000000	38.380920
1472.000000	38.409521
1471.000000	38.454027
1470.000000	38.513438
1469.000000	38.541448
1468.000000	38.572395
1467.000000	38.604847
1466.000000	38.646342
1465.000000	38.715232
1464.000000	38.781132
1463.000000	38.787832
1462.000000	38.833767
1461.000000	38.875554
1460.000000	38.940193
1459.000000	38.999668
1458.000000	39.043521
1457.000000	39.087639
1456.000000	39.147450
1455.000000	39.225404
1454.000000	39.242892
1453.000000	39.297623
1452.000000	39.362597
1451.000000	39.418725
1450.000000	39.508886
1449.000000	39.573159
1448.000000	39.631784
1447.000000	39.686498
1446.000000	39.752901
1445.000000	39.828560
1444.000000	39.932676
1443.000000	40.000141
1442.000000	40.086297
1441.000000	40.164218
1440.000000	40.242908
1439.000000	40.335972
1438.000000	40.435901
1437.000000	40.533089
1436.000000	40.619745
1435.000000	40.736523
1434.000000	40.849964
1433.000000	40.963853
1432.000000	41.084271
1431.000000	41.198926
1430.000000	41.324350
1429.000000	41.451468
1428.000000	41.585979
1427.000000	41.723447
1426.000000	41.856438
1425.000000	42.010661
1424.000000	42.143855
1423.000000	42.293754
1422.000000	42.477117
1421.000000	42.651173
1420.000000	42.843947
1419.000000	43.014884
1418.000000	43.175570
1417.000000	43.369107
1416.000000	43.556320
1415.000000	43.751089
1414.000000	43.957642
1413.000000	44.166187
1412.000000	44.369957
1411.000000	44.569036
1410.000000	44.768538
1409.000000	44.994568
1408.000000	45.212019
1407.000000	45.413260
1406.000000	45.600283
1405.000000	45.801406
1404.000000	46.019165
1403.000000	46.220302
1402.000000	46.414184
1401.000000	46.626553
1400.000000	46.816420
1399.000000	47.017648
1398.000000	47.219168
1397.000000	47.410310
1396.000000	47.596599
1395.000000	47.777367
1394.000000	47.957067
1393.000000	48.130784
1392.000000	48.295788
1391.000000	48.453796
1390.000000	48.610595
1389.000000	48.765556
1388.000000	48.929678
1387.000000	49.082796
1386.000000	49.221786
1385.000000	49.353743
1384.000000	49.469473
1383.000000	49.577406
1382.000000	49.714542
1381.000000	49.830734
1380.000000	49.919605
1379.000000	50.027342
1378.000000	50.123748
1377.000000	50.202646
1376.000000	50.287977
1375.000000	50.382385
1374.000000	50.466059
1373.000000	50.531056
1372.000000	50.596648
1371.000000	50.655700
1370.000000	50.707485
1369.000000	50.774576
1368.000000	50.846731
1367.000000	50.909230
1366.000000	50.965846
1365.000000	51.016882
1364.000000	51.081611
1363.000000	51.145992
1362.000000	51.203954
1361.000000	51.263231
1360.000000	51.329802
1359.000000	51.402269
1358.000000	51.487774
1357.000000	51.547248
1356.000000	51.618622
1355.000000	51.708040
1354.000000	51.778499
1353.000000	51.844011
1352.000000	51.923303
1351.000000	52.027258
1350.000000	52.101408
1349.000000	52.160861
1348.000000	52.216693
1347.000000	52.301652
1346.000000	52.389591
1345.000000	52.486085
1344.000000	52.560500
1343.000000	52.602094
1342.000000	52.661095
1341.000000	52.733593
1340.000000	52.816686
1339.000000	52.886306
1338.000000	52.925897
1337.000000	52.988461
1336.000000	53.046925
1335.000000	53.109333
1334.000000	53.175778
1333.000000	53.213823
1332.000000	53.244592
1331.000000	53.279957
1330.000000	53.323288
1329.000000	53.383019
1328.000000	53.415291
1327.000000	53.426420
1326.000000	53.459665
1325.000000	53.512354
1324.000000	53.549856
1323.000000	53.560503
1322.000000	53.608182
1321.000000	53.638263
1320.000000	53.638285
1319.000000	53.685304
1318.000000	53.669022
1317.000000	53.703504
1316.000000	53.761791
1315.000000	53.771938
1314.000000	53.763237
1313.000000	53.810111
1312.000000	53.816136
1311.000000	53.827736
1310.000000	53.880993
1309.000000	53.895939
1308.000000	53.895551
1307.000000	53.922775
1306.000000	53.945890
1305.000000	53.960714
1304.000000	53.968819
1303.000000	53.964728
1302.000000	53.991518
1301.000000	54.028260
1300.000000	54.044987
1299.000000	54.035128
1298.000000	54.045080
1297.000000	54.058546
1296.000000	54.053801
1295.000000	54.062135
1294.000000	54.064461
1293.000000	54.055251
1292.000000	54.046213
1291.000000	54.053820
1290.000000	54.045250
1289.000000	54.047571
1288.000000	54.038945
1287.000000	54.022308
1286.000000	53.991558
1285.000000	53.991857
1284.000000	53.989479
1283.000000	53.977924
1282.000000	54.018133
1281.000000	54.011837
1280.000000	54.001103
1279.000000	54.000099
1278.000000	53.979953
1277.000000	53.988668
1276.000000	53.988177
1275.000000	53.988883
1274.000000	53.985456
1273.000000	54.005691
1272.000000	53.993649
1271.000000	53.994062
1270.000000	53.995442
1269.000000	53.999023
1268.000000	54.013067
1267.000000	54.009870
1266.000000	54.022494
1265.000000	54.005600
1264.000000	54.020496
1263.000000	54.041077
1262.000000	54.093784
1261.000000	54.126997
1260.000000	54.097722
1259.000000	54.097968
1258.000000	54.107369
1257.000000	54.118207
1256.000000	54.153072
1255.000000	54.170127
1254.000000	54.179957
1253.000000	54.152184
1252.000000	54.173559
1251.000000	54.187201
1250.000000	54.150704
1249.000000	54.161298
1248.000000	54.170010
1247.000000	54.160661
1246.000000	54.149496
1245.000000	54.160631
1244.000000	54.143111
1243.000000	54.135618
1242.000000	54.112902
1241.000000	54.053777
1240.000000	54.036258
1239.000000	54.021772
1238.000000	54.011453
1237.000000	53.964084
1236.000000	53.942425
1235.000000	53.927256
1234.000000	53.883713
1233.000000	53.861697
1232.000000	53.839749
1231.000000	53.834736
1230.000000	53.807112
1229.000000	53.762364
1228.000000	53.742094
1227.000000	53.727697
1226.000000	53.707127
1225.000000	53.694063
1224.000000	53.662830
1223.000000	53.648060
1222.000000	53.615930
1221.000000	53.592304
1220.000000	53.564409
1219.000000	53.520640
1218.000000	53.498285
1217.000000	53.486782
1216.000000	53.456501
1215.000000	53.402295
1214.000000	53.367285
1213.000000	53.328441
1212.000000	53.311380
1211.000000	53.302158
1210.000000	53.251404
1209.000000	53.195509
1208.000000	53.171973
1207.000000	53.132927
1206.000000	53.066184
1205.000000	53.037864
1204.000000	53.012629
1203.000000	52.951769
1202.000000	52.914855
1201.000000	52.901553
1200.000000	52.833888
1199.000000	52.780343
1198.000000	52.742754
1197.000000	52.721790
1196.000000	52.711812
1195.000000	52.670894
1194.000000	52.617745
1193.000000	52.596293
1192.000000	52.578263
1191.000000	52.543547
1190.000000	52.511210
1189.000000	52.478640
1188.000000	52.469253
1187.000000	52.472744
1186.000000	52.467080
1185.000000	52.468312
1184.000000	52.468952
1183.000000	52.468405
1182.000000	52.498049
1181.000000	52.532727
1180.000000	52.565611
1179.000000	52.597776
1178.000000	52.636551
1177.000000	52.678625
1176.000000	52.715737
1175.000000	52.787642
1174.000000	52.864386
1173.000000	52.923107
1172.000000	52.980706
1171.000000	53.052256
1170.000000	53.139244
1169.000000	53.216052
1168.000000	53.294887
1167.000000	53.387192
1166.000000	53.476262
1165.000000	53.555496
1164.000000	53.636509
1163.000000	53.724656
1162.000000	53.815407
1161.000000	53.902200
1160.000000	53.996359
1159.000000	54.086164
1158.000000	54.164953
1157.000000	54.217300
1156.000000	54.279671
1155.000000	54.371202
1154.000000	54.460908
1153.000000	54.539679
1152.000000	54.603372
1151.000000	54.681577
1150.000000	54.744166
1149.000000	54.799354
1148.000000	54.855854
1147.000000	54.910334
1146.000000	54.974810
1145.000000	55.039054
1144.000000	55.096269
1143.000000	55.146600
1142.000000	55.201327
1141.000000	55.241714
1140.000000	55.305048
1139.000000	55.354154
1138.000000	55.383176
1137.000000	55.425203
1136.000000	55.479215
1135.000000	55.528921
1134.000000	55.578496
1133.000000	55.641795
1132.000000	55.682572
1131.000000	55.719798
1130.000000	55.768605
1129.000000	55.794703
1128.000000	55.825646
1127.000000	55.858235
1126.000000	55.862222
1125.000000	55.878073
1124.000000	55.908000
1123.000000	55.945365
1122.000000	55.965980
1121.000000	55.975240
1120.000000	55.994840
1119.000000	55.995801
1118.000000	56.010299
1117.000000	56.017391
1116.000000	56.038388
1115.000000	56.056963
1114.000000	56.071342
1113.000000	56.063197
1112.000000	56.066457
1111.000000	56.078477
1110.000000	56.076633
1109.000000	56.093295
1108.000000	56.094867
1107.000000	56.106285
1106.000000	56.111985
1105.000000	56.099825
1104.000000	56.112847
1103.000000	56.130041
1102.000000	56.093057
1101.000000	56.086298
1100.000000	56.104888
1099.000000	56.112482
1098.000000	56.118850
1097.000000	56.120785
1096.000000	56.125548
1095.000000	56.129371
1094.000000	56.117073
1093.000000	56.098527
1092.000000	56.105099
1091.000000	56.114318
1090.000000	56.117001
1089.000000	56.122716
1088.000000	56.128222
1087.000000	56.127070
1086.000000	56.112861
1085.000000	56.094333
1084.000000	56.102327
1083.000000	56.102106
1082.000000	56.105728
1081.000000	56.107787
1080.000000	56.125033
1079.000000	56.072357
1078.000000	56.065520
1077.000000	56.077451
1076.000000	56.059232
1075.000000	56.063537
1074.000000	56.050965
1073.000000	56.046118
1072.000000	56.009609
1071.000000	56.005620
1070.000000	55.999616
1069.000000	56.033334
1068.000000	56.007436
1067.000000	56.004288
1066.000000	55.996843
1065.000000	55.980442
1064.000000	55.964066
1063.000000	55.959347
1062.000000	55.970720
1061.000000	55.966632
1060.000000	55.942420
1059.000000	55.917342
1058.000000	55.920885
1057.000000	55.924778
1056.000000	55.903611
1055.000000	55.896659
1054.000000	55.892890
1053.000000	55.853900
1052.000000	55.856092
1051.000000	55.854039
1050.000000	55.842615
1049.000000	55.852970
1048.000000	55.793676
1047.000000	55.818463
1046.000000	55.827201
1045.000000	55.795824
1044.000000	55.818137
1043.000000	55.780014
1042.000000	55.792757
1041.000000	55.788321
1040.000000	55.794289
1039.000000	55.758497
1038.000000	55.757351
1037.000000	55.761844
1036.000000	55.764847
1035.000000	55.734352
1034.000000	55.745705
1033.000000	55.727388
1032.000000	55.728501
1031.000000	55.734052
1030.000000	55.713477
1029.000000	55.725739
1028.000000	55.734138
1027.000000	55.715309
1026.000000	55.732336
1025.000000	55.727203
1024.000000	55.727433
1023.000000	55.717028
1022.000000	55.728382
1021.000000	55.734678
1020.000000	55.714141
1019.000000	55.739922
1018.000000	55.736501
1017.000000	55.728957
1016.000000	55.734213
1015.000000	55.758981
1014.000000	55.745997
1013.000000	55.735705
1012.000000	55.744262
1011.000000	55.740661
1010.000000	55.765775
1009.000000	55.764153
1008.000000	55.757670
1007.000000	55.776546
1006.000000	55.787837
1005.000000	55.776764
1004.000000	55.809655
1003.000000	55.814457
1002.000000	55.801233
1001.000000	55.796300
1000.000000	55.811022
999.000000	55.820022
998.000000	55.847577
997.000000	55.839595
996.000000	55.850736
995.000000	55.856796
994.000000	55.875133
993.000000	55.893420
992.000000	55.893214
991.000000	55.895097
990.000000	55.884468
989.000000	55.893072
988.000000	55.893634
987.000000	55.894728
986.000000	55.928194
985.000000	55.943510
984.000000	55.936032
983.000000	55.942684
982.000000	55.943438
981.000000	55.947044
980.000000	55.964397
979.000000	55.975012
978.000000	55.974066
977.000000	55.994566
976.000000	55.998956
975.000000	55.999206
974.000000	56.003482
973.000000	56.007249
972.000000	56.027486
971.000000	56.041879
970.000000	56.034746
969.000000	56.029363
968.000000	56.043013
967.000000	56.056730
966.000000	56.058761
965.000000	56.056729
964.000000	56.066889
963.000000	56.083532
962.000000	56.100983
961.000000	56.108174
960.000000	56.102489
959.000000	56.100483
958.000000	56.117010
957.000000	56.131496
956.000000	56.139893
955.000000	56.150134
954.000000	56.151019
953.000000	56.147377
952.000000	56.146131
951.000000	56.171043
950.000000	56.185084
949.000000	56.181063
948.000000	56.182031
947.000000	56.206064
946.000000	56.205160
945.000000	56.196978
944.000000	56.200935
943.000000	56.189565
942.000000	56.185050
941.000000	56.195077
940.000000	56.202409
939.000000	56.194711
938.000000	56.186021
937.000000	56.184825
936.000000	56.185828
935.000000	56.179919
934.000000	56.195070
933.000000	56.198664
932.000000	56.179076
931.000000	56.189457
930.000000	56.177546
929.000000	56.168377
928.000000	56.182850
927.000000	56.185058
926.000000	56.171446
925.000000	56.157547
924.000000	56.168135
923.000000	56.162188
922.000000	56.142937
921.000000	56.137290
920.000000	56.164944
919.000000	56.157289
918.000000	56.144215
917.000000	56.135539
916.000000	56.096115
915.000000	56.107395
914.000000	56.131054
913.000000	56.126155
912.000000	56.119551
911.000000	56.126626
910.000000	56.109597
909.000000	56.132471
908.000000	56.123520
907.000000	56.114879
906.000000	56.105508
905.000000	56.110954
904.000000	56.118804
903.000000	56.098462
902.000000	56.120080
901.000000	56.155644
900.000000	56.127443
899.000000	56.136933
898.000000	56.163401
897.000000	56.162472
896.000000	56.176068
895.000000	56.175343
894.000000	56.170336
893.000000	56.181114
892.000000	56.149322
891.000000	56.151842
890.000000	56.199212
889.000000	56.210811
888.000000	56.231159
887.000000	56.190905
886.000000	56.219310
885.000000	56.263258
884.000000	56.241441
883.000000	56.215576
882.000000	56.244114
881.000000	56.234024
880.000000	56.248892
879.000000	56.211151
878.000000	56.324221
877.000000	56.253742
876.000000	56.219225
875.000000	56.218676
874.000000	56.232796
873.000000	56.212569
872.000000	56.313109
871.000000	56.270678
870.000000	56.238111
869.000000	56.236008
868.000000	56.303029
867.000000	56.224496
866.000000	56.131258
865.000000	56.145848
864.000000	56.267960
863.000000	56.121800
862.000000	56.164178
861.000000	56.150371
860.000000	56.286580
859.000000	55.498616
858.000000	55.852006
857.000000	55.738817
856.000000	55.717478
855.000000	55.901389
854.000000	55.752834
853.000000	55.597470
852.000000	55.605448
851.000000	55.772252
850.000000	55.866903
849.000000	55.965306
848.000000	55.725031
847.000000	55.601533
846.000000	55.666759
845.000000	55.684530
844.000000	55.574534
843.000000	55.641268
842.000000	55.661044
841.000000	55.873377
840.000000	55.796465
839.000000	55.739255
838.000000	55.734778
837.000000	55.645968
836.000000	55.855088
835.000000	55.565493
834.000000	55.817001
833.000000	55.677420
832.000000	55.379018
831.000000	55.641613
830.000000	55.701231
829.000000	55.683177
828.000000	55.686325
827.000000	55.511294
826.000000	55.626546
825.000000	55.590587
824.000000	55.656169
823.000000	55.588010
822.000000	55.495429
821.000000	55.639587
820.000000	55.595174
819.000000	55.661312
818.000000	55.620413
817.000000	55.508535
816.000000	55.460474
815.000000	55.525684
814.000000	55.540282
813.000000	55.656436
812.000000	55.546869
811.000000	55.569995
810.000000	55.486112
809.000000	55.463224
808.000000	55.582527
807.000000	55.582234
806.000000	55.643284
805.000000	55.619459
804.000000	55.571104
803.000000	55.378615
802.000000	55.543704
801.000000	55.689004
800.000000	55.383684
799.000000	55.441520
798.000000	55.464845
797.000000	55.446552
796.000000	55.424648
795.000000	55.400019
794.000000	55.350452
793.000000	55.466730
792.000000	55.459980
791.000000	55.390598
790.000000	55.382424
789.000000	55.464029
788.000000	55.463102
787.000000	55.414020
786.000000	55.393747
785.000000	55.431060
784.000000	55.480036
783.000000	55.291708
782.000000	55.320751
781.000000	55.262693
780.000000	55.297489
779.000000	55.237842
778.000000	55.342996
777.000000	55.398768
776.000000	55.374640
775.000000	55.220353
774.000000	55.406588
773.000000	55.355351
772.000000	55.264741
771.000000	55.247175
770.000000	55.260330
769.000000	55.310652
768.000000	55.348970
767.000000	55.248169
766.000000	55.142589
765.000000	55.179853
764.000000	55.194755
763.000000	55.166314
762.000000	55.154159
761.000000	55.047026
760.000000	55.128204
759.000000	55.100733
758.000000	55.109875
757.000000	55.084215
756.000000	55.082829
755.000000	55.106069
754.000000	55.081365
753.000000	55.094640
752.000000	55.061170
751.000000	55.092386
750.000000	55.074579
749.000000	54.996877
748.000000	54.931498
747.000000	54.996675
746.000000	54.980590
745.000000	54.979885
744.000000	55.004531
743.000000	54.994871
742.000000	54.885901
741.000000	54.878599
740.000000	54.870669
739.000000	54.824515
738.000000	54.951633
737.000000	54.935107
736.000000	54.903614
735.000000	54.812024
734.000000	54.751268
733.000000	54.799461
732.000000	54.784996
731.000000	54.759432
730.000000	54.740854
729.000000	54.757251
728.000000	54.744967
727.000000	54.664145
726.000000	54.729644
725.000000	54.719732
724.000000	54.678073
723.000000	54.656240
722.000000	54.602953
721.000000	54.629822
720.000000	54.588425
719.000000	54.553844
718.000000	54.581146
717.000000	54.557687
716.000000	54.529807
715.000000	54.542725
714.000000	54.485769
713.000000	54.438468
712.000000	54.449671
711.000000	54.431223
710.000000	54.390104
709.000000	54.358259
708.000000	54.356196
707.000000	54.336080
706.000000	54.323055
705.000000	54.329476
704.000000	54.296550
703.000000	54.311357
702.000000	54.321811
701.000000	54.265817
700.000000	54.216297
699.000000	54.210877
698.000000	54.202235
697.000000	54.176807
696.000000	54.160458
695.000000	54.177467
694.000000	54.152851
693.000000	54.084601
692.000000	54.049454
691.000000	54.080427
690.000000	53.993981
689.000000	53.942831
688.000000	53.970489
687.000000	53.967701
686.000000	53.972109
685.000000	53.955190
684.000000	53.938817
683.000000	53.920763
682.000000	53.922485
681.000000	53.903852
680.000000	53.863766
679.000000	53.888055
678.000000	53.879601
677.000000	53.818891
676.000000	53.761615
675.000000	53.750120
674.000000	53.738372
673.000000	53.699679
672.000000	53.691268
671.000000	53.661482
670.000000	53.631428
669.000000	53.619350
668.000000	53.581656
667.000000	53.552126
666.000000	53.547359
665.000000	53.548557
664.000000	53.508022
663.000000	53.465805
662.000000	53.426517
661.000000	53.388025
660.000000	53.363904
659.000000	53.368890
658.000000	53.351138
657.000000	53.291197
656.000000	53.234744
655.000000	53.232709
654.000000	53.196823
653.000000	53.204207
652.000000	53.191134
651.000000	53.106869
650.000000	53.115125
649.000000	53.082139
648.000000	52.996990
647.000000	52.992987
646.000000	52.948790
645.000000	52.945929
644.000000	52.906077
643.000000	52.916140
642.000000	52.912439
641.000000	52.852380
640.000000	52.808543
639.000000	52.778368
638.000000	52.725060
637.000000	52.740843
636.000000	52.679279
635.000000	52.644343
634.000000	52.562269
633.000000	52.546040
632.000000	52.492310
631.000000	52.479313
630.000000	52.431729
629.000000	52.420724
628.000000	52.394598
627.000000	52.350196
626.000000	52.310997
625.000000	52.289065
624.000000	52.219748
623.000000	52.217768
622.000000	52.221006
621.000000	52.162684
620.000000	52.150668
619.000000	52.147908
618.000000	52.035118
617.000000	52.035391
616.000000	51.993088
615.000000	51.951367
614.000000	51.928374
613.000000	51.943064
612.000000	51.900339
611.000000	51.866570
610.000000	51.825762
609.000000	51.765530
608.000000	51.761039
607.000000	51.742938
606.000000	51.702538
605.000000	51.699740
604.000000	51.632534
603.000000	51.623570
602.000000	51.578662
601.000000	51.556547
600.000000	51.519968
599.000000	51.482330
598.000000	51.471336
597.000000	51.450062
596.000000	51.399136
595.000000	51.388138
594.000000	51.359892
593.000000	51.325219
592.000000	51.306204
591.000000	51.199157
590.000000	51.232729
589.000000	51.225130
588.000000	51.189725
587.000000	51.136457
586.000000	51.099159
585.000000	51.071940
584.000000	51.042598
583.000000	50.978697
582.000000	50.990719
581.000000	50.971569
580.000000	50.913032
579.000000	50.858447
578.000000	50.831858
577.000000	50.803712
576.000000	50.786211
575.000000	50.765519
574.000000	50.697583
573.000000	50.671037
572.000000	50.635831
571.000000	50.608616
570.000000	50.637581
569.000000	50.607450
568.000000	50.528480
567.000000	50.481094
566.000000	50.468015
565.000000	50.477687
564.000000	50.421573
563.000000	50.410997
562.000000	50.376378
561.000000	50.265276
560.000000	50.227321
559.000000	50.225193
558.000000	50.213076
557.000000	50.112670
556.000000	50.149768
555.000000	50.126859
554.000000	50.064368
553.000000	50.016232
552.000000	49.985022
551.000000	49.945725
550.000000	49.910054
549.000000	49.894428
548.000000	49.864745
547.000000	49.809144
546.000000	49.769275
545.000000	49.729491
544.000000	49.727951
543.000000	49.647945
542.000000	49.599717
541.000000	49.573264
540.000000	49.532103
539.000000	49.505867
538.000000	49.476840
537.000000	49.423708
536.000000	49.385070
535.000000	49.380634
534.000000	49.328042
533.000000	49.280488
532.000000	49.245152
531.000000	49.239756
530.000000	49.160991
529.000000	49.120008
528.000000	49.126017
527.000000	49.068366
526.000000	49.023013
525.000000	49.005144
524.000000	48.995923
523.000000	48.948273
522.000000	48.904610
521.000000	48.860725
520.000000	48.828156
519.000000	48.760663
518.000000	48.701495
517.000000	48.670845
516.000000	48.640900
515.000000	48.597413
514.000000	48.539382
513.000000	48.533601
512.000000	48.469360
511.000000	48.422706
510.000000	48.367017
509.000000	48.347157
508.000000	48.327298
507.000000	48.234097
506.000000	48.177688
505.000000	48.129395
504.000000	48.116327
503.000000	48.053508
502.000000	48.005048
501.000000	47.928625
500.000000	47.877028
499.000000	47.829915
498.000000	47.774879
497.000000	47.675918
496.000000	47.624876
495.000000	47.591489
494.000000	47.488537
493.000000	47.450186
492.000000	47.374842
491.000000	47.325829
490.000000	47.219370
489.000000	47.122444
488.000000	47.074711
487.000000	46.997623
486.000000	46.953565
485.000000	46.922882
484.000000	46.871171
483.000000	46.793702
482.000000	46.725962
481.000000	46.627604
480.000000	46.571413
479.000000	46.512716
478.000000	46.401008
477.000000	46.317812
476.000000	46.235610
475.000000	46.126143
474.000000	46.030228
473.000000	45.940892
472.000000	45.851160
471.000000	45.749898
470.000000	45.660041
469.000000	45.575129
468.000000	45.465441
467.000000	45.364666
466.000000	45.267456
465.000000	45.168398
464.000000	45.064907
463.000000	44.954214
462.000000	44.879076
461.000000	44.780053
460.000000	44.661414
459.000000	44.548758
458.000000	44.419675
457.000000	44.280175
456.000000	44.158249
455.000000	44.049635
454.000000	43.935899
453.000000	43.825494
452.000000	43.701734
451.000000	43.575547
450.000000	43.442207
449.000000	43.343970
448.000000	43.216977
447.000000	43.048073
446.000000	42.889489
445.000000	42.786742
444.000000	42.683251
443.000000	42.526961
442.000000	42.348612
441.000000	42.217714
440.000000	42.088097
439.000000	41.956842
438.000000	41.819598
437.000000	41.693222
436.000000	41.570481
435.000000	41.397593
434.000000	41.237045
433.000000	41.073678
432.000000	40.939509
431.000000	40.780785
430.000000	40.617034
429.000000	40.465254
428.000000	40.296009
427.000000	40.109885
426.000000	39.941895
425.000000	39.811606
424.000000	39.654822
423.000000	39.506095
422.000000	39.330617
421.000000	39.189015
420.000000	39.010773
419.000000	38.842333
418.000000	38.699573
417.000000	38.576645
416.000000	38.443361
415.000000	38.292816
414.000000	38.142926
413.000000	38.091457
412.000000	37.969617
411.000000	37.845385
410.000000	37.752033
409.000000	37.683775
408.000000	37.618332
407.000000	37.620825
406.000000	37.533491
405.000000	37.447030
404.000000	37.472404
403.000000	37.407780
402.000000	37.354638
401.000000	37.338695
400.000000	37.289905
399.000000	37.275957
398.000000	37.248799
397.000000	37.211659
396.000000	37.165425
395.000000	37.131447
394.000000	37.079601
393.000000	37.048033
392.000000	37.004636
391.000000	37.011561
390.000000	36.921398
389.000000	36.921997
388.000000	36.916955
387.000000	36.812148
386.000000	36.750920
385.000000	36.744583
384.000000	36.730514
383.000000	36.617673
382.000000	36.531716
381.000000	36.534670
380.000000	36.370430
379.000000	36.409735
378.000000	36.124345
377.000000	36.099793
376.000000	36.303930
375.000000	36.163790
374.000000	35.983112
373.000000	35.798930
372.000000	35.878773
371.000000	35.664591
370.000000	35.643326
369.000000	35.511290
368.000000	35.477108
367.000000	35.397760
366.000000	35.354525
365.000000	35.375226
364.000000	35.213883
363.000000	34.955315
362.000000	35.069616
361.000000	34.920398
360.000000	34.930977
359.000000	34.805223
358.000000	34.743341
357.000000	34.662679
356.000000	34.582511
355.000000	34.567673
354.000000	34.380855
353.000000	34.267254
352.000000	34.291465
351.000000	34.200316
350.000000	34.068741
349.000000	34.162115
348.000000	34.058272
347.000000	33.979148
346.000000	33.907184
345.000000	33.836715
344.000000	33.752680
343.000000	33.772318
342.000000	33.565683
341.000000	33.582504
340.000000	33.715365
339.000000	33.494649
338.000000	33.481999
337.000000	33.333858
336.000000	33.404983
335.000000	33.249783
334.000000	33.220108
333.000000	33.122917
332.000000	32.969607
331.000000	32.939880
330.000000	32.908642
329.000000	32.900042
328.000000	33.006423
327.000000	32.958081
326.000000	32.762144
325.000000	32.976297
324.000000	32.801386
323.000000	32.628055
322.000000	32.668926
321.000000	32.662718
320.000000	32.742038
319.000000	32.574431
318.000000	32.641369
317.000000	32.658339
316.000000	32.555322
315.000000	32.618454
314.000000	32.559895
313.000000	32.328380
312.000000	32.465478
311.000000	32.401591
310.000000	32.368029
309.000000	32.105629
308.000000	32.055769
307.000000	32.016542
306.000000	31.986828
305.000000	31.897327
304.000000	31.660441
303.000000	31.562426
302.000000	31.496439
301.000000	31.433951
300.000000	31.281563
299.000000	31.043906
298.000000	30.850953
297.000000	30.658805
296.000000	30.303321
295.000000	29.787687
294.000000	29.392668
293.000000	28.726665
292.000000	28.078015
291.000000	27.247017
290.000000	26.443119
289.000000	25.772982
288.000000	25.162760
287.000000	24.559309
286.000000	24.188728
285.000000	24.052377
284.000000	23.879277
283.000000	23.879846
282.000000	23.869860
281.000000	23.923368
280.000000	23.953950
279.000000	24.069574
278.000000	24.198376
277.000000	24.337854
276.000000	24.543082
275.000000	24.932070
274.000000	25.147597
273.000000	25.386290
272.000000	25.692528
271.000000	25.834173
270.000000	25.911902
269.000000	25.993922
268.000000	26.311232
267.000000	26.572539
266.000000	26.687312
265.000000	26.900705
264.000000	27.165963
263.000000	27.608802
262.000000	27.921117
261.000000	28.061490
260.000000	28.234717
259.000000	28.428875
258.000000	28.800823
257.000000	29.095726
256.000000	29.385008
255.000000	29.484982
254.000000	29.469327
253.000000	29.419000
252.000000	29.195617
251.000000	28.851308
250.000000	28.461238
249.000000	27.829815
248.000000	27.034022
247.000000	26.148083
246.000000	25.027120
245.000000	23.760593
244.000000	22.580497
243.000000	21.398932
242.000000	20.205157
241.000000	19.055936
240.000000	18.009384
239.000000	17.156149
238.000000	16.428022
237.000000	15.802782
236.000000	15.246601
235.000000	14.760229
234.000000	14.398608
233.000000	14.010031
232.000000	13.633789
231.000000	13.315787
230.000000	13.033664
229.000000	12.765276
228.000000	12.482798
227.000000	12.202093
226.000000	11.987973
225.000000	11.802807
224.000000	11.685928
223.000000	11.583928
222.000000	11.489010
221.000000	11.497742
220.000000	11.498843
219.000000	11.498137
218.000000	11.646831
217.000000	11.710853
216.000000	11.791653
215.000000	12.010891
214.000000	12.180241
213.000000	12.322831
212.000000	12.496163
211.000000	12.718941
210.000000	13.038100
209.000000	13.286198
208.000000	13.525083
207.000000	13.775285
206.000000	14.186994
205.000000	14.631128
204.000000	14.986921
203.000000	15.431717
202.000000	15.952183
201.000000	16.392388
200.000000	16.923208
