PE UV       SUBTECH     SPECTRUM    ASCII       PEDS        4.00        
   -1
RTgVeauUK 22.Sample.asc
18/03/09
14:48:11.00
18/03/09
14:48:11.00
Administrator

200.000000
1
Lambda 750
750N8071901
PerkinElmer UV WinLab 6.0.4.0738 / 1.61.00 Lambda 900

0
0
3350/servo 860.8/2
0
0
UV/VIS
1
1
1
CommonBeamDepol,150mm sphere / downward view
0
0
0
0
Program
Program
3350/servo 860.8/2
3350/0.2 860.8/0.2
3350/0.2 860.8/0.2
0
1
 
 
 
0
 
860.8
319.2
860.8
Front
100
on
 
 
0
0
0
 
0
 
 
 
0
 
 
0
0
0
0
0
 
 
 
 
0
0


0
0
#HDR
-1
-1
#GR
nm
%R
1.0
0.0
2350.000000
-1.000000
2151
8
47.723733
12.519551
#DATA
2350.000000	19.863301
2349.000000	19.970410
2348.000000	20.086901
2347.000000	20.407929
2346.000000	20.322433
2345.000000	20.292871
2344.000000	19.994479
2343.000000	19.819477
2342.000000	19.960376
2341.000000	20.189834
2340.000000	20.319888
2339.000000	20.368978
2338.000000	20.422705
2337.000000	20.602719
2336.000000	20.683944
2335.000000	20.683822
2334.000000	20.432725
2333.000000	20.820762
2332.000000	20.730796
2331.000000	20.786778
2330.000000	20.664072
2329.000000	20.875989
2328.000000	20.592326
2327.000000	20.672005
2326.000000	20.514507
2325.000000	20.446673
2324.000000	20.492205
2323.000000	20.727714
2322.000000	20.451847
2321.000000	20.472618
2320.000000	20.484982
2319.000000	20.217794
2318.000000	20.700282
2317.000000	20.365942
2316.000000	20.318500
2315.000000	20.268602
2314.000000	20.221802
2313.000000	20.313400
2312.000000	20.272523
2311.000000	19.888535
2310.000000	20.099270
2309.000000	20.294624
2308.000000	20.209398
2307.000000	19.858332
2306.000000	20.130292
2305.000000	20.009361
2304.000000	19.888903
2303.000000	19.848346
2302.000000	20.069659
2301.000000	20.089150
2300.000000	20.029090
2299.000000	19.900138
2298.000000	19.757242
2297.000000	19.763556
2296.000000	19.775001
2295.000000	19.698220
2294.000000	19.567160
2293.000000	19.398558
2292.000000	19.330069
2291.000000	19.347320
2290.000000	19.367937
2289.000000	19.213293
2288.000000	19.392740
2287.000000	19.458444
2286.000000	19.347413
2285.000000	19.303476
2284.000000	19.373952
2283.000000	19.356552
2282.000000	19.342937
2281.000000	19.279300
2280.000000	19.322431
2279.000000	19.337172
2278.000000	19.337716
2277.000000	19.380098
2276.000000	19.437059
2275.000000	19.496699
2274.000000	19.393682
2273.000000	19.420726
2272.000000	19.520862
2271.000000	19.409048
2270.000000	19.359573
2269.000000	19.421939
2268.000000	19.434353
2267.000000	19.400210
2266.000000	19.540257
2265.000000	19.633387
2264.000000	19.670025
2263.000000	19.873845
2262.000000	19.830644
2261.000000	19.812682
2260.000000	19.948270
2259.000000	20.010449
2258.000000	20.075497
2257.000000	20.122893
2256.000000	20.176139
2255.000000	20.351274
2254.000000	20.518690
2253.000000	20.567065
2252.000000	20.565694
2251.000000	20.685299
2250.000000	20.657109
2249.000000	20.815619
2248.000000	21.099848
2247.000000	21.177601
2246.000000	21.191204
2245.000000	21.311029
2244.000000	21.415447
2243.000000	21.530289
2242.000000	21.644667
2241.000000	21.673752
2240.000000	21.778625
2239.000000	21.839786
2238.000000	21.826266
2237.000000	21.913227
2236.000000	22.061474
2235.000000	21.987868
2234.000000	21.895707
2233.000000	21.932450
2232.000000	22.120521
2231.000000	22.350524
2230.000000	22.259627
2229.000000	22.222995
2228.000000	22.350834
2227.000000	22.361960
2226.000000	22.348429
2225.000000	22.293747
2224.000000	22.181269
2223.000000	22.164343
2222.000000	22.160498
2221.000000	22.056332
2220.000000	22.111692
2219.000000	22.050496
2218.000000	22.135303
2217.000000	22.230854
2216.000000	22.166181
2215.000000	22.148297
2214.000000	22.110641
2213.000000	22.083351
2212.000000	22.059334
2211.000000	21.994519
2210.000000	21.957168
2209.000000	21.967709
2208.000000	21.927283
2207.000000	22.013880
2206.000000	21.959682
2205.000000	21.741788
2204.000000	21.785320
2203.000000	21.688661
2202.000000	21.684180
2201.000000	21.737487
2200.000000	21.681272
2199.000000	21.760915
2198.000000	21.733466
2197.000000	21.429328
2196.000000	21.441297
2195.000000	21.445517
2194.000000	21.497976
2193.000000	21.375806
2192.000000	21.530944
2191.000000	21.520842
2190.000000	21.482395
2189.000000	21.460343
2188.000000	21.418309
2187.000000	21.326493
2186.000000	21.269044
2185.000000	21.225178
2184.000000	21.251218
2183.000000	21.153957
2182.000000	21.255752
2181.000000	21.312521
2180.000000	21.238538
2179.000000	21.134740
2178.000000	21.122372
2177.000000	21.310459
2176.000000	21.265811
2175.000000	21.174406
2174.000000	21.450926
2173.000000	21.312692
2172.000000	21.239035
2171.000000	21.406644
2170.000000	21.461860
2169.000000	21.543471
2168.000000	21.601365
2167.000000	21.509045
2166.000000	21.484331
2165.000000	21.591219
2164.000000	21.589293
2163.000000	21.544464
2162.000000	21.857162
2161.000000	21.833676
2160.000000	21.951665
2159.000000	22.081402
2158.000000	22.002836
2157.000000	21.999597
2156.000000	22.161567
2155.000000	22.292006
2154.000000	22.334179
2153.000000	22.472520
2152.000000	22.476033
2151.000000	22.501872
2150.000000	22.511051
2149.000000	22.825696
2148.000000	22.666146
2147.000000	22.687715
2146.000000	23.026935
2145.000000	23.036280
2144.000000	23.205680
2143.000000	23.058448
2142.000000	23.230823
2141.000000	23.255280
2140.000000	23.249820
2139.000000	23.302698
2138.000000	23.409445
2137.000000	23.529111
2136.000000	23.603006
2135.000000	23.753969
2134.000000	23.830670
2133.000000	23.487865
2132.000000	23.740643
2131.000000	23.898251
2130.000000	23.972733
2129.000000	23.977143
2128.000000	23.877244
2127.000000	24.062184
2126.000000	23.970637
2125.000000	23.880669
2124.000000	24.054068
2123.000000	23.859574
2122.000000	24.185053
2121.000000	24.208501
2120.000000	24.162997
2119.000000	24.239331
2118.000000	24.098265
2117.000000	24.024134
2116.000000	24.267026
2115.000000	24.243104
2114.000000	24.187950
2113.000000	24.179072
2112.000000	24.172698
2111.000000	24.181953
2110.000000	24.332132
2109.000000	24.276985
2108.000000	24.358225
2107.000000	24.374107
2106.000000	24.485860
2105.000000	24.393672
2104.000000	24.449985
2103.000000	24.404673
2102.000000	24.347148
2101.000000	24.465938
2100.000000	24.362805
2099.000000	24.355052
2098.000000	24.368491
2097.000000	24.394911
2096.000000	24.439554
2095.000000	24.383843
2094.000000	24.366539
2093.000000	24.379972
2092.000000	24.406594
2091.000000	24.357741
2090.000000	24.358070
2089.000000	24.412679
2088.000000	24.267724
2087.000000	24.216686
2086.000000	24.318482
2085.000000	24.348183
2084.000000	24.253426
2083.000000	24.215691
2082.000000	24.171895
2081.000000	24.029982
2080.000000	24.027821
2079.000000	24.002303
2078.000000	23.897333
2077.000000	23.947757
2076.000000	23.952811
2075.000000	23.883631
2074.000000	23.885462
2073.000000	23.797690
2072.000000	23.709919
2071.000000	23.619026
2070.000000	23.601198
2069.000000	23.572953
2068.000000	23.488034
2067.000000	23.388728
2066.000000	23.305638
2065.000000	23.193798
2064.000000	23.192224
2063.000000	23.108571
2062.000000	23.039970
2061.000000	22.990231
2060.000000	22.874702
2059.000000	22.804939
2058.000000	22.744415
2057.000000	22.678704
2056.000000	22.666046
2055.000000	22.492894
2054.000000	22.345040
2053.000000	22.375217
2052.000000	22.310566
2051.000000	22.205387
2050.000000	22.142030
2049.000000	22.132456
2048.000000	22.051099
2047.000000	21.969461
2046.000000	21.962691
2045.000000	22.005908
2044.000000	21.997356
2043.000000	21.945982
2042.000000	21.929352
2041.000000	21.951999
2040.000000	21.936247
2039.000000	21.946855
2038.000000	21.965769
2037.000000	21.973096
2036.000000	22.043392
2035.000000	22.048346
2034.000000	22.073523
2033.000000	22.180340
2032.000000	22.242294
2031.000000	22.245958
2030.000000	22.274036
2029.000000	22.364163
2028.000000	22.382666
2027.000000	22.379390
2026.000000	22.469246
2025.000000	22.571598
2024.000000	22.612174
2023.000000	22.628587
2022.000000	22.662996
2021.000000	22.653321
2020.000000	22.672062
2019.000000	22.698944
2018.000000	22.689198
2017.000000	22.682139
2016.000000	22.701527
2015.000000	22.705496
2014.000000	22.707376
2013.000000	22.714320
2012.000000	22.672088
2011.000000	22.654057
2010.000000	22.607035
2009.000000	22.577269
2008.000000	22.555202
2007.000000	22.488918
2006.000000	22.453524
2005.000000	22.452262
2004.000000	22.386626
2003.000000	22.324682
2002.000000	22.282784
2001.000000	22.281481
2000.000000	22.246709
1999.000000	22.193331
1998.000000	22.147857
1997.000000	22.112749
1996.000000	22.054375
1995.000000	21.998326
1994.000000	21.953074
1993.000000	21.892241
1992.000000	21.826173
1991.000000	21.761641
1990.000000	21.680197
1989.000000	21.627227
1988.000000	21.583624
1987.000000	21.522811
1986.000000	21.484434
1985.000000	21.472535
1984.000000	21.437981
1983.000000	21.402552
1982.000000	21.331227
1981.000000	21.297898
1980.000000	21.216250
1979.000000	21.193123
1978.000000	21.110105
1977.000000	21.063007
1976.000000	20.998673
1975.000000	21.001058
1974.000000	20.954639
1973.000000	20.939292
1972.000000	20.871301
1971.000000	20.806414
1970.000000	20.780917
1969.000000	20.718207
1968.000000	20.654759
1967.000000	20.668823
1966.000000	20.654253
1965.000000	20.640876
1964.000000	20.548619
1963.000000	20.520028
1962.000000	20.471632
1961.000000	20.409854
1960.000000	20.371872
1959.000000	20.322914
1958.000000	20.322961
1957.000000	20.278500
1956.000000	20.257332
1955.000000	20.259138
1954.000000	20.266856
1953.000000	20.220408
1952.000000	20.200209
1951.000000	20.211249
1950.000000	20.178507
1949.000000	20.143209
1948.000000	20.136666
1947.000000	20.164109
1946.000000	20.116713
1945.000000	20.137619
1944.000000	20.169463
1943.000000	20.182188
1942.000000	20.279096
1941.000000	20.165448
1940.000000	20.222780
1939.000000	20.305218
1938.000000	20.401841
1937.000000	20.358021
1936.000000	20.463361
1935.000000	20.438263
1934.000000	20.468427
1933.000000	20.611733
1932.000000	20.615635
1931.000000	20.668059
1930.000000	20.808486
1929.000000	20.828752
1928.000000	21.024047
1927.000000	21.123669
1926.000000	21.153464
1925.000000	21.232874
1924.000000	21.427016
1923.000000	21.583995
1922.000000	21.733877
1921.000000	21.797260
1920.000000	21.946916
1919.000000	22.103961
1918.000000	22.286585
1917.000000	22.403307
1916.000000	22.483019
1915.000000	22.711709
1914.000000	22.922933
1913.000000	23.170013
1912.000000	23.340437
1911.000000	23.561884
1910.000000	23.732161
1909.000000	23.966581
1908.000000	24.115054
1907.000000	24.431841
1906.000000	24.677197
1905.000000	24.902051
1904.000000	25.190263
1903.000000	25.417253
1902.000000	25.713455
1901.000000	26.021729
1900.000000	26.339702
1899.000000	26.609669
1898.000000	26.968099
1897.000000	27.267264
1896.000000	27.536323
1895.000000	27.807232
1894.000000	28.108983
1893.000000	28.412080
1892.000000	28.730677
1891.000000	29.044130
1890.000000	29.325430
1889.000000	29.578971
1888.000000	29.875274
1887.000000	30.167995
1886.000000	30.446129
1885.000000	30.723727
1884.000000	30.960644
1883.000000	31.281386
1882.000000	31.480649
1881.000000	31.718584
1880.000000	31.941323
1879.000000	32.174860
1878.000000	32.425759
1877.000000	32.658799
1876.000000	32.822823
1875.000000	33.073990
1874.000000	33.250247
1873.000000	33.410475
1872.000000	33.606779
1871.000000	33.792912
1870.000000	33.905355
1869.000000	34.015985
1868.000000	34.120383
1867.000000	34.233774
1866.000000	34.296086
1865.000000	34.372846
1864.000000	34.436508
1863.000000	34.530020
1862.000000	34.571626
1861.000000	34.647580
1860.000000	34.724267
1859.000000	34.746536
1858.000000	34.767546
1857.000000	34.799534
1856.000000	34.861176
1855.000000	34.870446
1854.000000	34.894815
1853.000000	34.923520
1852.000000	34.913308
1851.000000	34.960320
1850.000000	34.991933
1849.000000	34.999728
1848.000000	35.024431
1847.000000	35.005904
1846.000000	34.983538
1845.000000	34.979942
1844.000000	34.955634
1843.000000	34.969030
1842.000000	34.944715
1841.000000	34.938036
1840.000000	34.864843
1839.000000	34.877508
1838.000000	34.873093
1837.000000	34.824327
1836.000000	34.791480
1835.000000	34.719515
1834.000000	34.711036
1833.000000	34.685502
1832.000000	34.636797
1831.000000	34.627533
1830.000000	34.602969
1829.000000	34.560435
1828.000000	34.503712
1827.000000	34.477108
1826.000000	34.455971
1825.000000	34.424351
1824.000000	34.420988
1823.000000	34.402500
1822.000000	34.360490
1821.000000	34.331427
1820.000000	34.303044
1819.000000	34.271776
1818.000000	34.246190
1817.000000	34.201709
1816.000000	34.158496
1815.000000	34.145913
1814.000000	34.133157
1813.000000	34.121685
1812.000000	34.097986
1811.000000	34.057397
1810.000000	34.034987
1809.000000	34.020022
1808.000000	33.989719
1807.000000	33.956122
1806.000000	33.932446
1805.000000	33.918744
1804.000000	33.892411
1803.000000	33.870369
1802.000000	33.859531
1801.000000	33.838909
1800.000000	33.825828
1799.000000	33.820359
1798.000000	33.799716
1797.000000	33.774581
1796.000000	33.773532
1795.000000	33.761367
1794.000000	33.765235
1793.000000	33.735284
1792.000000	33.723058
1791.000000	33.724383
1790.000000	33.703547
1789.000000	33.674008
1788.000000	33.682748
1787.000000	33.661488
1786.000000	33.647964
1785.000000	33.647997
1784.000000	33.621521
1783.000000	33.573490
1782.000000	33.581257
1781.000000	33.575704
1780.000000	33.550798
1779.000000	33.554547
1778.000000	33.524616
1777.000000	33.477697
1776.000000	33.448451
1775.000000	33.410864
1774.000000	33.370881
1773.000000	33.349225
1772.000000	33.311906
1771.000000	33.292332
1770.000000	33.282300
1769.000000	33.218407
1768.000000	33.154093
1767.000000	33.110218
1766.000000	33.073188
1765.000000	33.048667
1764.000000	33.015099
1763.000000	32.958990
1762.000000	32.935668
1761.000000	32.920054
1760.000000	32.860682
1759.000000	32.831313
1758.000000	32.829381
1757.000000	32.761766
1756.000000	32.724729
1755.000000	32.711232
1754.000000	32.671621
1753.000000	32.609386
1752.000000	32.596834
1751.000000	32.581591
1750.000000	32.533873
1749.000000	32.482070
1748.000000	32.419692
1747.000000	32.374156
1746.000000	32.339984
1745.000000	32.301038
1744.000000	32.266909
1743.000000	32.263498
1742.000000	32.213010
1741.000000	32.173469
1740.000000	32.162304
1739.000000	32.114052
1738.000000	32.080014
1737.000000	32.052232
1736.000000	32.026226
1735.000000	32.012536
1734.000000	32.038265
1733.000000	32.015011
1732.000000	32.022123
1731.000000	32.021841
1730.000000	32.055214
1729.000000	32.070144
1728.000000	32.115992
1727.000000	32.131257
1726.000000	32.191379
1725.000000	32.237776
1724.000000	32.277000
1723.000000	32.337732
1722.000000	32.421721
1721.000000	32.464149
1720.000000	32.550611
1719.000000	32.614236
1718.000000	32.670460
1717.000000	32.744654
1716.000000	32.813281
1715.000000	32.905934
1714.000000	32.946415
1713.000000	32.977502
1712.000000	33.053426
1711.000000	33.129122
1710.000000	33.169788
1709.000000	33.189767
1708.000000	33.236664
1707.000000	33.244463
1706.000000	33.292422
1705.000000	33.321360
1704.000000	33.342205
1703.000000	33.360929
1702.000000	33.380288
1701.000000	33.367601
1700.000000	33.381863
1699.000000	33.386455
1698.000000	33.392277
1697.000000	33.437237
1696.000000	33.493490
1695.000000	33.478420
1694.000000	33.516043
1693.000000	33.540679
1692.000000	33.561070
1691.000000	33.624527
1690.000000	33.664981
1689.000000	33.743930
1688.000000	33.817792
1687.000000	33.892634
1686.000000	33.985608
1685.000000	34.095719
1684.000000	34.197195
1683.000000	34.309407
1682.000000	34.430498
1681.000000	34.568743
1680.000000	34.682146
1679.000000	34.831582
1678.000000	34.958155
1677.000000	35.062071
1676.000000	35.214358
1675.000000	35.362801
1674.000000	35.497442
1673.000000	35.660839
1672.000000	35.788765
1671.000000	35.931139
1670.000000	36.040576
1669.000000	36.173679
1668.000000	36.279649
1667.000000	36.401037
1666.000000	36.449018
1665.000000	36.555935
1664.000000	36.639799
1663.000000	36.707530
1662.000000	36.773633
1661.000000	36.836692
1660.000000	36.905678
1659.000000	36.962600
1658.000000	37.008832
1657.000000	37.061310
1656.000000	37.076197
1655.000000	37.116528
1654.000000	37.129019
1653.000000	37.129359
1652.000000	37.170740
1651.000000	37.184186
1650.000000	37.181147
1649.000000	37.168807
1648.000000	37.168641
1647.000000	37.186856
1646.000000	37.163319
1645.000000	37.119803
1644.000000	37.110341
1643.000000	37.107501
1642.000000	37.076905
1641.000000	37.052306
1640.000000	37.023977
1639.000000	37.000243
1638.000000	36.986026
1637.000000	36.944256
1636.000000	36.912279
1635.000000	36.904176
1634.000000	36.870620
1633.000000	36.827851
1632.000000	36.803081
1631.000000	36.770759
1630.000000	36.734141
1629.000000	36.707017
1628.000000	36.668703
1627.000000	36.631925
1626.000000	36.592596
1625.000000	36.558763
1624.000000	36.502361
1623.000000	36.464823
1622.000000	36.429933
1621.000000	36.372110
1620.000000	36.351790
1619.000000	36.308564
1618.000000	36.252755
1617.000000	36.211678
1616.000000	36.183811
1615.000000	36.123283
1614.000000	36.061797
1613.000000	36.017449
1612.000000	35.985067
1611.000000	35.931545
1610.000000	35.893869
1609.000000	35.844574
1608.000000	35.802859
1607.000000	35.764518
1606.000000	35.692856
1605.000000	35.630841
1604.000000	35.586964
1603.000000	35.539537
1602.000000	35.485786
1601.000000	35.431978
1600.000000	35.391001
1599.000000	35.353952
1598.000000	35.311066
1597.000000	35.261623
1596.000000	35.213913
1595.000000	35.170305
1594.000000	35.118978
1593.000000	35.076492
1592.000000	35.039195
1591.000000	34.992712
1590.000000	34.951162
1589.000000	34.906056
1588.000000	34.857507
1587.000000	34.834145
1586.000000	34.797209
1585.000000	34.752180
1584.000000	34.724730
1583.000000	34.691635
1582.000000	34.653354
1581.000000	34.623280
1580.000000	34.584036
1579.000000	34.549756
1578.000000	34.521102
1577.000000	34.489279
1576.000000	34.450863
1575.000000	34.409788
1574.000000	34.374694
1573.000000	34.342622
1572.000000	34.308689
1571.000000	34.274709
1570.000000	34.244025
1569.000000	34.205963
1568.000000	34.178877
1567.000000	34.145508
1566.000000	34.112030
1565.000000	34.082840
1564.000000	34.081020
1563.000000	34.062217
1562.000000	34.026536
1561.000000	34.005868
1560.000000	33.991748
1559.000000	33.965250
1558.000000	33.936136
1557.000000	33.933516
1556.000000	33.918158
1555.000000	33.906107
1554.000000	33.882466
1553.000000	33.858424
1552.000000	33.836942
1551.000000	33.816846
1550.000000	33.785587
1549.000000	33.760015
1548.000000	33.723903
1547.000000	33.690138
1546.000000	33.646221
1545.000000	33.601250
1544.000000	33.554196
1543.000000	33.498953
1542.000000	33.452418
1541.000000	33.384017
1540.000000	33.332491
1539.000000	33.281029
1538.000000	33.221538
1537.000000	33.153092
1536.000000	33.088264
1535.000000	33.025663
1534.000000	32.962814
1533.000000	32.911839
1532.000000	32.835453
1531.000000	32.771232
1530.000000	32.722998
1529.000000	32.654152
1528.000000	32.603002
1527.000000	32.560748
1526.000000	32.514817
1525.000000	32.474072
1524.000000	32.416637
1523.000000	32.396027
1522.000000	32.350653
1521.000000	32.321135
1520.000000	32.275628
1519.000000	32.251155
1518.000000	32.232083
1517.000000	32.203054
1516.000000	32.175212
1515.000000	32.149453
1514.000000	32.117364
1513.000000	32.095562
1512.000000	32.090490
1511.000000	32.086071
1510.000000	32.059990
1509.000000	32.051204
1508.000000	32.048235
1507.000000	32.071587
1506.000000	32.101595
1505.000000	32.124162
1504.000000	32.129984
1503.000000	32.102551
1502.000000	32.078166
1501.000000	32.062178
1500.000000	32.016606
1499.000000	32.010753
1498.000000	32.020334
1497.000000	32.009766
1496.000000	32.008154
1495.000000	32.035849
1494.000000	32.042335
1493.000000	32.052962
1492.000000	32.072610
1491.000000	32.095505
1490.000000	32.124927
1489.000000	32.136525
1488.000000	32.179876
1487.000000	32.201575
1486.000000	32.229255
1485.000000	32.286048
1484.000000	32.303808
1483.000000	32.343856
1482.000000	32.356966
1481.000000	32.399077
1480.000000	32.434477
1479.000000	32.473272
1478.000000	32.500371
1477.000000	32.550302
1476.000000	32.573476
1475.000000	32.616466
1474.000000	32.646193
1473.000000	32.690062
1472.000000	32.707672
1471.000000	32.721658
1470.000000	32.752305
1469.000000	32.798587
1468.000000	32.820873
1467.000000	32.857180
1466.000000	32.909545
1465.000000	32.981498
1464.000000	32.998636
1463.000000	33.017524
1462.000000	33.034211
1461.000000	33.087722
1460.000000	33.152053
1459.000000	33.166652
1458.000000	33.198031
1457.000000	33.248371
1456.000000	33.293013
1455.000000	33.333872
1454.000000	33.372146
1453.000000	33.410857
1452.000000	33.472849
1451.000000	33.523989
1450.000000	33.572473
1449.000000	33.609036
1448.000000	33.653390
1447.000000	33.710478
1446.000000	33.766130
1445.000000	33.842580
1444.000000	33.914626
1443.000000	33.966256
1442.000000	34.032249
1441.000000	34.084688
1440.000000	34.147602
1439.000000	34.224653
1438.000000	34.299018
1437.000000	34.403994
1436.000000	34.500229
1435.000000	34.576183
1434.000000	34.648211
1433.000000	34.724664
1432.000000	34.817699
1431.000000	34.922279
1430.000000	35.012364
1429.000000	35.110972
1428.000000	35.214027
1427.000000	35.317713
1426.000000	35.445922
1425.000000	35.570697
1424.000000	35.677483
1423.000000	35.775718
1422.000000	35.913037
1421.000000	36.051983
1420.000000	36.195936
1419.000000	36.341663
1418.000000	36.462186
1417.000000	36.621438
1416.000000	36.795575
1415.000000	36.948266
1414.000000	37.106835
1413.000000	37.265595
1412.000000	37.435653
1411.000000	37.594929
1410.000000	37.769287
1409.000000	37.940958
1408.000000	38.115777
1407.000000	38.292817
1406.000000	38.443614
1405.000000	38.609050
1404.000000	38.788511
1403.000000	38.963773
1402.000000	39.145461
1401.000000	39.320008
1400.000000	39.466912
1399.000000	39.605881
1398.000000	39.760900
1397.000000	39.924594
1396.000000	40.087084
1395.000000	40.238372
1394.000000	40.379459
1393.000000	40.531959
1392.000000	40.673804
1391.000000	40.813338
1390.000000	40.953786
1389.000000	41.081675
1388.000000	41.222433
1387.000000	41.365296
1386.000000	41.484477
1385.000000	41.585589
1384.000000	41.680703
1383.000000	41.788705
1382.000000	41.913494
1381.000000	42.010023
1380.000000	42.085307
1379.000000	42.188892
1378.000000	42.264365
1377.000000	42.308346
1376.000000	42.382606
1375.000000	42.474628
1374.000000	42.540894
1373.000000	42.573251
1372.000000	42.624388
1371.000000	42.676849
1370.000000	42.721412
1369.000000	42.791671
1368.000000	42.856841
1367.000000	42.909194
1366.000000	42.956705
1365.000000	43.006487
1364.000000	43.065704
1363.000000	43.119374
1362.000000	43.177361
1361.000000	43.238621
1360.000000	43.307677
1359.000000	43.380040
1358.000000	43.445490
1357.000000	43.492488
1356.000000	43.550903
1355.000000	43.646838
1354.000000	43.750944
1353.000000	43.790617
1352.000000	43.825205
1351.000000	43.914297
1350.000000	43.998936
1349.000000	44.042975
1348.000000	44.083010
1347.000000	44.148516
1346.000000	44.215842
1345.000000	44.302689
1344.000000	44.360064
1343.000000	44.395180
1342.000000	44.448768
1341.000000	44.509881
1340.000000	44.591573
1339.000000	44.644081
1338.000000	44.671254
1337.000000	44.740766
1336.000000	44.790592
1335.000000	44.837671
1334.000000	44.886774
1333.000000	44.919722
1332.000000	44.948064
1331.000000	44.989962
1330.000000	45.019881
1329.000000	45.069957
1328.000000	45.097118
1327.000000	45.109850
1326.000000	45.151511
1325.000000	45.208400
1324.000000	45.218505
1323.000000	45.232285
1322.000000	45.268262
1321.000000	45.290304
1320.000000	45.295755
1319.000000	45.349828
1318.000000	45.346633
1317.000000	45.343770
1316.000000	45.392150
1315.000000	45.408729
1314.000000	45.420916
1313.000000	45.445755
1312.000000	45.447241
1311.000000	45.439634
1310.000000	45.488898
1309.000000	45.499613
1308.000000	45.505444
1307.000000	45.546812
1306.000000	45.532716
1305.000000	45.539464
1304.000000	45.543693
1303.000000	45.566692
1302.000000	45.610490
1301.000000	45.609243
1300.000000	45.632831
1299.000000	45.619941
1298.000000	45.609671
1297.000000	45.630709
1296.000000	45.631766
1295.000000	45.621321
1294.000000	45.616555
1293.000000	45.610362
1292.000000	45.633608
1291.000000	45.637199
1290.000000	45.633828
1289.000000	45.610733
1288.000000	45.622212
1287.000000	45.598157
1286.000000	45.588846
1285.000000	45.569213
1284.000000	45.557362
1283.000000	45.572783
1282.000000	45.593572
1281.000000	45.593954
1280.000000	45.590608
1279.000000	45.579411
1278.000000	45.584317
1277.000000	45.591329
1276.000000	45.594549
1275.000000	45.605268
1274.000000	45.607437
1273.000000	45.607011
1272.000000	45.591824
1271.000000	45.601093
1270.000000	45.605290
1269.000000	45.596629
1268.000000	45.627268
1267.000000	45.622488
1266.000000	45.628542
1265.000000	45.632959
1264.000000	45.628241
1263.000000	45.656139
1262.000000	45.693898
1261.000000	45.721409
1260.000000	45.689139
1259.000000	45.691317
1258.000000	45.704670
1257.000000	45.718911
1256.000000	45.742934
1255.000000	45.740386
1254.000000	45.764953
1253.000000	45.746449
1252.000000	45.751130
1251.000000	45.736484
1250.000000	45.729413
1249.000000	45.726966
1248.000000	45.750255
1247.000000	45.738076
1246.000000	45.740483
1245.000000	45.730651
1244.000000	45.726527
1243.000000	45.719820
1242.000000	45.695257
1241.000000	45.666059
1240.000000	45.637026
1239.000000	45.619291
1238.000000	45.614616
1237.000000	45.595116
1236.000000	45.555096
1235.000000	45.529590
1234.000000	45.503313
1233.000000	45.479910
1232.000000	45.480344
1231.000000	45.463349
1230.000000	45.443541
1229.000000	45.423502
1228.000000	45.391570
1227.000000	45.380692
1226.000000	45.371607
1225.000000	45.364281
1224.000000	45.342089
1223.000000	45.334353
1222.000000	45.306980
1221.000000	45.287088
1220.000000	45.254368
1219.000000	45.240242
1218.000000	45.216486
1217.000000	45.211563
1216.000000	45.174959
1215.000000	45.132874
1214.000000	45.117859
1213.000000	45.083968
1212.000000	45.063075
1211.000000	45.060494
1210.000000	45.014501
1209.000000	44.968920
1208.000000	44.947484
1207.000000	44.893756
1206.000000	44.839908
1205.000000	44.819491
1204.000000	44.805368
1203.000000	44.742122
1202.000000	44.714557
1201.000000	44.698280
1200.000000	44.653894
1199.000000	44.597893
1198.000000	44.568637
1197.000000	44.558126
1196.000000	44.530250
1195.000000	44.500877
1194.000000	44.454436
1193.000000	44.403753
1192.000000	44.386951
1191.000000	44.386294
1190.000000	44.358759
1189.000000	44.328731
1188.000000	44.328412
1187.000000	44.321123
1186.000000	44.310591
1185.000000	44.323238
1184.000000	44.323938
1183.000000	44.332662
1182.000000	44.353908
1181.000000	44.382317
1180.000000	44.406493
1179.000000	44.438437
1178.000000	44.477519
1177.000000	44.514695
1176.000000	44.553888
1175.000000	44.612102
1174.000000	44.676143
1173.000000	44.724653
1172.000000	44.787574
1171.000000	44.856105
1170.000000	44.917756
1169.000000	44.976617
1168.000000	45.044768
1167.000000	45.131528
1166.000000	45.201027
1165.000000	45.273849
1164.000000	45.355386
1163.000000	45.432217
1162.000000	45.501053
1161.000000	45.570177
1160.000000	45.656985
1159.000000	45.732424
1158.000000	45.796011
1157.000000	45.866162
1156.000000	45.934856
1155.000000	45.984097
1154.000000	46.031563
1153.000000	46.099206
1152.000000	46.169959
1151.000000	46.239376
1150.000000	46.290848
1149.000000	46.354362
1148.000000	46.413546
1147.000000	46.459076
1146.000000	46.509083
1145.000000	46.563182
1144.000000	46.624140
1143.000000	46.673121
1142.000000	46.698182
1141.000000	46.742812
1140.000000	46.804885
1139.000000	46.855686
1138.000000	46.882037
1137.000000	46.911765
1136.000000	46.959086
1135.000000	47.005708
1134.000000	47.051615
1133.000000	47.092771
1132.000000	47.120527
1131.000000	47.150975
1130.000000	47.195549
1129.000000	47.229384
1128.000000	47.260012
1127.000000	47.295225
1126.000000	47.315960
1125.000000	47.326998
1124.000000	47.338258
1123.000000	47.366171
1122.000000	47.378465
1121.000000	47.400114
1120.000000	47.418174
1119.000000	47.424935
1118.000000	47.449600
1117.000000	47.447584
1116.000000	47.449084
1115.000000	47.472522
1114.000000	47.486702
1113.000000	47.494750
1112.000000	47.496050
1111.000000	47.500119
1110.000000	47.506137
1109.000000	47.514376
1108.000000	47.520854
1107.000000	47.538786
1106.000000	47.541187
1105.000000	47.534526
1104.000000	47.538142
1103.000000	47.535592
1102.000000	47.534260
1101.000000	47.526609
1100.000000	47.535360
1099.000000	47.540048
1098.000000	47.552828
1097.000000	47.567654
1096.000000	47.558733
1095.000000	47.548689
1094.000000	47.547699
1093.000000	47.533144
1092.000000	47.547407
1091.000000	47.564289
1090.000000	47.557060
1089.000000	47.561552
1088.000000	47.571295
1087.000000	47.558714
1086.000000	47.562790
1085.000000	47.535595
1084.000000	47.537595
1083.000000	47.544487
1082.000000	47.544836
1081.000000	47.550087
1080.000000	47.544359
1079.000000	47.507960
1078.000000	47.516303
1077.000000	47.509629
1076.000000	47.524634
1075.000000	47.534378
1074.000000	47.517233
1073.000000	47.510707
1072.000000	47.482071
1071.000000	47.476592
1070.000000	47.500415
1069.000000	47.488780
1068.000000	47.478174
1067.000000	47.487612
1066.000000	47.474221
1065.000000	47.445828
1064.000000	47.430924
1063.000000	47.449294
1062.000000	47.445562
1061.000000	47.445917
1060.000000	47.429377
1059.000000	47.434594
1058.000000	47.398534
1057.000000	47.376334
1056.000000	47.399446
1055.000000	47.385427
1054.000000	47.397437
1053.000000	47.393161
1052.000000	47.362088
1051.000000	47.347316
1050.000000	47.346378
1049.000000	47.365091
1048.000000	47.297268
1047.000000	47.314173
1046.000000	47.320216
1045.000000	47.316324
1044.000000	47.335295
1043.000000	47.283626
1042.000000	47.278371
1041.000000	47.307604
1040.000000	47.308405
1039.000000	47.261668
1038.000000	47.241813
1037.000000	47.275209
1036.000000	47.280242
1035.000000	47.259747
1034.000000	47.249152
1033.000000	47.260763
1032.000000	47.261956
1031.000000	47.232968
1030.000000	47.239552
1029.000000	47.236652
1028.000000	47.230259
1027.000000	47.231455
1026.000000	47.230844
1025.000000	47.219045
1024.000000	47.221334
1023.000000	47.224065
1022.000000	47.223099
1021.000000	47.227058
1020.000000	47.215450
1019.000000	47.223024
1018.000000	47.229069
1017.000000	47.214995
1016.000000	47.222623
1015.000000	47.233676
1014.000000	47.235574
1013.000000	47.213619
1012.000000	47.206348
1011.000000	47.214178
1010.000000	47.235434
1009.000000	47.246364
1008.000000	47.251238
1007.000000	47.240498
1006.000000	47.214746
1005.000000	47.234549
1004.000000	47.247373
1003.000000	47.259430
1002.000000	47.260548
1001.000000	47.245455
1000.000000	47.238128
999.000000	47.266690
998.000000	47.279524
997.000000	47.290989
996.000000	47.300178
995.000000	47.304455
994.000000	47.323491
993.000000	47.325170
992.000000	47.337160
991.000000	47.349942
990.000000	47.339527
989.000000	47.329224
988.000000	47.345422
987.000000	47.340102
986.000000	47.350579
985.000000	47.374952
984.000000	47.379641
983.000000	47.374201
982.000000	47.380497
981.000000	47.385097
980.000000	47.388753
979.000000	47.399161
978.000000	47.410971
977.000000	47.413470
976.000000	47.421122
975.000000	47.408990
974.000000	47.418793
973.000000	47.425478
972.000000	47.429273
971.000000	47.441073
970.000000	47.438986
969.000000	47.442590
968.000000	47.463524
967.000000	47.481550
966.000000	47.484625
965.000000	47.471125
964.000000	47.470536
963.000000	47.494612
962.000000	47.516310
961.000000	47.526602
960.000000	47.517662
959.000000	47.520993
958.000000	47.531813
957.000000	47.535423
956.000000	47.524340
955.000000	47.522323
954.000000	47.554028
953.000000	47.568812
952.000000	47.563548
951.000000	47.561574
950.000000	47.554347
949.000000	47.564190
948.000000	47.573228
947.000000	47.592126
946.000000	47.605551
945.000000	47.608820
944.000000	47.619191
943.000000	47.598525
942.000000	47.581303
941.000000	47.595477
940.000000	47.598456
939.000000	47.599125
938.000000	47.599747
937.000000	47.582591
936.000000	47.559124
935.000000	47.580760
934.000000	47.616120
933.000000	47.595647
932.000000	47.600081
931.000000	47.600264
930.000000	47.581842
929.000000	47.578884
928.000000	47.565828
927.000000	47.564971
926.000000	47.563449
925.000000	47.548847
924.000000	47.551609
923.000000	47.546785
922.000000	47.557694
921.000000	47.533412
920.000000	47.535711
919.000000	47.552394
918.000000	47.532241
917.000000	47.546099
916.000000	47.537980
915.000000	47.546618
914.000000	47.564104
913.000000	47.510709
912.000000	47.500286
911.000000	47.536891
910.000000	47.554642
909.000000	47.572251
908.000000	47.563199
907.000000	47.558704
906.000000	47.522783
905.000000	47.530903
904.000000	47.566216
903.000000	47.516895
902.000000	47.546886
901.000000	47.573715
900.000000	47.544168
899.000000	47.549048
898.000000	47.550233
897.000000	47.556481
896.000000	47.562801
895.000000	47.523303
894.000000	47.559834
893.000000	47.560388
892.000000	47.614535
891.000000	47.568180
890.000000	47.550294
889.000000	47.541753
888.000000	47.604400
887.000000	47.681778
886.000000	47.654543
885.000000	47.615039
884.000000	47.712398
883.000000	47.623062
882.000000	47.587955
881.000000	47.602367
880.000000	47.627832
879.000000	47.635908
878.000000	47.597883
877.000000	47.654121
876.000000	47.584703
875.000000	47.593458
874.000000	47.653885
873.000000	47.614947
872.000000	47.723733
871.000000	47.674419
870.000000	47.679336
869.000000	47.658330
868.000000	47.584698
867.000000	47.602389
866.000000	47.575418
865.000000	47.564783
864.000000	47.674865
863.000000	47.582563
862.000000	47.623921
861.000000	47.583274
860.000000	47.617354
859.000000	47.155421
858.000000	47.344572
857.000000	47.256365
856.000000	47.276885
855.000000	47.285380
854.000000	47.146403
853.000000	47.248020
852.000000	47.052196
851.000000	47.268560
850.000000	47.198362
849.000000	47.316655
848.000000	46.986306
847.000000	46.936470
846.000000	47.121078
845.000000	47.298474
844.000000	47.107670
843.000000	47.051471
842.000000	47.177394
841.000000	47.253956
840.000000	47.240905
839.000000	47.247874
838.000000	47.148090
837.000000	47.196989
836.000000	47.181618
835.000000	47.055832
834.000000	47.189425
833.000000	47.124494
832.000000	47.060691
831.000000	47.076258
830.000000	47.152142
829.000000	47.136099
828.000000	47.160996
827.000000	47.016998
826.000000	46.991217
825.000000	47.056609
824.000000	47.010450
823.000000	47.069940
822.000000	47.022155
821.000000	47.002542
820.000000	46.986716
819.000000	47.039321
818.000000	47.017288
817.000000	47.096407
816.000000	47.017546
815.000000	47.073333
814.000000	47.010173
813.000000	46.994800
812.000000	46.928803
811.000000	47.017029
810.000000	47.112642
809.000000	47.049824
808.000000	47.075456
807.000000	47.082998
806.000000	47.077065
805.000000	47.029300
804.000000	47.019088
803.000000	46.953909
802.000000	46.988323
801.000000	47.147654
800.000000	46.964091
799.000000	46.974333
798.000000	47.001014
797.000000	46.920781
796.000000	46.981846
795.000000	47.041766
794.000000	46.906218
793.000000	47.013686
792.000000	46.902922
791.000000	46.950225
790.000000	46.937512
789.000000	46.969594
788.000000	46.991906
787.000000	46.957692
786.000000	46.960641
785.000000	47.031115
784.000000	47.006020
783.000000	46.884575
782.000000	46.833054
781.000000	46.842455
780.000000	46.905968
779.000000	46.865500
778.000000	46.926265
777.000000	46.949706
776.000000	46.923779
775.000000	46.728217
774.000000	46.885857
773.000000	46.883473
772.000000	46.810660
771.000000	46.769924
770.000000	46.830675
769.000000	46.818729
768.000000	46.821290
767.000000	46.791177
766.000000	46.715539
765.000000	46.778268
764.000000	46.786299
763.000000	46.733835
762.000000	46.708043
761.000000	46.705039
760.000000	46.702618
759.000000	46.689494
758.000000	46.695444
757.000000	46.668417
756.000000	46.674976
755.000000	46.592198
754.000000	46.572685
753.000000	46.603872
752.000000	46.572465
751.000000	46.614084
750.000000	46.576001
749.000000	46.504851
748.000000	46.512499
747.000000	46.498069
746.000000	46.586708
745.000000	46.533926
744.000000	46.486257
743.000000	46.488391
742.000000	46.438931
741.000000	46.425843
740.000000	46.415843
739.000000	46.426910
738.000000	46.409512
737.000000	46.407083
736.000000	46.412731
735.000000	46.390261
734.000000	46.363671
733.000000	46.334530
732.000000	46.340959
731.000000	46.293447
730.000000	46.229398
729.000000	46.245102
728.000000	46.266440
727.000000	46.223111
726.000000	46.258582
725.000000	46.241644
724.000000	46.144272
723.000000	46.122620
722.000000	46.124255
721.000000	46.115799
720.000000	46.126972
719.000000	46.097747
718.000000	46.121408
717.000000	46.129686
716.000000	46.074711
715.000000	46.043339
714.000000	45.999563
713.000000	45.935694
712.000000	45.963033
711.000000	46.000033
710.000000	45.967977
709.000000	45.953652
708.000000	45.935204
707.000000	45.911790
706.000000	45.873034
705.000000	45.884321
704.000000	45.905530
703.000000	45.896486
702.000000	45.892563
701.000000	45.864634
700.000000	45.836409
699.000000	45.804233
698.000000	45.807872
697.000000	45.795334
696.000000	45.745150
695.000000	45.738832
694.000000	45.725017
693.000000	45.675922
692.000000	45.670739
691.000000	45.691586
690.000000	45.676534
689.000000	45.652907
688.000000	45.598248
687.000000	45.548528
686.000000	45.567878
685.000000	45.547145
684.000000	45.523091
683.000000	45.512747
682.000000	45.543634
681.000000	45.536307
680.000000	45.459421
679.000000	45.472318
678.000000	45.484271
677.000000	45.461302
676.000000	45.452833
675.000000	45.404414
674.000000	45.395114
673.000000	45.366346
672.000000	45.345431
671.000000	45.332319
670.000000	45.329963
669.000000	45.287992
668.000000	45.235750
667.000000	45.253162
666.000000	45.254538
665.000000	45.216529
664.000000	45.185662
663.000000	45.166623
662.000000	45.165645
661.000000	45.121681
660.000000	45.085527
659.000000	45.071611
658.000000	45.073913
657.000000	45.046734
656.000000	44.972467
655.000000	44.970950
654.000000	44.970167
653.000000	44.955938
652.000000	44.906058
651.000000	44.832717
650.000000	44.829284
649.000000	44.824322
648.000000	44.806898
647.000000	44.776014
646.000000	44.759661
645.000000	44.755623
644.000000	44.674007
643.000000	44.679855
642.000000	44.658283
641.000000	44.621122
640.000000	44.617039
639.000000	44.570546
638.000000	44.537046
637.000000	44.540821
636.000000	44.465124
635.000000	44.405905
634.000000	44.402149
633.000000	44.405194
632.000000	44.351482
631.000000	44.319676
630.000000	44.295063
629.000000	44.287622
628.000000	44.240604
627.000000	44.211047
626.000000	44.173240
625.000000	44.155337
624.000000	44.126255
623.000000	44.129507
622.000000	44.122851
621.000000	44.070235
620.000000	44.013936
619.000000	44.017290
618.000000	43.950135
617.000000	43.940667
616.000000	43.934755
615.000000	43.920999
614.000000	43.914452
613.000000	43.899420
612.000000	43.854286
611.000000	43.857254
610.000000	43.783305
609.000000	43.758619
608.000000	43.737689
607.000000	43.693881
606.000000	43.694776
605.000000	43.688091
604.000000	43.676730
603.000000	43.658312
602.000000	43.652509
601.000000	43.590703
600.000000	43.563860
599.000000	43.559236
598.000000	43.531261
597.000000	43.517377
596.000000	43.474533
595.000000	43.495914
594.000000	43.486797
593.000000	43.426038
592.000000	43.386947
591.000000	43.373219
590.000000	43.366766
589.000000	43.356837
588.000000	43.326349
587.000000	43.291237
586.000000	43.281265
585.000000	43.272942
584.000000	43.217493
583.000000	43.185361
582.000000	43.183432
581.000000	43.190321
580.000000	43.104133
579.000000	43.102704
578.000000	43.071485
577.000000	43.057084
576.000000	43.029469
575.000000	43.009855
574.000000	42.957993
573.000000	42.939515
572.000000	42.939261
571.000000	42.906945
570.000000	42.928668
569.000000	42.860144
568.000000	42.885757
567.000000	42.801074
566.000000	42.803145
565.000000	42.744170
564.000000	42.770042
563.000000	42.744265
562.000000	42.697405
561.000000	42.672013
560.000000	42.628257
559.000000	42.634374
558.000000	42.582667
557.000000	42.556580
556.000000	42.548943
555.000000	42.516602
554.000000	42.545474
553.000000	42.507957
552.000000	42.451918
551.000000	42.445716
550.000000	42.414399
549.000000	42.379216
548.000000	42.357186
547.000000	42.332166
546.000000	42.286558
545.000000	42.295620
544.000000	42.258109
543.000000	42.236486
542.000000	42.204510
541.000000	42.204402
540.000000	42.142065
539.000000	42.136888
538.000000	42.109110
537.000000	42.066731
536.000000	42.015343
535.000000	42.019424
534.000000	42.008553
533.000000	41.971175
532.000000	41.963864
531.000000	41.970950
530.000000	41.888439
529.000000	41.849468
528.000000	41.860461
527.000000	41.819595
526.000000	41.836626
525.000000	41.816082
524.000000	41.781227
523.000000	41.768516
522.000000	41.733579
521.000000	41.725344
520.000000	41.690856
519.000000	41.643363
518.000000	41.629323
517.000000	41.631540
516.000000	41.570524
515.000000	41.540011
514.000000	41.513690
513.000000	41.493346
512.000000	41.477630
511.000000	41.452223
510.000000	41.390148
509.000000	41.354291
508.000000	41.348021
507.000000	41.302056
506.000000	41.265780
505.000000	41.250233
504.000000	41.199672
503.000000	41.160215
502.000000	41.153180
501.000000	41.080461
500.000000	41.030411
499.000000	41.017501
498.000000	40.966677
497.000000	40.919146
496.000000	40.879538
495.000000	40.838723
494.000000	40.800937
493.000000	40.732807
492.000000	40.672369
491.000000	40.632598
490.000000	40.608831
489.000000	40.531985
488.000000	40.466365
487.000000	40.423592
486.000000	40.420342
485.000000	40.419573
484.000000	40.341962
483.000000	40.309957
482.000000	40.255447
481.000000	40.181856
480.000000	40.137173
479.000000	40.094688
478.000000	40.011474
477.000000	39.930765
476.000000	39.858666
475.000000	39.780258
474.000000	39.717781
473.000000	39.646398
472.000000	39.595931
471.000000	39.527309
470.000000	39.457006
469.000000	39.390205
468.000000	39.325275
467.000000	39.252727
466.000000	39.152892
465.000000	39.068501
464.000000	39.005425
463.000000	38.925142
462.000000	38.877135
461.000000	38.826580
460.000000	38.722919
459.000000	38.618761
458.000000	38.520113
457.000000	38.444713
456.000000	38.362217
455.000000	38.287416
454.000000	38.191421
453.000000	38.083004
452.000000	37.997555
451.000000	37.924230
450.000000	37.810269
449.000000	37.722450
448.000000	37.638987
447.000000	37.529455
446.000000	37.410838
445.000000	37.354125
444.000000	37.254180
443.000000	37.137270
442.000000	37.051593
441.000000	36.940860
440.000000	36.799226
439.000000	36.705024
438.000000	36.591893
437.000000	36.513700
436.000000	36.431482
435.000000	36.321680
434.000000	36.206546
433.000000	36.094827
432.000000	35.987380
431.000000	35.862046
430.000000	35.728369
429.000000	35.619614
428.000000	35.508554
427.000000	35.391015
426.000000	35.309273
425.000000	35.181730
424.000000	35.034438
423.000000	34.945189
422.000000	34.826290
421.000000	34.732441
420.000000	34.647204
419.000000	34.535231
418.000000	34.423907
417.000000	34.329899
416.000000	34.238911
415.000000	34.131466
414.000000	34.075316
413.000000	33.991272
412.000000	33.933264
411.000000	33.913784
410.000000	33.825596
409.000000	33.792188
408.000000	33.791050
407.000000	33.843318
406.000000	33.801120
405.000000	33.772021
404.000000	33.788874
403.000000	33.797949
402.000000	33.840557
401.000000	33.844625
400.000000	33.830532
399.000000	33.859404
398.000000	33.891112
397.000000	33.889714
396.000000	33.888774
395.000000	33.936466
394.000000	33.938807
393.000000	33.912445
392.000000	33.912453
391.000000	33.936497
390.000000	33.911276
389.000000	33.946733
388.000000	33.983227
387.000000	33.933119
386.000000	33.881916
385.000000	33.909401
384.000000	33.879828
383.000000	33.878623
382.000000	33.823943
381.000000	33.894830
380.000000	33.722812
379.000000	33.745929
378.000000	33.664456
377.000000	33.685048
376.000000	33.667820
375.000000	33.588538
374.000000	33.455915
373.000000	33.459475
372.000000	33.468898
371.000000	33.407092
370.000000	33.436632
369.000000	33.318705
368.000000	33.282264
367.000000	33.268198
366.000000	33.251749
365.000000	33.179932
364.000000	33.151119
363.000000	33.040349
362.000000	33.058796
361.000000	32.900816
360.000000	32.850936
359.000000	32.714424
358.000000	32.854122
357.000000	32.800859
356.000000	32.760145
355.000000	32.705578
354.000000	32.691352
353.000000	32.670223
352.000000	32.618507
351.000000	32.538787
350.000000	32.447633
349.000000	32.535109
348.000000	32.579011
347.000000	32.438069
346.000000	32.367126
345.000000	32.355667
344.000000	32.191979
343.000000	32.268167
342.000000	32.147101
341.000000	32.230300
340.000000	32.224023
339.000000	32.224650
338.000000	32.161291
337.000000	32.210429
336.000000	32.098221
335.000000	31.990517
334.000000	32.090690
333.000000	32.023392
332.000000	31.874461
331.000000	31.936219
330.000000	31.960725
329.000000	31.956008
328.000000	32.153568
327.000000	31.888959
326.000000	31.891153
325.000000	32.032551
324.000000	31.890594
323.000000	31.915322
322.000000	31.913517
321.000000	31.792533
320.000000	31.972850
319.000000	31.983253
318.000000	31.812535
317.000000	32.034194
316.000000	31.858363
315.000000	31.863895
314.000000	31.920369
313.000000	31.953758
312.000000	31.894880
311.000000	31.879434
310.000000	31.872433
309.000000	31.683465
308.000000	31.565874
307.000000	31.670786
306.000000	31.559901
305.000000	31.583622
304.000000	31.506302
303.000000	31.398542
302.000000	31.257994
301.000000	31.243823
300.000000	31.143507
299.000000	31.033067
298.000000	30.846178
297.000000	30.752151
296.000000	30.454069
295.000000	29.968164
294.000000	29.685135
293.000000	29.255609
292.000000	28.622482
291.000000	27.829139
290.000000	27.207229
289.000000	26.590318
288.000000	26.094721
287.000000	25.563629
286.000000	25.256446
285.000000	25.067666
284.000000	25.032524
283.000000	25.035321
282.000000	25.042388
281.000000	25.122372
280.000000	25.069019
279.000000	25.174406
278.000000	25.330445
277.000000	25.506415
276.000000	25.611782
275.000000	25.920639
274.000000	26.186726
273.000000	26.505107
272.000000	26.780118
271.000000	26.888900
270.000000	26.961148
269.000000	27.199405
268.000000	27.366887
267.000000	27.609703
266.000000	27.720065
265.000000	28.019204
264.000000	28.294414
263.000000	28.604903
262.000000	28.930090
261.000000	29.063459
260.000000	29.173445
259.000000	29.371385
258.000000	29.646485
257.000000	29.948330
256.000000	30.208620
255.000000	30.390992
254.000000	30.436013
253.000000	30.356751
252.000000	30.174862
251.000000	29.914096
250.000000	29.597769
249.000000	29.089130
248.000000	28.393591
247.000000	27.586067
246.000000	26.661360
245.000000	25.598924
244.000000	24.487788
243.000000	23.268650
242.000000	22.040392
241.000000	20.954543
240.000000	19.949066
239.000000	19.076229
238.000000	18.243627
237.000000	17.497861
236.000000	16.910698
235.000000	16.434041
234.000000	15.907234
233.000000	15.367370
232.000000	14.998743
231.000000	14.652569
230.000000	14.273753
229.000000	13.894503
228.000000	13.627974
227.000000	13.417767
226.000000	13.135967
225.000000	12.903739
224.000000	12.773185
223.000000	12.632410
222.000000	12.568401
221.000000	12.576988
220.000000	12.545906
219.000000	12.519551
218.000000	12.554386
217.000000	12.621264
216.000000	12.735647
215.000000	12.946523
214.000000	13.116236
213.000000	13.153442
212.000000	13.387844
211.000000	13.602964
210.000000	13.772046
209.000000	14.147982
208.000000	14.548868
207.000000	14.770549
206.000000	15.131612
205.000000	15.546802
204.000000	15.946603
203.000000	16.399100
202.000000	17.051034
201.000000	17.638467
200.000000	18.183913
