PE IR       SUBTECH     SPECTRUM    ASCII       PEDS        4.00        
   -1
Peau036_1.ASC
23/06/14
15:20:10.00
23/06/14
15:24:21.00
uco
Sample 036 By uco Date Wednesday, June 14 2023
450.000000
#HDR
-1
-1
#GR
cm-1
A
1.0
0.0
4000.000000
-1.000000
3551
8
0.038878
0.002428
#DATA
4000.000000	0.002840
3999.000000	0.002838
3998.000000	0.002836
3997.000000	0.002833
3996.000000	0.002841
3995.000000	0.002861
3994.000000	0.002887
3993.000000	0.002908
3992.000000	0.002921
3991.000000	0.002931
3990.000000	0.002944
3989.000000	0.002957
3988.000000	0.002961
3987.000000	0.002950
3986.000000	0.002927
3985.000000	0.002906
3984.000000	0.002897
3983.000000	0.002899
3982.000000	0.002910
3981.000000	0.002923
3980.000000	0.002937
3979.000000	0.002952
3978.000000	0.002970
3977.000000	0.002988
3976.000000	0.003001
3975.000000	0.003003
3974.000000	0.002991
3973.000000	0.002970
3972.000000	0.002950
3971.000000	0.002939
3970.000000	0.002936
3969.000000	0.002940
3968.000000	0.002945
3967.000000	0.002951
3966.000000	0.002959
3965.000000	0.002970
3964.000000	0.002984
3963.000000	0.002995
3962.000000	0.003003
3961.000000	0.003006
3960.000000	0.003012
3959.000000	0.003027
3958.000000	0.003050
3957.000000	0.003072
3956.000000	0.003080
3955.000000	0.003066
3954.000000	0.003039
3953.000000	0.003018
3952.000000	0.003018
3951.000000	0.003040
3950.000000	0.003071
3949.000000	0.003096
3948.000000	0.003109
3947.000000	0.003114
3946.000000	0.003121
3945.000000	0.003133
3944.000000	0.003145
3943.000000	0.003152
3942.000000	0.003146
3941.000000	0.003130
3940.000000	0.003110
3939.000000	0.003095
3938.000000	0.003093
3937.000000	0.003105
3936.000000	0.003123
3935.000000	0.003139
3934.000000	0.003149
3933.000000	0.003154
3932.000000	0.003154
3931.000000	0.003147
3930.000000	0.003133
3929.000000	0.003117
3928.000000	0.003104
3927.000000	0.003099
3926.000000	0.003103
3925.000000	0.003114
3924.000000	0.003130
3923.000000	0.003144
3922.000000	0.003145
3921.000000	0.003133
3920.000000	0.003115
3919.000000	0.003100
3918.000000	0.003088
3917.000000	0.003076
3916.000000	0.003063
3915.000000	0.003052
3914.000000	0.003050
3913.000000	0.003061
3912.000000	0.003082
3911.000000	0.003106
3910.000000	0.003124
3909.000000	0.003138
3908.000000	0.003153
3907.000000	0.003175
3906.000000	0.003200
3905.000000	0.003221
3904.000000	0.003234
3903.000000	0.003240
3902.000000	0.003237
3901.000000	0.003222
3900.000000	0.003197
3899.000000	0.003171
3898.000000	0.003151
3897.000000	0.003142
3896.000000	0.003145
3895.000000	0.003158
3894.000000	0.003174
3893.000000	0.003181
3892.000000	0.003171
3891.000000	0.003153
3890.000000	0.003141
3889.000000	0.003135
3888.000000	0.003132
3887.000000	0.003135
3886.000000	0.003149
3885.000000	0.003173
3884.000000	0.003192
3883.000000	0.003190
3882.000000	0.003167
3881.000000	0.003143
3880.000000	0.003134
3879.000000	0.003140
3878.000000	0.003146
3877.000000	0.003141
3876.000000	0.003132
3875.000000	0.003132
3874.000000	0.003147
3873.000000	0.003169
3872.000000	0.003177
3871.000000	0.003158
3870.000000	0.003129
3869.000000	0.003118
3868.000000	0.003131
3867.000000	0.003148
3866.000000	0.003155
3865.000000	0.003158
3864.000000	0.003161
3863.000000	0.003162
3862.000000	0.003163
3861.000000	0.003170
3860.000000	0.003189
3859.000000	0.003214
3858.000000	0.003230
3857.000000	0.003230
3856.000000	0.003215
3855.000000	0.003196
3854.000000	0.003185
3853.000000	0.003184
3852.000000	0.003185
3851.000000	0.003170
3850.000000	0.003143
3849.000000	0.003134
3848.000000	0.003148
3847.000000	0.003168
3846.000000	0.003175
3845.000000	0.003173
3844.000000	0.003178
3843.000000	0.003202
3842.000000	0.003235
3841.000000	0.003256
3840.000000	0.003250
3839.000000	0.003220
3838.000000	0.003182
3837.000000	0.003152
3836.000000	0.003133
3835.000000	0.003121
3834.000000	0.003112
3833.000000	0.003105
3832.000000	0.003097
3831.000000	0.003089
3830.000000	0.003082
3829.000000	0.003080
3828.000000	0.003084
3827.000000	0.003099
3826.000000	0.003125
3825.000000	0.003151
3824.000000	0.003160
3823.000000	0.003141
3822.000000	0.003112
3821.000000	0.003107
3820.000000	0.003138
3819.000000	0.003174
3818.000000	0.003174
3817.000000	0.003143
3816.000000	0.003116
3815.000000	0.003114
3814.000000	0.003123
3813.000000	0.003118
3812.000000	0.003103
3811.000000	0.003100
3810.000000	0.003114
3809.000000	0.003129
3808.000000	0.003136
3807.000000	0.003141
3806.000000	0.003153
3805.000000	0.003160
3804.000000	0.003140
3803.000000	0.003088
3802.000000	0.003039
3801.000000	0.003035
3800.000000	0.003082
3799.000000	0.003135
3798.000000	0.003156
3797.000000	0.003154
3796.000000	0.003148
3795.000000	0.003143
3794.000000	0.003137
3793.000000	0.003130
3792.000000	0.003136
3791.000000	0.003160
3790.000000	0.003191
3789.000000	0.003213
3788.000000	0.003218
3787.000000	0.003207
3786.000000	0.003193
3785.000000	0.003186
3784.000000	0.003190
3783.000000	0.003200
3782.000000	0.003207
3781.000000	0.003206
3780.000000	0.003204
3779.000000	0.003204
3778.000000	0.003206
3777.000000	0.003203
3776.000000	0.003193
3775.000000	0.003187
3774.000000	0.003189
3773.000000	0.003195
3772.000000	0.003199
3771.000000	0.003201
3770.000000	0.003207
3769.000000	0.003216
3768.000000	0.003217
3767.000000	0.003200
3766.000000	0.003174
3765.000000	0.003157
3764.000000	0.003155
3763.000000	0.003161
3762.000000	0.003167
3761.000000	0.003173
3760.000000	0.003180
3759.000000	0.003182
3758.000000	0.003172
3757.000000	0.003156
3756.000000	0.003147
3755.000000	0.003145
3754.000000	0.003143
3753.000000	0.003130
3752.000000	0.003104
3751.000000	0.003078
3750.000000	0.003064
3749.000000	0.003060
3748.000000	0.003049
3747.000000	0.003025
3746.000000	0.002999
3745.000000	0.002988
3744.000000	0.003005
3743.000000	0.003035
3742.000000	0.003047
3741.000000	0.003042
3740.000000	0.003052
3739.000000	0.003088
3738.000000	0.003134
3737.000000	0.003160
3736.000000	0.003147
3735.000000	0.003091
3734.000000	0.003012
3733.000000	0.002940
3732.000000	0.002903
3731.000000	0.002914
3730.000000	0.002965
3729.000000	0.003038
3728.000000	0.003118
3727.000000	0.003192
3726.000000	0.003248
3725.000000	0.003271
3724.000000	0.003256
3723.000000	0.003214
3722.000000	0.003167
3721.000000	0.003135
3720.000000	0.003121
3719.000000	0.003119
3718.000000	0.003123
3717.000000	0.003133
3716.000000	0.003144
3715.000000	0.003148
3714.000000	0.003143
3713.000000	0.003138
3712.000000	0.003141
3711.000000	0.003143
3710.000000	0.003124
3709.000000	0.003082
3708.000000	0.003031
3707.000000	0.002995
3706.000000	0.002980
3705.000000	0.002973
3704.000000	0.002963
3703.000000	0.002948
3702.000000	0.002942
3701.000000	0.002950
3700.000000	0.002968
3699.000000	0.002984
3698.000000	0.002994
3697.000000	0.003004
3696.000000	0.003013
3695.000000	0.003018
3694.000000	0.003007
3693.000000	0.002975
3692.000000	0.002922
3691.000000	0.002857
3690.000000	0.002797
3689.000000	0.002766
3688.000000	0.002775
3687.000000	0.002803
3686.000000	0.002827
3685.000000	0.002842
3684.000000	0.002862
3683.000000	0.002899
3682.000000	0.002949
3681.000000	0.002994
3680.000000	0.003016
3679.000000	0.003006
3678.000000	0.002964
3677.000000	0.002908
3676.000000	0.002871
3675.000000	0.002870
3674.000000	0.002878
3673.000000	0.002853
3672.000000	0.002802
3671.000000	0.002779
3670.000000	0.002817
3669.000000	0.002897
3668.000000	0.002963
3667.000000	0.002988
3666.000000	0.002992
3665.000000	0.003001
3664.000000	0.003021
3663.000000	0.003040
3662.000000	0.003049
3661.000000	0.003051
3660.000000	0.003050
3659.000000	0.003050
3658.000000	0.003051
3657.000000	0.003063
3656.000000	0.003091
3655.000000	0.003133
3654.000000	0.003174
3653.000000	0.003205
3652.000000	0.003234
3651.000000	0.003269
3650.000000	0.003311
3649.000000	0.003355
3648.000000	0.003399
3647.000000	0.003439
3646.000000	0.003470
3645.000000	0.003494
3644.000000	0.003513
3643.000000	0.003530
3642.000000	0.003549
3641.000000	0.003572
3640.000000	0.003601
3639.000000	0.003634
3638.000000	0.003669
3637.000000	0.003703
3636.000000	0.003730
3635.000000	0.003746
3634.000000	0.003754
3633.000000	0.003761
3632.000000	0.003774
3631.000000	0.003803
3630.000000	0.003852
3629.000000	0.003911
3628.000000	0.003957
3627.000000	0.003973
3626.000000	0.003961
3625.000000	0.003943
3624.000000	0.003940
3623.000000	0.003948
3622.000000	0.003959
3621.000000	0.003977
3620.000000	0.004021
3619.000000	0.004096
3618.000000	0.004183
3617.000000	0.004251
3616.000000	0.004285
3615.000000	0.004298
3614.000000	0.004311
3613.000000	0.004335
3612.000000	0.004360
3611.000000	0.004372
3610.000000	0.004374
3609.000000	0.004377
3608.000000	0.004389
3607.000000	0.004397
3606.000000	0.004393
3605.000000	0.004380
3604.000000	0.004371
3603.000000	0.004378
3602.000000	0.004406
3601.000000	0.004451
3600.000000	0.004499
3599.000000	0.004540
3598.000000	0.004573
3597.000000	0.004607
3596.000000	0.004648
3595.000000	0.004687
3594.000000	0.004710
3593.000000	0.004715
3592.000000	0.004718
3591.000000	0.004739
3590.000000	0.004785
3589.000000	0.004847
3588.000000	0.004900
3587.000000	0.004925
3586.000000	0.004925
3585.000000	0.004920
3584.000000	0.004931
3583.000000	0.004964
3582.000000	0.005009
3581.000000	0.005045
3580.000000	0.005062
3579.000000	0.005067
3578.000000	0.005079
3577.000000	0.005107
3576.000000	0.005150
3575.000000	0.005194
3574.000000	0.005229
3573.000000	0.005258
3572.000000	0.005293
3571.000000	0.005345
3570.000000	0.005418
3569.000000	0.005505
3568.000000	0.005591
3567.000000	0.005657
3566.000000	0.005694
3565.000000	0.005703
3564.000000	0.005694
3563.000000	0.005684
3562.000000	0.005686
3561.000000	0.005704
3560.000000	0.005740
3559.000000	0.005789
3558.000000	0.005845
3557.000000	0.005900
3556.000000	0.005948
3555.000000	0.005988
3554.000000	0.006024
3553.000000	0.006057
3552.000000	0.006088
3551.000000	0.006119
3550.000000	0.006150
3549.000000	0.006187
3548.000000	0.006233
3547.000000	0.006282
3546.000000	0.006318
3545.000000	0.006335
3544.000000	0.006340
3543.000000	0.006350
3542.000000	0.006378
3541.000000	0.006421
3540.000000	0.006469
3539.000000	0.006512
3538.000000	0.006543
3537.000000	0.006558
3536.000000	0.006557
3535.000000	0.006547
3534.000000	0.006539
3533.000000	0.006542
3532.000000	0.006561
3531.000000	0.006589
3530.000000	0.006617
3529.000000	0.006641
3528.000000	0.006662
3527.000000	0.006685
3526.000000	0.006712
3525.000000	0.006742
3524.000000	0.006771
3523.000000	0.006799
3522.000000	0.006824
3521.000000	0.006842
3520.000000	0.006849
3519.000000	0.006841
3518.000000	0.006824
3517.000000	0.006806
3516.000000	0.006798
3515.000000	0.006803
3514.000000	0.006815
3513.000000	0.006827
3512.000000	0.006837
3511.000000	0.006849
3510.000000	0.006870
3509.000000	0.006900
3508.000000	0.006933
3507.000000	0.006963
3506.000000	0.006989
3505.000000	0.007018
3504.000000	0.007054
3503.000000	0.007089
3502.000000	0.007109
3501.000000	0.007104
3500.000000	0.007077
3499.000000	0.007045
3498.000000	0.007023
3497.000000	0.007024
3496.000000	0.007054
3495.000000	0.007107
3494.000000	0.007166
3493.000000	0.007208
3492.000000	0.007221
3491.000000	0.007216
3490.000000	0.007218
3489.000000	0.007243
3488.000000	0.007287
3487.000000	0.007334
3486.000000	0.007369
3485.000000	0.007391
3484.000000	0.007408
3483.000000	0.007420
3482.000000	0.007424
3481.000000	0.007414
3480.000000	0.007395
3479.000000	0.007382
3478.000000	0.007386
3477.000000	0.007413
3476.000000	0.007455
3475.000000	0.007501
3474.000000	0.007538
3473.000000	0.007564
3472.000000	0.007577
3471.000000	0.007585
3470.000000	0.007593
3469.000000	0.007608
3468.000000	0.007628
3467.000000	0.007648
3466.000000	0.007663
3465.000000	0.007673
3464.000000	0.007685
3463.000000	0.007703
3462.000000	0.007727
3461.000000	0.007746
3460.000000	0.007753
3459.000000	0.007754
3458.000000	0.007758
3457.000000	0.007774
3456.000000	0.007800
3455.000000	0.007827
3454.000000	0.007853
3453.000000	0.007877
3452.000000	0.007903
3451.000000	0.007934
3450.000000	0.007969
3449.000000	0.008006
3448.000000	0.008036
3447.000000	0.008058
3446.000000	0.008074
3445.000000	0.008090
3444.000000	0.008109
3443.000000	0.008137
3442.000000	0.008171
3441.000000	0.008208
3440.000000	0.008241
3439.000000	0.008266
3438.000000	0.008286
3437.000000	0.008304
3436.000000	0.008322
3435.000000	0.008341
3434.000000	0.008363
3433.000000	0.008386
3432.000000	0.008411
3431.000000	0.008440
3430.000000	0.008470
3429.000000	0.008501
3428.000000	0.008530
3427.000000	0.008562
3426.000000	0.008597
3425.000000	0.008634
3424.000000	0.008667
3423.000000	0.008696
3422.000000	0.008730
3421.000000	0.008774
3420.000000	0.008821
3419.000000	0.008858
3418.000000	0.008883
3417.000000	0.008905
3416.000000	0.008936
3415.000000	0.008977
3414.000000	0.009024
3413.000000	0.009068
3412.000000	0.009103
3411.000000	0.009125
3410.000000	0.009136
3409.000000	0.009145
3408.000000	0.009165
3407.000000	0.009198
3406.000000	0.009237
3405.000000	0.009274
3404.000000	0.009308
3403.000000	0.009340
3402.000000	0.009371
3401.000000	0.009395
3400.000000	0.009413
3399.000000	0.009429
3398.000000	0.009448
3397.000000	0.009473
3396.000000	0.009496
3395.000000	0.009511
3394.000000	0.009516
3393.000000	0.009515
3392.000000	0.009514
3391.000000	0.009518
3390.000000	0.009524
3389.000000	0.009530
3388.000000	0.009534
3387.000000	0.009536
3386.000000	0.009541
3385.000000	0.009553
3384.000000	0.009571
3383.000000	0.009592
3382.000000	0.009606
3381.000000	0.009607
3380.000000	0.009597
3379.000000	0.009583
3378.000000	0.009577
3377.000000	0.009586
3376.000000	0.009607
3375.000000	0.009633
3374.000000	0.009659
3373.000000	0.009679
3372.000000	0.009694
3371.000000	0.009707
3370.000000	0.009724
3369.000000	0.009748
3368.000000	0.009776
3367.000000	0.009801
3366.000000	0.009817
3365.000000	0.009822
3364.000000	0.009819
3363.000000	0.009812
3362.000000	0.009811
3361.000000	0.009823
3360.000000	0.009852
3359.000000	0.009895
3358.000000	0.009946
3357.000000	0.009998
3356.000000	0.010043
3355.000000	0.010073
3354.000000	0.010084
3353.000000	0.010081
3352.000000	0.010078
3351.000000	0.010088
3350.000000	0.010115
3349.000000	0.010153
3348.000000	0.010185
3347.000000	0.010201
3346.000000	0.010208
3345.000000	0.010219
3344.000000	0.010243
3343.000000	0.010275
3342.000000	0.010303
3341.000000	0.010326
3340.000000	0.010351
3339.000000	0.010382
3338.000000	0.010420
3337.000000	0.010456
3336.000000	0.010485
3335.000000	0.010508
3334.000000	0.010527
3333.000000	0.010545
3332.000000	0.010562
3331.000000	0.010573
3330.000000	0.010579
3329.000000	0.010583
3328.000000	0.010593
3327.000000	0.010613
3326.000000	0.010642
3325.000000	0.010671
3324.000000	0.010695
3323.000000	0.010715
3322.000000	0.010740
3321.000000	0.010775
3320.000000	0.010817
3319.000000	0.010857
3318.000000	0.010887
3317.000000	0.010903
3316.000000	0.010907
3315.000000	0.010902
3314.000000	0.010894
3313.000000	0.010886
3312.000000	0.010880
3311.000000	0.010877
3310.000000	0.010876
3309.000000	0.010878
3308.000000	0.010885
3307.000000	0.010899
3306.000000	0.010919
3305.000000	0.010942
3304.000000	0.010966
3303.000000	0.010991
3302.000000	0.011018
3301.000000	0.011044
3300.000000	0.011059
3299.000000	0.011058
3298.000000	0.011043
3297.000000	0.011023
3296.000000	0.011007
3295.000000	0.011000
3294.000000	0.011004
3293.000000	0.011022
3292.000000	0.011051
3291.000000	0.011085
3290.000000	0.011113
3289.000000	0.011127
3288.000000	0.011125
3287.000000	0.011112
3286.000000	0.011097
3285.000000	0.011083
3284.000000	0.011070
3283.000000	0.011058
3282.000000	0.011049
3281.000000	0.011048
3280.000000	0.011053
3279.000000	0.011057
3278.000000	0.011057
3277.000000	0.011049
3276.000000	0.011036
3275.000000	0.011017
3274.000000	0.010995
3273.000000	0.010971
3272.000000	0.010944
3271.000000	0.010920
3270.000000	0.010901
3269.000000	0.010889
3268.000000	0.010877
3267.000000	0.010857
3266.000000	0.010827
3265.000000	0.010793
3264.000000	0.010763
3263.000000	0.010740
3262.000000	0.010724
3261.000000	0.010717
3260.000000	0.010718
3259.000000	0.010716
3258.000000	0.010699
3257.000000	0.010665
3256.000000	0.010624
3255.000000	0.010592
3254.000000	0.010576
3253.000000	0.010573
3252.000000	0.010574
3251.000000	0.010574
3250.000000	0.010570
3249.000000	0.010560
3248.000000	0.010543
3247.000000	0.010521
3246.000000	0.010497
3245.000000	0.010477
3244.000000	0.010460
3243.000000	0.010442
3242.000000	0.010424
3241.000000	0.010405
3240.000000	0.010385
3239.000000	0.010363
3238.000000	0.010339
3237.000000	0.010317
3236.000000	0.010300
3235.000000	0.010286
3234.000000	0.010273
3233.000000	0.010263
3232.000000	0.010258
3231.000000	0.010257
3230.000000	0.010257
3229.000000	0.010255
3228.000000	0.010247
3227.000000	0.010231
3226.000000	0.010205
3225.000000	0.010172
3224.000000	0.010143
3223.000000	0.010124
3222.000000	0.010115
3221.000000	0.010106
3220.000000	0.010094
3219.000000	0.010078
3218.000000	0.010064
3217.000000	0.010050
3216.000000	0.010033
3215.000000	0.010010
3214.000000	0.009982
3213.000000	0.009951
3212.000000	0.009919
3211.000000	0.009891
3210.000000	0.009873
3209.000000	0.009865
3208.000000	0.009860
3207.000000	0.009849
3206.000000	0.009827
3205.000000	0.009802
3204.000000	0.009782
3203.000000	0.009776
3202.000000	0.009780
3201.000000	0.009786
3200.000000	0.009785
3199.000000	0.009773
3198.000000	0.009756
3197.000000	0.009740
3196.000000	0.009730
3195.000000	0.009723
3194.000000	0.009715
3193.000000	0.009703
3192.000000	0.009686
3191.000000	0.009668
3190.000000	0.009651
3189.000000	0.009639
3188.000000	0.009627
3187.000000	0.009613
3186.000000	0.009593
3185.000000	0.009568
3184.000000	0.009543
3183.000000	0.009520
3182.000000	0.009500
3181.000000	0.009481
3180.000000	0.009460
3179.000000	0.009440
3178.000000	0.009420
3177.000000	0.009400
3176.000000	0.009379
3175.000000	0.009355
3174.000000	0.009330
3173.000000	0.009304
3172.000000	0.009280
3171.000000	0.009265
3170.000000	0.009260
3169.000000	0.009259
3168.000000	0.009243
3167.000000	0.009201
3166.000000	0.009142
3165.000000	0.009088
3164.000000	0.009056
3163.000000	0.009047
3162.000000	0.009049
3161.000000	0.009046
3160.000000	0.009029
3159.000000	0.009002
3158.000000	0.008976
3157.000000	0.008959
3156.000000	0.008949
3155.000000	0.008941
3154.000000	0.008929
3153.000000	0.008914
3152.000000	0.008901
3151.000000	0.008889
3150.000000	0.008877
3149.000000	0.008860
3148.000000	0.008836
3147.000000	0.008806
3146.000000	0.008781
3145.000000	0.008769
3144.000000	0.008770
3143.000000	0.008777
3142.000000	0.008780
3141.000000	0.008774
3140.000000	0.008757
3139.000000	0.008732
3138.000000	0.008709
3137.000000	0.008693
3136.000000	0.008683
3135.000000	0.008672
3134.000000	0.008654
3133.000000	0.008635
3132.000000	0.008621
3131.000000	0.008619
3130.000000	0.008625
3129.000000	0.008635
3128.000000	0.008642
3127.000000	0.008641
3126.000000	0.008630
3125.000000	0.008608
3124.000000	0.008583
3123.000000	0.008561
3122.000000	0.008545
3121.000000	0.008539
3120.000000	0.008537
3119.000000	0.008527
3118.000000	0.008500
3117.000000	0.008455
3116.000000	0.008408
3115.000000	0.008380
3114.000000	0.008381
3113.000000	0.008404
3112.000000	0.008431
3111.000000	0.008449
3110.000000	0.008456
3109.000000	0.008462
3108.000000	0.008473
3107.000000	0.008487
3106.000000	0.008498
3105.000000	0.008503
3104.000000	0.008505
3103.000000	0.008505
3102.000000	0.008504
3101.000000	0.008504
3100.000000	0.008505
3099.000000	0.008502
3098.000000	0.008491
3097.000000	0.008477
3096.000000	0.008475
3095.000000	0.008494
3094.000000	0.008529
3093.000000	0.008564
3092.000000	0.008582
3091.000000	0.008579
3090.000000	0.008565
3089.000000	0.008549
3088.000000	0.008536
3087.000000	0.008529
3086.000000	0.008529
3085.000000	0.008541
3084.000000	0.008564
3083.000000	0.008585
3082.000000	0.008591
3081.000000	0.008571
3080.000000	0.008529
3079.000000	0.008483
3078.000000	0.008454
3077.000000	0.008453
3076.000000	0.008475
3075.000000	0.008502
3074.000000	0.008522
3073.000000	0.008534
3072.000000	0.008541
3071.000000	0.008541
3070.000000	0.008531
3069.000000	0.008508
3068.000000	0.008477
3067.000000	0.008449
3066.000000	0.008436
3065.000000	0.008439
3064.000000	0.008452
3063.000000	0.008460
3062.000000	0.008457
3061.000000	0.008440
3060.000000	0.008413
3059.000000	0.008382
3058.000000	0.008352
3057.000000	0.008324
3056.000000	0.008302
3055.000000	0.008289
3054.000000	0.008286
3053.000000	0.008290
3052.000000	0.008290
3051.000000	0.008275
3050.000000	0.008247
3049.000000	0.008216
3048.000000	0.008193
3047.000000	0.008177
3046.000000	0.008156
3045.000000	0.008124
3044.000000	0.008087
3043.000000	0.008057
3042.000000	0.008044
3041.000000	0.008042
3040.000000	0.008041
3039.000000	0.008029
3038.000000	0.008005
3037.000000	0.007969
3036.000000	0.007930
3035.000000	0.007900
3034.000000	0.007882
3033.000000	0.007867
3032.000000	0.007839
3031.000000	0.007791
3030.000000	0.007731
3029.000000	0.007676
3028.000000	0.007635
3027.000000	0.007608
3026.000000	0.007589
3025.000000	0.007570
3024.000000	0.007543
3023.000000	0.007507
3022.000000	0.007463
3021.000000	0.007415
3020.000000	0.007366
3019.000000	0.007316
3018.000000	0.007265
3017.000000	0.007216
3016.000000	0.007176
3015.000000	0.007151
3014.000000	0.007136
3013.000000	0.007118
3012.000000	0.007088
3011.000000	0.007051
3010.000000	0.007022
3009.000000	0.007009
3008.000000	0.007000
3007.000000	0.006982
3006.000000	0.006954
3005.000000	0.006930
3004.000000	0.006918
3003.000000	0.006912
3002.000000	0.006899
3001.000000	0.006871
3000.000000	0.006833
2999.000000	0.006793
2998.000000	0.006764
2997.000000	0.006753
2996.000000	0.006763
2995.000000	0.006785
2994.000000	0.006806
2993.000000	0.006814
2992.000000	0.006800
2991.000000	0.006772
2990.000000	0.006752
2989.000000	0.006762
2988.000000	0.006811
2987.000000	0.006892
2986.000000	0.006989
2985.000000	0.007088
2984.000000	0.007184
2983.000000	0.007276
2982.000000	0.007370
2981.000000	0.007471
2980.000000	0.007582
2979.000000	0.007697
2978.000000	0.007807
2977.000000	0.007907
2976.000000	0.008004
2975.000000	0.008109
2974.000000	0.008233
2973.000000	0.008373
2972.000000	0.008518
2971.000000	0.008662
2970.000000	0.008810
2969.000000	0.008975
2968.000000	0.009161
2967.000000	0.009362
2966.000000	0.009568
2965.000000	0.009770
2964.000000	0.009956
2963.000000	0.010118
2962.000000	0.010255
2961.000000	0.010376
2960.000000	0.010484
2959.000000	0.010580
2958.000000	0.010670
2957.000000	0.010756
2956.000000	0.010841
2955.000000	0.010914
2954.000000	0.010964
2953.000000	0.010987
2952.000000	0.010985
2951.000000	0.010969
2950.000000	0.010951
2949.000000	0.010943
2948.000000	0.010951
2947.000000	0.010976
2946.000000	0.011021
2945.000000	0.011092
2944.000000	0.011193
2943.000000	0.011317
2942.000000	0.011463
2941.000000	0.011629
2940.000000	0.011818
2939.000000	0.012026
2938.000000	0.012246
2937.000000	0.012467
2936.000000	0.012682
2935.000000	0.012878
2934.000000	0.013056
2933.000000	0.013224
2932.000000	0.013396
2931.000000	0.013578
2930.000000	0.013769
2929.000000	0.013959
2928.000000	0.014144
2927.000000	0.014317
2926.000000	0.014476
2925.000000	0.014619
2924.000000	0.014750
2923.000000	0.014873
2922.000000	0.014988
2921.000000	0.015083
2920.000000	0.015137
2919.000000	0.015131
2918.000000	0.015059
2917.000000	0.014922
2916.000000	0.014715
2915.000000	0.014432
2914.000000	0.014076
2913.000000	0.013673
2912.000000	0.013266
2911.000000	0.012887
2910.000000	0.012553
2909.000000	0.012262
2908.000000	0.012004
2907.000000	0.011770
2906.000000	0.011553
2905.000000	0.011347
2904.000000	0.011143
2903.000000	0.010938
2902.000000	0.010745
2901.000000	0.010583
2900.000000	0.010458
2899.000000	0.010358
2898.000000	0.010259
2897.000000	0.010148
2896.000000	0.010026
2895.000000	0.009901
2894.000000	0.009779
2893.000000	0.009668
2892.000000	0.009574
2891.000000	0.009495
2890.000000	0.009424
2889.000000	0.009358
2888.000000	0.009300
2887.000000	0.009256
2886.000000	0.009226
2885.000000	0.009208
2884.000000	0.009200
2883.000000	0.009204
2882.000000	0.009228
2881.000000	0.009281
2880.000000	0.009358
2879.000000	0.009449
2878.000000	0.009544
2877.000000	0.009642
2876.000000	0.009740
2875.000000	0.009829
2874.000000	0.009897
2873.000000	0.009936
2872.000000	0.009955
2871.000000	0.009966
2870.000000	0.009978
2869.000000	0.009998
2868.000000	0.010029
2867.000000	0.010070
2866.000000	0.010117
2865.000000	0.010173
2864.000000	0.010245
2863.000000	0.010337
2862.000000	0.010451
2861.000000	0.010584
2860.000000	0.010736
2859.000000	0.010905
2858.000000	0.011088
2857.000000	0.011274
2856.000000	0.011460
2855.000000	0.011645
2854.000000	0.011832
2853.000000	0.012012
2852.000000	0.012158
2851.000000	0.012232
2850.000000	0.012201
2849.000000	0.012050
2848.000000	0.011790
2847.000000	0.011451
2846.000000	0.011068
2845.000000	0.010682
2844.000000	0.010325
2843.000000	0.010017
2842.000000	0.009759
2841.000000	0.009542
2840.000000	0.009357
2839.000000	0.009203
2838.000000	0.009072
2837.000000	0.008956
2836.000000	0.008847
2835.000000	0.008744
2834.000000	0.008651
2833.000000	0.008569
2832.000000	0.008500
2831.000000	0.008441
2830.000000	0.008395
2829.000000	0.008362
2828.000000	0.008335
2827.000000	0.008303
2826.000000	0.008258
2825.000000	0.008202
2824.000000	0.008141
2823.000000	0.008084
2822.000000	0.008039
2821.000000	0.008010
2820.000000	0.007999
2819.000000	0.008000
2818.000000	0.008004
2817.000000	0.008003
2816.000000	0.007989
2815.000000	0.007959
2814.000000	0.007918
2813.000000	0.007874
2812.000000	0.007833
2811.000000	0.007796
2810.000000	0.007761
2809.000000	0.007732
2808.000000	0.007713
2807.000000	0.007707
2806.000000	0.007708
2805.000000	0.007704
2804.000000	0.007687
2803.000000	0.007656
2802.000000	0.007624
2801.000000	0.007601
2800.000000	0.007594
2799.000000	0.007599
2798.000000	0.007605
2797.000000	0.007604
2796.000000	0.007596
2795.000000	0.007584
2794.000000	0.007574
2793.000000	0.007564
2792.000000	0.007549
2791.000000	0.007522
2790.000000	0.007483
2789.000000	0.007443
2788.000000	0.007414
2787.000000	0.007403
2786.000000	0.007406
2785.000000	0.007416
2784.000000	0.007423
2783.000000	0.007422
2782.000000	0.007414
2781.000000	0.007402
2780.000000	0.007388
2779.000000	0.007374
2778.000000	0.007365
2777.000000	0.007364
2776.000000	0.007369
2775.000000	0.007366
2774.000000	0.007350
2773.000000	0.007329
2772.000000	0.007316
2771.000000	0.007317
2770.000000	0.007327
2769.000000	0.007334
2768.000000	0.007333
2767.000000	0.007324
2766.000000	0.007309
2765.000000	0.007291
2764.000000	0.007274
2763.000000	0.007262
2762.000000	0.007253
2761.000000	0.007243
2760.000000	0.007235
2759.000000	0.007229
2758.000000	0.007224
2757.000000	0.007214
2756.000000	0.007198
2755.000000	0.007181
2754.000000	0.007167
2753.000000	0.007155
2752.000000	0.007141
2751.000000	0.007133
2750.000000	0.007141
2749.000000	0.007166
2748.000000	0.007191
2747.000000	0.007201
2746.000000	0.007195
2745.000000	0.007182
2744.000000	0.007173
2743.000000	0.007168
2742.000000	0.007163
2741.000000	0.007156
2740.000000	0.007146
2739.000000	0.007135
2738.000000	0.007127
2737.000000	0.007125
2736.000000	0.007128
2735.000000	0.007133
2734.000000	0.007133
2733.000000	0.007128
2732.000000	0.007118
2731.000000	0.007111
2730.000000	0.007110
2729.000000	0.007117
2728.000000	0.007125
2727.000000	0.007124
2726.000000	0.007110
2725.000000	0.007088
2724.000000	0.007064
2723.000000	0.007048
2722.000000	0.007043
2721.000000	0.007054
2720.000000	0.007072
2719.000000	0.007091
2718.000000	0.007104
2717.000000	0.007109
2716.000000	0.007105
2715.000000	0.007091
2714.000000	0.007071
2713.000000	0.007053
2712.000000	0.007044
2711.000000	0.007044
2710.000000	0.007049
2709.000000	0.007056
2708.000000	0.007056
2707.000000	0.007047
2706.000000	0.007029
2705.000000	0.007012
2704.000000	0.007003
2703.000000	0.007000
2702.000000	0.006996
2701.000000	0.006989
2700.000000	0.006979
2699.000000	0.006974
2698.000000	0.006976
2697.000000	0.006986
2696.000000	0.006993
2695.000000	0.006992
2694.000000	0.006982
2693.000000	0.006974
2692.000000	0.006973
2691.000000	0.006975
2690.000000	0.006974
2689.000000	0.006967
2688.000000	0.006957
2687.000000	0.006946
2686.000000	0.006941
2685.000000	0.006940
2684.000000	0.006942
2683.000000	0.006946
2682.000000	0.006953
2681.000000	0.006963
2680.000000	0.006973
2679.000000	0.006976
2678.000000	0.006969
2677.000000	0.006963
2676.000000	0.006964
2675.000000	0.006974
2674.000000	0.006987
2673.000000	0.006996
2672.000000	0.006998
2671.000000	0.006997
2670.000000	0.006997
2669.000000	0.007006
2668.000000	0.007016
2667.000000	0.007014
2666.000000	0.006992
2665.000000	0.006960
2664.000000	0.006940
2663.000000	0.006940
2662.000000	0.006957
2661.000000	0.006982
2660.000000	0.007002
2659.000000	0.007004
2658.000000	0.006982
2657.000000	0.006945
2656.000000	0.006914
2655.000000	0.006902
2654.000000	0.006901
2653.000000	0.006896
2652.000000	0.006880
2651.000000	0.006862
2650.000000	0.006851
2649.000000	0.006848
2648.000000	0.006845
2647.000000	0.006832
2646.000000	0.006805
2645.000000	0.006772
2644.000000	0.006743
2643.000000	0.006726
2642.000000	0.006721
2641.000000	0.006719
2640.000000	0.006716
2639.000000	0.006713
2638.000000	0.006706
2637.000000	0.006689
2636.000000	0.006656
2635.000000	0.006611
2634.000000	0.006567
2633.000000	0.006539
2632.000000	0.006533
2631.000000	0.006543
2630.000000	0.006562
2629.000000	0.006581
2628.000000	0.006589
2627.000000	0.006577
2626.000000	0.006543
2625.000000	0.006499
2624.000000	0.006460
2623.000000	0.006434
2622.000000	0.006413
2621.000000	0.006388
2620.000000	0.006361
2619.000000	0.006344
2618.000000	0.006347
2617.000000	0.006359
2616.000000	0.006359
2615.000000	0.006338
2614.000000	0.006304
2613.000000	0.006274
2612.000000	0.006256
2611.000000	0.006249
2610.000000	0.006249
2609.000000	0.006251
2608.000000	0.006247
2607.000000	0.006234
2606.000000	0.006218
2605.000000	0.006215
2604.000000	0.006233
2603.000000	0.006269
2602.000000	0.006311
2601.000000	0.006340
2600.000000	0.006341
2599.000000	0.006307
2598.000000	0.006249
2597.000000	0.006193
2596.000000	0.006155
2595.000000	0.006133
2594.000000	0.006115
2593.000000	0.006102
2592.000000	0.006105
2591.000000	0.006127
2590.000000	0.006154
2589.000000	0.006166
2588.000000	0.006151
2587.000000	0.006113
2586.000000	0.006066
2585.000000	0.006028
2584.000000	0.006013
2583.000000	0.006020
2582.000000	0.006038
2581.000000	0.006057
2580.000000	0.006073
2579.000000	0.006083
2578.000000	0.006088
2577.000000	0.006087
2576.000000	0.006077
2575.000000	0.006054
2574.000000	0.006017
2573.000000	0.005978
2572.000000	0.005955
2571.000000	0.005962
2570.000000	0.005991
2569.000000	0.006020
2568.000000	0.006028
2567.000000	0.006001
2566.000000	0.005951
2565.000000	0.005905
2564.000000	0.005891
2563.000000	0.005918
2562.000000	0.005971
2561.000000	0.006023
2560.000000	0.006054
2559.000000	0.006058
2558.000000	0.006042
2557.000000	0.006017
2556.000000	0.005996
2555.000000	0.005983
2554.000000	0.005973
2553.000000	0.005957
2552.000000	0.005932
2551.000000	0.005903
2550.000000	0.005875
2549.000000	0.005852
2548.000000	0.005840
2547.000000	0.005848
2546.000000	0.005875
2545.000000	0.005905
2544.000000	0.005918
2543.000000	0.005905
2542.000000	0.005873
2541.000000	0.005838
2540.000000	0.005814
2539.000000	0.005815
2538.000000	0.005844
2537.000000	0.005890
2536.000000	0.005928
2535.000000	0.005934
2534.000000	0.005909
2533.000000	0.005872
2532.000000	0.005850
2531.000000	0.005860
2530.000000	0.005897
2529.000000	0.005940
2528.000000	0.005969
2527.000000	0.005981
2526.000000	0.005991
2525.000000	0.006010
2524.000000	0.006034
2523.000000	0.006050
2522.000000	0.006059
2521.000000	0.006066
2520.000000	0.006068
2519.000000	0.006052
2518.000000	0.006012
2517.000000	0.005959
2516.000000	0.005919
2515.000000	0.005909
2514.000000	0.005929
2513.000000	0.005967
2512.000000	0.006005
2511.000000	0.006033
2510.000000	0.006050
2509.000000	0.006055
2508.000000	0.006043
2507.000000	0.006010
2506.000000	0.005965
2505.000000	0.005922
2504.000000	0.005888
2503.000000	0.005860
2502.000000	0.005833
2501.000000	0.005814
2500.000000	0.005809
2499.000000	0.005816
2498.000000	0.005825
2497.000000	0.005828
2496.000000	0.005821
2495.000000	0.005802
2494.000000	0.005771
2493.000000	0.005732
2492.000000	0.005700
2491.000000	0.005695
2490.000000	0.005719
2489.000000	0.005752
2488.000000	0.005763
2487.000000	0.005735
2486.000000	0.005680
2485.000000	0.005631
2484.000000	0.005610
2483.000000	0.005623
2482.000000	0.005652
2481.000000	0.005678
2480.000000	0.005682
2479.000000	0.005667
2478.000000	0.005649
2477.000000	0.005640
2476.000000	0.005637
2475.000000	0.005625
2474.000000	0.005600
2473.000000	0.005576
2472.000000	0.005564
2471.000000	0.005567
2470.000000	0.005575
2469.000000	0.005582
2468.000000	0.005588
2467.000000	0.005589
2466.000000	0.005580
2465.000000	0.005559
2464.000000	0.005529
2463.000000	0.005509
2462.000000	0.005515
2461.000000	0.005550
2460.000000	0.005598
2459.000000	0.005634
2458.000000	0.005650
2457.000000	0.005649
2456.000000	0.005635
2455.000000	0.005612
2454.000000	0.005588
2453.000000	0.005576
2452.000000	0.005583
2451.000000	0.005601
2450.000000	0.005616
2449.000000	0.005616
2448.000000	0.005598
2447.000000	0.005569
2446.000000	0.005542
2445.000000	0.005526
2444.000000	0.005528
2443.000000	0.005544
2442.000000	0.005567
2441.000000	0.005581
2440.000000	0.005568
2439.000000	0.005520
2438.000000	0.005456
2437.000000	0.005408
2436.000000	0.005403
2435.000000	0.005437
2434.000000	0.005483
2433.000000	0.005509
2432.000000	0.005499
2431.000000	0.005461
2430.000000	0.005412
2429.000000	0.005371
2428.000000	0.005352
2427.000000	0.005369
2426.000000	0.005419
2425.000000	0.005478
2424.000000	0.005518
2423.000000	0.005529
2422.000000	0.005526
2421.000000	0.005520
2420.000000	0.005505
2419.000000	0.005474
2418.000000	0.005430
2417.000000	0.005392
2416.000000	0.005374
2415.000000	0.005377
2414.000000	0.005395
2413.000000	0.005410
2412.000000	0.005407
2411.000000	0.005392
2410.000000	0.005393
2409.000000	0.005422
2408.000000	0.005454
2407.000000	0.005453
2406.000000	0.005417
2405.000000	0.005372
2404.000000	0.005346
2403.000000	0.005340
2402.000000	0.005342
2401.000000	0.005343
2400.000000	0.005333
2399.000000	0.005310
2398.000000	0.005282
2397.000000	0.005273
2396.000000	0.005293
2395.000000	0.005332
2394.000000	0.005367
2393.000000	0.005380
2392.000000	0.005368
2391.000000	0.005345
2390.000000	0.005336
2389.000000	0.005357
2388.000000	0.005401
2387.000000	0.005441
2386.000000	0.005454
2385.000000	0.005436
2384.000000	0.005394
2383.000000	0.005341
2382.000000	0.005291
2381.000000	0.005255
2380.000000	0.005235
2379.000000	0.005234
2378.000000	0.005263
2377.000000	0.005328
2376.000000	0.005411
2375.000000	0.005481
2374.000000	0.005519
2373.000000	0.005522
2372.000000	0.005497
2371.000000	0.005462
2370.000000	0.005436
2369.000000	0.005423
2368.000000	0.005415
2367.000000	0.005410
2366.000000	0.005419
2365.000000	0.005446
2364.000000	0.005482
2363.000000	0.005523
2362.000000	0.005570
2361.000000	0.005611
2360.000000	0.005619
2359.000000	0.005584
2358.000000	0.005521
2357.000000	0.005454
2356.000000	0.005431
2355.000000	0.005487
2354.000000	0.005567
2353.000000	0.005577
2352.000000	0.005522
2351.000000	0.005498
2350.000000	0.005551
2349.000000	0.005639
2348.000000	0.005688
2347.000000	0.005660
2346.000000	0.005606
2345.000000	0.005623
2344.000000	0.005719
2343.000000	0.005803
2342.000000	0.005806
2341.000000	0.005748
2340.000000	0.005692
2339.000000	0.005676
2338.000000	0.005692
2337.000000	0.005715
2336.000000	0.005730
2335.000000	0.005720
2334.000000	0.005658
2333.000000	0.005541
2332.000000	0.005427
2331.000000	0.005385
2330.000000	0.005431
2329.000000	0.005533
2328.000000	0.005662
2327.000000	0.005800
2326.000000	0.005928
2325.000000	0.006025
2324.000000	0.006073
2323.000000	0.006067
2322.000000	0.006027
2321.000000	0.006003
2320.000000	0.006031
2319.000000	0.006095
2318.000000	0.006147
2317.000000	0.006149
2316.000000	0.006097
2315.000000	0.006002
2314.000000	0.005889
2313.000000	0.005800
2312.000000	0.005768
2311.000000	0.005778
2310.000000	0.005776
2309.000000	0.005727
2308.000000	0.005650
2307.000000	0.005588
2306.000000	0.005568
2305.000000	0.005581
2304.000000	0.005604
2303.000000	0.005615
2302.000000	0.005613
2301.000000	0.005612
2300.000000	0.005626
2299.000000	0.005647
2298.000000	0.005661
2297.000000	0.005662
2296.000000	0.005653
2295.000000	0.005631
2294.000000	0.005593
2293.000000	0.005554
2292.000000	0.005543
2291.000000	0.005568
2290.000000	0.005609
2289.000000	0.005644
2288.000000	0.005676
2287.000000	0.005713
2286.000000	0.005744
2285.000000	0.005747
2284.000000	0.005709
2283.000000	0.005644
2282.000000	0.005581
2281.000000	0.005544
2280.000000	0.005526
2279.000000	0.005504
2278.000000	0.005462
2277.000000	0.005411
2276.000000	0.005376
2275.000000	0.005358
2274.000000	0.005345
2273.000000	0.005331
2272.000000	0.005333
2271.000000	0.005369
2270.000000	0.005426
2269.000000	0.005466
2268.000000	0.005453
2267.000000	0.005393
2266.000000	0.005336
2265.000000	0.005333
2264.000000	0.005381
2263.000000	0.005432
2262.000000	0.005446
2261.000000	0.005435
2260.000000	0.005437
2259.000000	0.005462
2258.000000	0.005490
2257.000000	0.005498
2256.000000	0.005478
2255.000000	0.005419
2254.000000	0.005323
2253.000000	0.005215
2252.000000	0.005134
2251.000000	0.005090
2250.000000	0.005062
2249.000000	0.005038
2248.000000	0.005030
2247.000000	0.005053
2246.000000	0.005093
2245.000000	0.005125
2244.000000	0.005140
2243.000000	0.005146
2242.000000	0.005147
2241.000000	0.005144
2240.000000	0.005148
2239.000000	0.005170
2238.000000	0.005208
2237.000000	0.005233
2236.000000	0.005208
2235.000000	0.005124
2234.000000	0.005017
2233.000000	0.004953
2232.000000	0.004979
2231.000000	0.005090
2230.000000	0.005228
2229.000000	0.005322
2228.000000	0.005331
2227.000000	0.005263
2226.000000	0.005162
2225.000000	0.005071
2224.000000	0.005013
2223.000000	0.004994
2222.000000	0.005017
2221.000000	0.005075
2220.000000	0.005127
2219.000000	0.005122
2218.000000	0.005045
2217.000000	0.004946
2216.000000	0.004889
2215.000000	0.004902
2214.000000	0.004965
2213.000000	0.005041
2212.000000	0.005103
2211.000000	0.005133
2210.000000	0.005107
2209.000000	0.005005
2208.000000	0.004837
2207.000000	0.004672
2206.000000	0.004606
2205.000000	0.004686
2204.000000	0.004850
2203.000000	0.004980
2202.000000	0.004996
2201.000000	0.004915
2200.000000	0.004797
2199.000000	0.004692
2198.000000	0.004620
2197.000000	0.004584
2196.000000	0.004582
2195.000000	0.004624
2194.000000	0.004742
2193.000000	0.004935
2192.000000	0.005118
2191.000000	0.005171
2190.000000	0.005054
2189.000000	0.004862
2188.000000	0.004730
2187.000000	0.004720
2186.000000	0.004801
2185.000000	0.004908
2184.000000	0.004976
2183.000000	0.004954
2182.000000	0.004839
2181.000000	0.004696
2180.000000	0.004605
2179.000000	0.004588
2178.000000	0.004595
2177.000000	0.004569
2176.000000	0.004500
2175.000000	0.004425
2174.000000	0.004389
2173.000000	0.004400
2172.000000	0.004424
2171.000000	0.004420
2170.000000	0.004393
2169.000000	0.004379
2168.000000	0.004399
2167.000000	0.004426
2166.000000	0.004421
2165.000000	0.004371
2164.000000	0.004285
2163.000000	0.004177
2162.000000	0.004048
2161.000000	0.003872
2160.000000	0.003613
2159.000000	0.003270
2158.000000	0.002918
2157.000000	0.002653
2156.000000	0.002503
2155.000000	0.002457
2154.000000	0.002533
2153.000000	0.002745
2152.000000	0.003040
2151.000000	0.003315
2150.000000	0.003512
2149.000000	0.003633
2148.000000	0.003691
2147.000000	0.003687
2146.000000	0.003652
2145.000000	0.003649
2144.000000	0.003703
2143.000000	0.003781
2142.000000	0.003848
2141.000000	0.003917
2140.000000	0.004016
2139.000000	0.004132
2138.000000	0.004214
2137.000000	0.004227
2136.000000	0.004182
2135.000000	0.004133
2134.000000	0.004134
2133.000000	0.004188
2132.000000	0.004238
2131.000000	0.004223
2130.000000	0.004139
2129.000000	0.004031
2128.000000	0.003947
2127.000000	0.003918
2126.000000	0.003975
2125.000000	0.004138
2124.000000	0.004376
2123.000000	0.004599
2122.000000	0.004727
2121.000000	0.004746
2120.000000	0.004710
2119.000000	0.004684
2118.000000	0.004706
2117.000000	0.004773
2116.000000	0.004858
2115.000000	0.004933
2114.000000	0.004981
2113.000000	0.004995
2112.000000	0.004966
2111.000000	0.004896
2110.000000	0.004824
2109.000000	0.004803
2108.000000	0.004845
2107.000000	0.004907
2106.000000	0.004942
2105.000000	0.004942
2104.000000	0.004934
2103.000000	0.004932
2102.000000	0.004930
2101.000000	0.004904
2100.000000	0.004835
2099.000000	0.004729
2098.000000	0.004630
2097.000000	0.004595
2096.000000	0.004637
2095.000000	0.004716
2094.000000	0.004770
2093.000000	0.004769
2092.000000	0.004715
2091.000000	0.004627
2090.000000	0.004533
2089.000000	0.004456
2088.000000	0.004401
2087.000000	0.004362
2086.000000	0.004342
2085.000000	0.004353
2084.000000	0.004391
2083.000000	0.004432
2082.000000	0.004458
2081.000000	0.004483
2080.000000	0.004520
2079.000000	0.004559
2078.000000	0.004576
2077.000000	0.004571
2076.000000	0.004559
2075.000000	0.004551
2074.000000	0.004534
2073.000000	0.004490
2072.000000	0.004429
2071.000000	0.004390
2070.000000	0.004410
2069.000000	0.004476
2068.000000	0.004527
2067.000000	0.004521
2066.000000	0.004466
2065.000000	0.004384
2064.000000	0.004270
2063.000000	0.004132
2062.000000	0.004043
2061.000000	0.004085
2060.000000	0.004257
2059.000000	0.004456
2058.000000	0.004582
2057.000000	0.004601
2056.000000	0.004527
2055.000000	0.004399
2054.000000	0.004282
2053.000000	0.004229
2052.000000	0.004215
2051.000000	0.004155
2050.000000	0.004018
2049.000000	0.003879
2048.000000	0.003810
2047.000000	0.003762
2046.000000	0.003645
2045.000000	0.003473
2044.000000	0.003367
2043.000000	0.003414
2042.000000	0.003584
2041.000000	0.003783
2040.000000	0.003924
2039.000000	0.003975
2038.000000	0.003945
2037.000000	0.003846
2036.000000	0.003679
2035.000000	0.003451
2034.000000	0.003212
2033.000000	0.003029
2032.000000	0.002917
2031.000000	0.002845
2030.000000	0.002809
2029.000000	0.002833
2028.000000	0.002896
2027.000000	0.002914
2026.000000	0.002855
2025.000000	0.002782
2024.000000	0.002776
2023.000000	0.002829
2022.000000	0.002871
2021.000000	0.002855
2020.000000	0.002801
2019.000000	0.002769
2018.000000	0.002800
2017.000000	0.002881
2016.000000	0.002956
2015.000000	0.002997
2014.000000	0.003028
2013.000000	0.003073
2012.000000	0.003125
2011.000000	0.003172
2010.000000	0.003227
2009.000000	0.003274
2008.000000	0.003247
2007.000000	0.003137
2006.000000	0.003069
2005.000000	0.003156
2004.000000	0.003338
2003.000000	0.003447
2002.000000	0.003432
2001.000000	0.003414
2000.000000	0.003530
1999.000000	0.003781
1998.000000	0.004044
1997.000000	0.004174
1996.000000	0.004106
1995.000000	0.003908
1994.000000	0.003738
1993.000000	0.003704
1992.000000	0.003757
1991.000000	0.003752
1990.000000	0.003634
1989.000000	0.003479
1988.000000	0.003377
1987.000000	0.003341
1986.000000	0.003354
1985.000000	0.003401
1984.000000	0.003461
1983.000000	0.003523
1982.000000	0.003611
1981.000000	0.003736
1980.000000	0.003819
1979.000000	0.003740
1978.000000	0.003505
1977.000000	0.003272
1976.000000	0.003162
1975.000000	0.003136
1974.000000	0.003110
1973.000000	0.003074
1972.000000	0.003030
1971.000000	0.002944
1970.000000	0.002808
1969.000000	0.002692
1968.000000	0.002674
1967.000000	0.002753
1966.000000	0.002861
1965.000000	0.002930
1964.000000	0.002945
1963.000000	0.002942
1962.000000	0.002958
1961.000000	0.002968
1960.000000	0.002898
1959.000000	0.002739
1958.000000	0.002617
1957.000000	0.002657
1956.000000	0.002832
1955.000000	0.003002
1954.000000	0.003077
1953.000000	0.003068
1952.000000	0.003005
1951.000000	0.002913
1950.000000	0.002837
1949.000000	0.002836
1948.000000	0.002893
1947.000000	0.002932
1946.000000	0.002927
1945.000000	0.002937
1944.000000	0.003012
1943.000000	0.003120
1942.000000	0.003193
1941.000000	0.003204
1940.000000	0.003159
1939.000000	0.003085
1938.000000	0.003029
1937.000000	0.003048
1936.000000	0.003152
1935.000000	0.003299
1934.000000	0.003446
1933.000000	0.003561
1932.000000	0.003611
1931.000000	0.003571
1930.000000	0.003465
1929.000000	0.003360
1928.000000	0.003296
1927.000000	0.003258
1926.000000	0.003230
1925.000000	0.003223
1924.000000	0.003244
1923.000000	0.003269
1922.000000	0.003276
1921.000000	0.003280
1920.000000	0.003308
1919.000000	0.003371
1918.000000	0.003456
1917.000000	0.003539
1916.000000	0.003586
1915.000000	0.003581
1914.000000	0.003543
1913.000000	0.003515
1912.000000	0.003511
1911.000000	0.003519
1910.000000	0.003530
1909.000000	0.003549
1908.000000	0.003561
1907.000000	0.003527
1906.000000	0.003442
1905.000000	0.003355
1904.000000	0.003319
1903.000000	0.003335
1902.000000	0.003364
1901.000000	0.003368
1900.000000	0.003339
1899.000000	0.003295
1898.000000	0.003271
1897.000000	0.003293
1896.000000	0.003347
1895.000000	0.003381
1894.000000	0.003356
1893.000000	0.003283
1892.000000	0.003203
1891.000000	0.003150
1890.000000	0.003146
1889.000000	0.003189
1888.000000	0.003250
1887.000000	0.003291
1886.000000	0.003296
1885.000000	0.003278
1884.000000	0.003249
1883.000000	0.003218
1882.000000	0.003190
1881.000000	0.003164
1880.000000	0.003118
1879.000000	0.003052
1878.000000	0.003020
1877.000000	0.003083
1876.000000	0.003225
1875.000000	0.003357
1874.000000	0.003400
1873.000000	0.003357
1872.000000	0.003284
1871.000000	0.003232
1870.000000	0.003211
1869.000000	0.003201
1868.000000	0.003169
1867.000000	0.003114
1866.000000	0.003075
1865.000000	0.003086
1864.000000	0.003136
1863.000000	0.003174
1862.000000	0.003174
1861.000000	0.003157
1860.000000	0.003151
1859.000000	0.003158
1858.000000	0.003159
1857.000000	0.003148
1856.000000	0.003126
1855.000000	0.003093
1854.000000	0.003062
1853.000000	0.003050
1852.000000	0.003051
1851.000000	0.003041
1850.000000	0.003019
1849.000000	0.003002
1848.000000	0.002991
1847.000000	0.002963
1846.000000	0.002916
1845.000000	0.002873
1844.000000	0.002854
1843.000000	0.002853
1842.000000	0.002860
1841.000000	0.002881
1840.000000	0.002911
1839.000000	0.002923
1838.000000	0.002906
1837.000000	0.002888
1836.000000	0.002893
1835.000000	0.002904
1834.000000	0.002891
1833.000000	0.002854
1832.000000	0.002818
1831.000000	0.002806
1830.000000	0.002825
1829.000000	0.002853
1828.000000	0.002859
1827.000000	0.002832
1826.000000	0.002802
1825.000000	0.002803
1824.000000	0.002833
1823.000000	0.002862
1822.000000	0.002881
1821.000000	0.002897
1820.000000	0.002899
1819.000000	0.002864
1818.000000	0.002802
1817.000000	0.002756
1816.000000	0.002757
1815.000000	0.002797
1814.000000	0.002854
1813.000000	0.002917
1812.000000	0.002968
1811.000000	0.002987
1810.000000	0.002975
1809.000000	0.002953
1808.000000	0.002941
1807.000000	0.002948
1806.000000	0.002979
1805.000000	0.003045
1804.000000	0.003131
1803.000000	0.003205
1802.000000	0.003249
1801.000000	0.003284
1800.000000	0.003332
1799.000000	0.003397
1798.000000	0.003458
1797.000000	0.003499
1796.000000	0.003503
1795.000000	0.003460
1794.000000	0.003388
1793.000000	0.003328
1792.000000	0.003295
1791.000000	0.003265
1790.000000	0.003211
1789.000000	0.003137
1788.000000	0.003062
1787.000000	0.003001
1786.000000	0.002962
1785.000000	0.002953
1784.000000	0.002959
1783.000000	0.002945
1782.000000	0.002905
1781.000000	0.002871
1780.000000	0.002856
1779.000000	0.002849
1778.000000	0.002840
1777.000000	0.002837
1776.000000	0.002840
1775.000000	0.002825
1774.000000	0.002789
1773.000000	0.002771
1772.000000	0.002798
1771.000000	0.002854
1770.000000	0.002919
1769.000000	0.002991
1768.000000	0.003066
1767.000000	0.003116
1766.000000	0.003122
1765.000000	0.003112
1764.000000	0.003128
1763.000000	0.003193
1762.000000	0.003298
1761.000000	0.003431
1760.000000	0.003572
1759.000000	0.003714
1758.000000	0.003877
1757.000000	0.004092
1756.000000	0.004347
1755.000000	0.004596
1754.000000	0.004841
1753.000000	0.005144
1752.000000	0.005539
1751.000000	0.005968
1750.000000	0.006345
1749.000000	0.006667
1748.000000	0.006995
1747.000000	0.007342
1746.000000	0.007685
1745.000000	0.008010
1744.000000	0.008299
1743.000000	0.008528
1742.000000	0.008697
1741.000000	0.008830
1740.000000	0.008946
1739.000000	0.009024
1738.000000	0.009046
1737.000000	0.009026
1736.000000	0.008968
1735.000000	0.008832
1734.000000	0.008602
1733.000000	0.008369
1732.000000	0.008189
1731.000000	0.008035
1730.000000	0.007879
1729.000000	0.007707
1728.000000	0.007518
1727.000000	0.007306
1726.000000	0.007088
1725.000000	0.006888
1724.000000	0.006707
1723.000000	0.006531
1722.000000	0.006350
1721.000000	0.006172
1720.000000	0.006002
1719.000000	0.005831
1718.000000	0.005675
1717.000000	0.005588
1716.000000	0.005585
1715.000000	0.005611
1714.000000	0.005634
1713.000000	0.005661
1712.000000	0.005697
1711.000000	0.005730
1710.000000	0.005763
1709.000000	0.005813
1708.000000	0.005881
1707.000000	0.005964
1706.000000	0.006078
1705.000000	0.006231
1704.000000	0.006373
1703.000000	0.006463
1702.000000	0.006568
1701.000000	0.006817
1700.000000	0.007177
1699.000000	0.007386
1698.000000	0.007396
1697.000000	0.007441
1696.000000	0.007684
1695.000000	0.008059
1694.000000	0.008390
1693.000000	0.008640
1692.000000	0.008883
1691.000000	0.009139
1690.000000	0.009380
1689.000000	0.009585
1688.000000	0.009728
1687.000000	0.009804
1686.000000	0.009889
1685.000000	0.010125
1684.000000	0.010538
1683.000000	0.010926
1682.000000	0.011183
1681.000000	0.011402
1680.000000	0.011667
1679.000000	0.011943
1678.000000	0.012189
1677.000000	0.012451
1676.000000	0.012812
1675.000000	0.013244
1674.000000	0.013616
1673.000000	0.013878
1672.000000	0.014105
1671.000000	0.014379
1670.000000	0.014734
1669.000000	0.015164
1668.000000	0.015602
1667.000000	0.015962
1666.000000	0.016243
1665.000000	0.016516
1664.000000	0.016844
1663.000000	0.017222
1662.000000	0.017581
1661.000000	0.017889
1660.000000	0.018158
1659.000000	0.018400
1658.000000	0.018609
1657.000000	0.018768
1656.000000	0.018858
1655.000000	0.018901
1654.000000	0.019009
1653.000000	0.019296
1652.000000	0.019628
1651.000000	0.019778
1650.000000	0.019797
1649.000000	0.019837
1648.000000	0.019921
1647.000000	0.020016
1646.000000	0.020101
1645.000000	0.020173
1644.000000	0.020224
1643.000000	0.020254
1642.000000	0.020271
1641.000000	0.020283
1640.000000	0.020275
1639.000000	0.020221
1638.000000	0.020128
1637.000000	0.020041
1636.000000	0.020008
1635.000000	0.020020
1634.000000	0.020026
1633.000000	0.019984
1632.000000	0.019910
1631.000000	0.019808
1630.000000	0.019670
1629.000000	0.019509
1628.000000	0.019339
1627.000000	0.019151
1626.000000	0.018935
1625.000000	0.018705
1624.000000	0.018482
1623.000000	0.018273
1622.000000	0.018067
1621.000000	0.017847
1620.000000	0.017594
1619.000000	0.017294
1618.000000	0.016940
1617.000000	0.016552
1616.000000	0.016194
1615.000000	0.015910
1614.000000	0.015692
1613.000000	0.015510
1612.000000	0.015330
1611.000000	0.015124
1610.000000	0.014890
1609.000000	0.014656
1608.000000	0.014447
1607.000000	0.014264
1606.000000	0.014101
1605.000000	0.013956
1604.000000	0.013819
1603.000000	0.013692
1602.000000	0.013588
1601.000000	0.013511
1600.000000	0.013445
1599.000000	0.013372
1598.000000	0.013291
1597.000000	0.013209
1596.000000	0.013130
1595.000000	0.013057
1594.000000	0.013003
1593.000000	0.012977
1592.000000	0.012967
1591.000000	0.012960
1590.000000	0.012955
1589.000000	0.012964
1588.000000	0.012992
1587.000000	0.013043
1586.000000	0.013116
1585.000000	0.013209
1584.000000	0.013315
1583.000000	0.013429
1582.000000	0.013567
1581.000000	0.013719
1580.000000	0.013842
1579.000000	0.013904
1578.000000	0.013930
1577.000000	0.013989
1576.000000	0.014125
1575.000000	0.014301
1574.000000	0.014443
1573.000000	0.014531
1572.000000	0.014585
1571.000000	0.014644
1570.000000	0.014750
1569.000000	0.014900
1568.000000	0.015038
1567.000000	0.015139
1566.000000	0.015251
1565.000000	0.015418
1564.000000	0.015602
1563.000000	0.015717
1562.000000	0.015751
1561.000000	0.015792
1560.000000	0.016018
1559.000000	0.016492
1558.000000	0.016977
1557.000000	0.017296
1556.000000	0.017488
1555.000000	0.017691
1554.000000	0.017935
1553.000000	0.018164
1552.000000	0.018342
1551.000000	0.018512
1550.000000	0.018717
1549.000000	0.018934
1548.000000	0.019119
1547.000000	0.019271
1546.000000	0.019431
1545.000000	0.019604
1544.000000	0.019731
1543.000000	0.019775
1542.000000	0.019777
1541.000000	0.019803
1540.000000	0.019859
1539.000000	0.019904
1538.000000	0.019902
1537.000000	0.019835
1536.000000	0.019735
1535.000000	0.019604
1534.000000	0.019445
1533.000000	0.019293
1532.000000	0.019161
1531.000000	0.019028
1530.000000	0.018895
1529.000000	0.018790
1528.000000	0.018715
1527.000000	0.018631
1526.000000	0.018514
1525.000000	0.018380
1524.000000	0.018240
1523.000000	0.018099
1522.000000	0.017994
1521.000000	0.017980
1520.000000	0.018033
1519.000000	0.018073
1518.000000	0.018097
1517.000000	0.018138
1516.000000	0.018180
1515.000000	0.018178
1514.000000	0.018142
1513.000000	0.018139
1512.000000	0.018191
1511.000000	0.018244
1510.000000	0.018239
1509.000000	0.018162
1508.000000	0.017994
1507.000000	0.017746
1506.000000	0.017624
1505.000000	0.017758
1504.000000	0.017964
1503.000000	0.018139
1502.000000	0.018271
1501.000000	0.018366
1500.000000	0.018440
1499.000000	0.018502
1498.000000	0.018571
1497.000000	0.018672
1496.000000	0.018803
1495.000000	0.018928
1494.000000	0.019038
1493.000000	0.019175
1492.000000	0.019358
1491.000000	0.019562
1490.000000	0.019757
1489.000000	0.019953
1488.000000	0.020167
1487.000000	0.020384
1486.000000	0.020603
1485.000000	0.020850
1484.000000	0.021131
1483.000000	0.021428
1482.000000	0.021749
1481.000000	0.022107
1480.000000	0.022486
1479.000000	0.022865
1478.000000	0.023266
1477.000000	0.023722
1476.000000	0.024205
1475.000000	0.024657
1474.000000	0.025099
1473.000000	0.025608
1472.000000	0.026175
1471.000000	0.026705
1470.000000	0.027167
1469.000000	0.027601
1468.000000	0.028028
1467.000000	0.028425
1466.000000	0.028782
1465.000000	0.029127
1464.000000	0.029463
1463.000000	0.029766
1462.000000	0.030041
1461.000000	0.030315
1460.000000	0.030589
1459.000000	0.030850
1458.000000	0.031138
1457.000000	0.031517
1456.000000	0.031946
1455.000000	0.032310
1454.000000	0.032626
1453.000000	0.032966
1452.000000	0.033312
1451.000000	0.033623
1450.000000	0.033909
1449.000000	0.034203
1448.000000	0.034494
1447.000000	0.034744
1446.000000	0.034967
1445.000000	0.035208
1444.000000	0.035458
1443.000000	0.035692
1442.000000	0.035915
1441.000000	0.036146
1440.000000	0.036386
1439.000000	0.036630
1438.000000	0.036892
1437.000000	0.037161
1436.000000	0.037369
1435.000000	0.037492
1434.000000	0.037597
1433.000000	0.037735
1432.000000	0.037876
1431.000000	0.037977
1430.000000	0.038060
1429.000000	0.038181
1428.000000	0.038340
1427.000000	0.038500
1426.000000	0.038652
1425.000000	0.038795
1424.000000	0.038877
1423.000000	0.038878
1422.000000	0.038852
1421.000000	0.038851
1420.000000	0.038834
1419.000000	0.038732
1418.000000	0.038576
1417.000000	0.038434
1416.000000	0.038283
1415.000000	0.038074
1414.000000	0.037815
1413.000000	0.037533
1412.000000	0.037225
1411.000000	0.036879
1410.000000	0.036517
1409.000000	0.036156
1408.000000	0.035770
1407.000000	0.035330
1406.000000	0.034843
1405.000000	0.034353
1404.000000	0.033903
1403.000000	0.033530
1402.000000	0.033239
1401.000000	0.032993
1400.000000	0.032726
1399.000000	0.032410
1398.000000	0.032078
1397.000000	0.031735
1396.000000	0.031330
1395.000000	0.030858
1394.000000	0.030427
1393.000000	0.030131
1392.000000	0.029936
1391.000000	0.029763
1390.000000	0.029561
1389.000000	0.029296
1388.000000	0.028941
1387.000000	0.028517
1386.000000	0.028100
1385.000000	0.027741
1384.000000	0.027419
1383.000000	0.027105
1382.000000	0.026794
1381.000000	0.026489
1380.000000	0.026177
1379.000000	0.025849
1378.000000	0.025519
1377.000000	0.025199
1376.000000	0.024873
1375.000000	0.024517
1374.000000	0.024136
1373.000000	0.023762
1372.000000	0.023413
1371.000000	0.023089
1370.000000	0.022786
1369.000000	0.022490
1368.000000	0.022182
1367.000000	0.021863
1366.000000	0.021557
1365.000000	0.021271
1364.000000	0.020985
1363.000000	0.020681
1362.000000	0.020371
1361.000000	0.020079
1360.000000	0.019810
1359.000000	0.019562
1358.000000	0.019342
1357.000000	0.019146
1356.000000	0.018963
1355.000000	0.018784
1354.000000	0.018616
1353.000000	0.018462
1352.000000	0.018321
1351.000000	0.018196
1350.000000	0.018098
1349.000000	0.018027
1348.000000	0.017981
1347.000000	0.017963
1346.000000	0.017978
1345.000000	0.018015
1344.000000	0.018049
1343.000000	0.018062
1342.000000	0.018063
1341.000000	0.018069
1340.000000	0.018091
1339.000000	0.018130
1338.000000	0.018180
1337.000000	0.018220
1336.000000	0.018227
1335.000000	0.018188
1334.000000	0.018109
1333.000000	0.017997
1332.000000	0.017863
1331.000000	0.017718
1330.000000	0.017571
1329.000000	0.017418
1328.000000	0.017259
1327.000000	0.017106
1326.000000	0.016979
1325.000000	0.016882
1324.000000	0.016797
1323.000000	0.016704
1322.000000	0.016594
1321.000000	0.016465
1320.000000	0.016321
1319.000000	0.016175
1318.000000	0.016043
1317.000000	0.015930
1316.000000	0.015820
1315.000000	0.015696
1314.000000	0.015549
1313.000000	0.015380
1312.000000	0.015207
1311.000000	0.015042
1310.000000	0.014881
1309.000000	0.014710
1308.000000	0.014523
1307.000000	0.014340
1306.000000	0.014184
1305.000000	0.014055
1304.000000	0.013939
1303.000000	0.013830
1302.000000	0.013730
1301.000000	0.013635
1300.000000	0.013528
1299.000000	0.013400
1298.000000	0.013258
1297.000000	0.013120
1296.000000	0.013005
1295.000000	0.012922
1294.000000	0.012868
1293.000000	0.012827
1292.000000	0.012786
1291.000000	0.012741
1290.000000	0.012699
1289.000000	0.012661
1288.000000	0.012625
1287.000000	0.012594
1286.000000	0.012568
1285.000000	0.012542
1284.000000	0.012510
1283.000000	0.012477
1282.000000	0.012451
1281.000000	0.012435
1280.000000	0.012427
1279.000000	0.012425
1278.000000	0.012434
1277.000000	0.012456
1276.000000	0.012494
1275.000000	0.012550
1274.000000	0.012622
1273.000000	0.012711
1272.000000	0.012813
1271.000000	0.012927
1270.000000	0.013051
1269.000000	0.013186
1268.000000	0.013343
1267.000000	0.013529
1266.000000	0.013733
1265.000000	0.013932
1264.000000	0.014109
1263.000000	0.014265
1262.000000	0.014405
1261.000000	0.014527
1260.000000	0.014631
1259.000000	0.014729
1258.000000	0.014831
1257.000000	0.014932
1256.000000	0.015019
1255.000000	0.015085
1254.000000	0.015135
1253.000000	0.015178
1252.000000	0.015230
1251.000000	0.015299
1250.000000	0.015380
1249.000000	0.015455
1248.000000	0.015515
1247.000000	0.015572
1246.000000	0.015639
1245.000000	0.015713
1244.000000	0.015778
1243.000000	0.015835
1242.000000	0.015906
1241.000000	0.016002
1240.000000	0.016102
1239.000000	0.016171
1238.000000	0.016189
1237.000000	0.016160
1236.000000	0.016096
1235.000000	0.016004
1234.000000	0.015887
1233.000000	0.015748
1232.000000	0.015592
1231.000000	0.015424
1230.000000	0.015252
1229.000000	0.015078
1228.000000	0.014903
1227.000000	0.014723
1226.000000	0.014528
1225.000000	0.014311
1224.000000	0.014075
1223.000000	0.013830
1222.000000	0.013585
1221.000000	0.013340
1220.000000	0.013099
1219.000000	0.012877
1218.000000	0.012693
1217.000000	0.012554
1216.000000	0.012451
1215.000000	0.012373
1214.000000	0.012310
1213.000000	0.012259
1212.000000	0.012222
1211.000000	0.012211
1210.000000	0.012234
1209.000000	0.012288
1208.000000	0.012358
1207.000000	0.012430
1206.000000	0.012496
1205.000000	0.012555
1204.000000	0.012612
1203.000000	0.012668
1202.000000	0.012718
1201.000000	0.012754
1200.000000	0.012770
1199.000000	0.012765
1198.000000	0.012735
1197.000000	0.012682
1196.000000	0.012626
1195.000000	0.012588
1194.000000	0.012575
1193.000000	0.012574
1192.000000	0.012571
1191.000000	0.012573
1190.000000	0.012597
1189.000000	0.012645
1188.000000	0.012706
1187.000000	0.012768
1186.000000	0.012834
1185.000000	0.012917
1184.000000	0.013034
1183.000000	0.013185
1182.000000	0.013358
1181.000000	0.013533
1180.000000	0.013708
1179.000000	0.013891
1178.000000	0.014093
1177.000000	0.014311
1176.000000	0.014539
1175.000000	0.014776
1174.000000	0.015021
1173.000000	0.015274
1172.000000	0.015530
1171.000000	0.015778
1170.000000	0.016003
1169.000000	0.016199
1168.000000	0.016376
1167.000000	0.016554
1166.000000	0.016737
1165.000000	0.016910
1164.000000	0.017057
1163.000000	0.017179
1162.000000	0.017282
1161.000000	0.017366
1160.000000	0.017428
1159.000000	0.017477
1158.000000	0.017516
1157.000000	0.017538
1156.000000	0.017533
1155.000000	0.017505
1154.000000	0.017461
1153.000000	0.017397
1152.000000	0.017299
1151.000000	0.017173
1150.000000	0.017041
1149.000000	0.016914
1148.000000	0.016775
1147.000000	0.016606
1146.000000	0.016413
1145.000000	0.016222
1144.000000	0.016050
1143.000000	0.015900
1142.000000	0.015761
1141.000000	0.015622
1140.000000	0.015483
1139.000000	0.015356
1138.000000	0.015256
1137.000000	0.015181
1136.000000	0.015117
1135.000000	0.015061
1134.000000	0.015018
1133.000000	0.014994
1132.000000	0.014984
1131.000000	0.014992
1130.000000	0.015038
1129.000000	0.015140
1128.000000	0.015291
1127.000000	0.015457
1126.000000	0.015603
1125.000000	0.015720
1124.000000	0.015828
1123.000000	0.015964
1122.000000	0.016139
1121.000000	0.016324
1120.000000	0.016476
1119.000000	0.016582
1118.000000	0.016665
1117.000000	0.016766
1116.000000	0.016915
1115.000000	0.017115
1114.000000	0.017355
1113.000000	0.017609
1112.000000	0.017839
1111.000000	0.018023
1110.000000	0.018166
1109.000000	0.018291
1108.000000	0.018408
1107.000000	0.018508
1106.000000	0.018585
1105.000000	0.018642
1104.000000	0.018687
1103.000000	0.018726
1102.000000	0.018764
1101.000000	0.018806
1100.000000	0.018847
1099.000000	0.018867
1098.000000	0.018845
1097.000000	0.018778
1096.000000	0.018692
1095.000000	0.018624
1094.000000	0.018584
1093.000000	0.018546
1092.000000	0.018472
1091.000000	0.018352
1090.000000	0.018211
1089.000000	0.018075
1088.000000	0.017942
1087.000000	0.017791
1086.000000	0.017614
1085.000000	0.017420
1084.000000	0.017231
1083.000000	0.017062
1082.000000	0.016912
1081.000000	0.016764
1080.000000	0.016598
1079.000000	0.016413
1078.000000	0.016223
1077.000000	0.016044
1076.000000	0.015880
1075.000000	0.015737
1074.000000	0.015622
1073.000000	0.015538
1072.000000	0.015478
1071.000000	0.015432
1070.000000	0.015385
1069.000000	0.015321
1068.000000	0.015241
1067.000000	0.015183
1066.000000	0.015207
1065.000000	0.015349
1064.000000	0.015574
1063.000000	0.015802
1062.000000	0.015953
1061.000000	0.016003
1060.000000	0.015986
1059.000000	0.015970
1058.000000	0.016013
1057.000000	0.016119
1056.000000	0.016250
1055.000000	0.016364
1054.000000	0.016451
1053.000000	0.016521
1052.000000	0.016584
1051.000000	0.016642
1050.000000	0.016706
1049.000000	0.016791
1048.000000	0.016900
1047.000000	0.017020
1046.000000	0.017142
1045.000000	0.017266
1044.000000	0.017395
1043.000000	0.017533
1042.000000	0.017692
1041.000000	0.017887
1040.000000	0.018120
1039.000000	0.018378
1038.000000	0.018655
1037.000000	0.018957
1036.000000	0.019287
1035.000000	0.019617
1034.000000	0.019904
1033.000000	0.020125
1032.000000	0.020275
1031.000000	0.020354
1030.000000	0.020354
1029.000000	0.020287
1028.000000	0.020200
1027.000000	0.020147
1026.000000	0.020141
1025.000000	0.020137
1024.000000	0.020089
1023.000000	0.020003
1022.000000	0.019917
1021.000000	0.019849
1020.000000	0.019771
1019.000000	0.019661
1018.000000	0.019541
1017.000000	0.019450
1016.000000	0.019399
1015.000000	0.019365
1014.000000	0.019328
1013.000000	0.019280
1012.000000	0.019219
1011.000000	0.019142
1010.000000	0.019045
1009.000000	0.018926
1008.000000	0.018776
1007.000000	0.018595
1006.000000	0.018406
1005.000000	0.018234
1004.000000	0.018077
1003.000000	0.017907
1002.000000	0.017700
1001.000000	0.017457
1000.000000	0.017194
999.000000	0.016938
998.000000	0.016715
997.000000	0.016537
996.000000	0.016387
995.000000	0.016226
994.000000	0.016034
993.000000	0.015829
992.000000	0.015640
991.000000	0.015481
990.000000	0.015331
989.000000	0.015160
988.000000	0.014951
987.000000	0.014710
986.000000	0.014465
985.000000	0.014249
984.000000	0.014074
983.000000	0.013927
982.000000	0.013780
981.000000	0.013625
980.000000	0.013472
979.000000	0.013335
978.000000	0.013209
977.000000	0.013088
976.000000	0.012975
975.000000	0.012877
974.000000	0.012789
973.000000	0.012695
972.000000	0.012585
971.000000	0.012456
970.000000	0.012308
969.000000	0.012137
968.000000	0.011945
967.000000	0.011740
966.000000	0.011536
965.000000	0.011342
964.000000	0.011168
963.000000	0.011022
962.000000	0.010899
961.000000	0.010782
960.000000	0.010652
959.000000	0.010500
958.000000	0.010324
957.000000	0.010130
956.000000	0.009929
955.000000	0.009737
954.000000	0.009562
953.000000	0.009403
952.000000	0.009255
951.000000	0.009114
950.000000	0.008968
949.000000	0.008803
948.000000	0.008616
947.000000	0.008425
946.000000	0.008247
945.000000	0.008079
944.000000	0.007909
943.000000	0.007733
942.000000	0.007568
941.000000	0.007434
940.000000	0.007340
939.000000	0.007273
938.000000	0.007202
937.000000	0.007106
936.000000	0.006993
935.000000	0.006889
934.000000	0.006799
933.000000	0.006696
932.000000	0.006553
931.000000	0.006380
930.000000	0.006218
929.000000	0.006097
928.000000	0.006019
927.000000	0.005965
926.000000	0.005913
925.000000	0.005846
924.000000	0.005759
923.000000	0.005657
922.000000	0.005552
921.000000	0.005456
920.000000	0.005374
919.000000	0.005309
918.000000	0.005254
917.000000	0.005193
916.000000	0.005107
915.000000	0.004995
914.000000	0.004870
913.000000	0.004749
912.000000	0.004637
911.000000	0.004532
910.000000	0.004422
909.000000	0.004306
908.000000	0.004187
907.000000	0.004068
906.000000	0.003943
905.000000	0.003802
904.000000	0.003648
903.000000	0.003494
902.000000	0.003349
901.000000	0.003216
900.000000	0.003093
899.000000	0.002991
898.000000	0.002915
897.000000	0.002862
896.000000	0.002827
895.000000	0.002803
894.000000	0.002782
893.000000	0.002762
892.000000	0.002748
891.000000	0.002750
890.000000	0.002778
889.000000	0.002868
888.000000	0.003089
887.000000	0.003524
886.000000	0.004208
885.000000	0.005117
884.000000	0.006204
883.000000	0.007455
882.000000	0.008902
881.000000	0.010611
880.000000	0.012621
879.000000	0.014866
878.000000	0.017144
877.000000	0.019170
876.000000	0.020687
875.000000	0.021524
874.000000	0.021572
873.000000	0.020774
872.000000	0.019183
871.000000	0.017027
870.000000	0.014671
869.000000	0.012459
868.000000	0.010599
867.000000	0.009149
866.000000	0.008054
865.000000	0.007204
864.000000	0.006495
863.000000	0.005875
862.000000	0.005352
861.000000	0.004944
860.000000	0.004637
859.000000	0.004399
858.000000	0.004201
857.000000	0.004029
856.000000	0.003871
855.000000	0.003718
854.000000	0.003561
853.000000	0.003416
852.000000	0.003323
851.000000	0.003332
850.000000	0.003447
849.000000	0.003596
848.000000	0.003673
847.000000	0.003616
846.000000	0.003453
845.000000	0.003262
844.000000	0.003114
843.000000	0.003037
842.000000	0.003024
841.000000	0.003040
840.000000	0.003044
839.000000	0.003014
838.000000	0.002963
837.000000	0.002914
836.000000	0.002871
835.000000	0.002831
834.000000	0.002803
833.000000	0.002807
832.000000	0.002844
831.000000	0.002874
830.000000	0.002863
829.000000	0.002821
828.000000	0.002786
827.000000	0.002785
826.000000	0.002814
825.000000	0.002855
824.000000	0.002897
823.000000	0.002916
822.000000	0.002893
821.000000	0.002835
820.000000	0.002780
819.000000	0.002759
818.000000	0.002762
817.000000	0.002765
816.000000	0.002763
815.000000	0.002768
814.000000	0.002787
813.000000	0.002809
812.000000	0.002818
811.000000	0.002812
810.000000	0.002806
809.000000	0.002832
808.000000	0.002921
807.000000	0.003061
806.000000	0.003195
805.000000	0.003267
804.000000	0.003276
803.000000	0.003272
802.000000	0.003310
801.000000	0.003399
800.000000	0.003507
799.000000	0.003585
798.000000	0.003599
797.000000	0.003563
796.000000	0.003522
795.000000	0.003507
794.000000	0.003501
793.000000	0.003470
792.000000	0.003410
791.000000	0.003357
790.000000	0.003337
789.000000	0.003344
788.000000	0.003359
787.000000	0.003365
786.000000	0.003354
785.000000	0.003334
784.000000	0.003326
783.000000	0.003348
782.000000	0.003390
781.000000	0.003422
780.000000	0.003431
779.000000	0.003414
778.000000	0.003375
777.000000	0.003320
776.000000	0.003273
775.000000	0.003252
774.000000	0.003243
773.000000	0.003200
772.000000	0.003109
771.000000	0.002999
770.000000	0.002910
769.000000	0.002851
768.000000	0.002812
767.000000	0.002789
766.000000	0.002784
765.000000	0.002792
764.000000	0.002810
763.000000	0.002839
762.000000	0.002875
761.000000	0.002906
760.000000	0.002923
759.000000	0.002920
758.000000	0.002895
757.000000	0.002855
756.000000	0.002826
755.000000	0.002839
754.000000	0.002897
753.000000	0.002971
752.000000	0.003039
751.000000	0.003096
750.000000	0.003131
749.000000	0.003126
748.000000	0.003085
747.000000	0.003046
746.000000	0.003037
745.000000	0.003042
744.000000	0.003030
743.000000	0.003003
742.000000	0.002981
741.000000	0.002966
740.000000	0.002933
739.000000	0.002867
738.000000	0.002781
737.000000	0.002711
736.000000	0.002690
735.000000	0.002725
734.000000	0.002796
733.000000	0.002873
732.000000	0.002940
731.000000	0.003000
730.000000	0.003047
729.000000	0.003074
728.000000	0.003085
727.000000	0.003092
726.000000	0.003107
725.000000	0.003145
724.000000	0.003223
723.000000	0.003337
722.000000	0.003449
721.000000	0.003533
720.000000	0.003619
719.000000	0.003786
718.000000	0.004105
717.000000	0.004628
716.000000	0.005399
715.000000	0.006400
714.000000	0.007439
713.000000	0.008184
712.000000	0.008369
711.000000	0.008000
710.000000	0.007314
709.000000	0.006588
708.000000	0.006005
707.000000	0.005631
706.000000	0.005456
705.000000	0.005416
704.000000	0.005434
703.000000	0.005470
702.000000	0.005524
701.000000	0.005593
700.000000	0.005661
699.000000	0.005726
698.000000	0.005803
697.000000	0.005896
696.000000	0.005989
695.000000	0.006072
694.000000	0.006154
693.000000	0.006229
692.000000	0.006281
691.000000	0.006293
690.000000	0.006258
689.000000	0.006187
688.000000	0.006109
687.000000	0.006068
686.000000	0.006073
685.000000	0.006092
684.000000	0.006117
683.000000	0.006180
682.000000	0.006286
681.000000	0.006386
680.000000	0.006447
679.000000	0.006497
678.000000	0.006558
677.000000	0.006628
676.000000	0.006706
675.000000	0.006787
674.000000	0.006836
673.000000	0.006787
672.000000	0.006598
671.000000	0.006254
670.000000	0.005788
669.000000	0.005274
668.000000	0.005049
667.000000	0.005249
666.000000	0.005407
665.000000	0.005429
664.000000	0.005437
663.000000	0.005396
662.000000	0.005298
661.000000	0.005155
660.000000	0.005011
659.000000	0.004871
658.000000	0.004735
657.000000	0.004633
656.000000	0.004565
655.000000	0.004479
654.000000	0.004377
653.000000	0.004350
652.000000	0.004429
651.000000	0.004531
650.000000	0.004591
649.000000	0.004645
648.000000	0.004734
647.000000	0.004825
646.000000	0.004900
645.000000	0.004993
644.000000	0.005104
643.000000	0.005187
642.000000	0.005232
641.000000	0.005292
640.000000	0.005385
639.000000	0.005439
638.000000	0.005413
637.000000	0.005364
636.000000	0.005343
635.000000	0.005320
634.000000	0.005263
633.000000	0.005210
632.000000	0.005209
631.000000	0.005238
630.000000	0.005246
629.000000	0.005234
628.000000	0.005229
627.000000	0.005222
626.000000	0.005196
625.000000	0.005174
624.000000	0.005196
623.000000	0.005278
622.000000	0.005404
621.000000	0.005539
620.000000	0.005646
619.000000	0.005721
618.000000	0.005821
617.000000	0.005995
616.000000	0.006201
615.000000	0.006338
614.000000	0.006373
613.000000	0.006378
612.000000	0.006418
611.000000	0.006483
610.000000	0.006556
609.000000	0.006668
608.000000	0.006830
607.000000	0.006984
606.000000	0.007073
605.000000	0.007109
604.000000	0.007124
603.000000	0.007108
602.000000	0.007034
601.000000	0.006896
600.000000	0.006702
599.000000	0.006448
598.000000	0.006143
597.000000	0.005829
596.000000	0.005538
595.000000	0.005266
594.000000	0.005006
593.000000	0.004786
592.000000	0.004646
591.000000	0.004589
590.000000	0.004567
589.000000	0.004526
588.000000	0.004446
587.000000	0.004357
586.000000	0.004322
585.000000	0.004371
584.000000	0.004451
583.000000	0.004469
582.000000	0.004406
581.000000	0.004331
580.000000	0.004315
579.000000	0.004363
578.000000	0.004430
577.000000	0.004470
576.000000	0.004448
575.000000	0.004377
574.000000	0.004328
573.000000	0.004362
572.000000	0.004454
571.000000	0.004532
570.000000	0.004600
569.000000	0.004751
568.000000	0.005020
567.000000	0.005321
566.000000	0.005555
565.000000	0.005716
564.000000	0.005836
563.000000	0.005914
562.000000	0.005963
561.000000	0.006048
560.000000	0.006196
559.000000	0.006321
558.000000	0.006308
557.000000	0.006161
556.000000	0.005996
555.000000	0.005932
554.000000	0.006006
553.000000	0.006162
552.000000	0.006279
551.000000	0.006261
550.000000	0.006155
549.000000	0.006115
548.000000	0.006221
547.000000	0.006388
546.000000	0.006497
545.000000	0.006533
544.000000	0.006547
543.000000	0.006552
542.000000	0.006545
541.000000	0.006569
540.000000	0.006666
539.000000	0.006806
538.000000	0.006931
537.000000	0.007039
536.000000	0.007152
535.000000	0.007251
534.000000	0.007298
533.000000	0.007308
532.000000	0.007320
531.000000	0.007343
530.000000	0.007362
529.000000	0.007364
528.000000	0.007314
527.000000	0.007179
526.000000	0.007007
525.000000	0.006922
524.000000	0.006953
523.000000	0.006978
522.000000	0.006891
521.000000	0.006721
520.000000	0.006541
519.000000	0.006341
518.000000	0.006089
517.000000	0.005841
516.000000	0.005683
515.000000	0.005612
514.000000	0.005580
513.000000	0.005581
512.000000	0.005618
511.000000	0.005627
510.000000	0.005547
509.000000	0.005423
508.000000	0.005352
507.000000	0.005335
506.000000	0.005286
505.000000	0.005149
504.000000	0.004945
503.000000	0.004727
502.000000	0.004560
501.000000	0.004498
500.000000	0.004518
499.000000	0.004539
498.000000	0.004534
497.000000	0.004568
496.000000	0.004690
495.000000	0.004849
494.000000	0.004972
493.000000	0.005054
492.000000	0.005113
491.000000	0.005136
490.000000	0.005177
489.000000	0.005397
488.000000	0.005885
487.000000	0.006492
486.000000	0.006976
485.000000	0.007271
484.000000	0.007500
483.000000	0.007732
482.000000	0.007891
481.000000	0.007931
480.000000	0.007907
479.000000	0.007882
478.000000	0.007878
477.000000	0.007936
476.000000	0.008100
475.000000	0.008322
474.000000	0.008491
473.000000	0.008566
472.000000	0.008617
471.000000	0.008679
470.000000	0.008673
469.000000	0.008533
468.000000	0.008302
467.000000	0.008074
466.000000	0.007903
465.000000	0.007742
464.000000	0.007466
463.000000	0.006962
462.000000	0.006287
461.000000	0.005654
460.000000	0.005233
459.000000	0.005033
458.000000	0.004980
457.000000	0.005007
456.000000	0.005010
455.000000	0.004850
454.000000	0.004456
453.000000	0.003901
452.000000	0.003329
451.000000	0.002835
450.000000	0.002428
