PE IR       SUBTECH     SPECTRUM    ASCII       PEDS        4.00        
   -1
Peau039_1.ASC
23/06/14
15:22:27.00
23/06/14
15:24:21.00
uco
Sample 039 By uco Date Wednesday, June 14 2023
450.000000
#HDR
-1
-1
#GR
cm-1
A
1.0
0.0
4000.000000
-1.000000
3551
8
0.039872
0.002617
#DATA
4000.000000	0.003024
3999.000000	0.003024
3998.000000	0.003025
3997.000000	0.003025
3996.000000	0.003020
3995.000000	0.003019
3994.000000	0.003027
3993.000000	0.003048
3992.000000	0.003075
3991.000000	0.003100
3990.000000	0.003117
3989.000000	0.003125
3988.000000	0.003124
3987.000000	0.003120
3986.000000	0.003114
3985.000000	0.003111
3984.000000	0.003114
3983.000000	0.003123
3982.000000	0.003134
3981.000000	0.003141
3980.000000	0.003139
3979.000000	0.003128
3978.000000	0.003114
3977.000000	0.003103
3976.000000	0.003100
3975.000000	0.003105
3974.000000	0.003116
3973.000000	0.003126
3972.000000	0.003133
3971.000000	0.003135
3970.000000	0.003137
3969.000000	0.003139
3968.000000	0.003140
3967.000000	0.003143
3966.000000	0.003152
3965.000000	0.003168
3964.000000	0.003190
3963.000000	0.003210
3962.000000	0.003220
3961.000000	0.003221
3960.000000	0.003219
3959.000000	0.003215
3958.000000	0.003210
3957.000000	0.003199
3956.000000	0.003184
3955.000000	0.003169
3954.000000	0.003164
3953.000000	0.003172
3952.000000	0.003194
3951.000000	0.003225
3950.000000	0.003260
3949.000000	0.003288
3948.000000	0.003302
3947.000000	0.003300
3946.000000	0.003286
3945.000000	0.003273
3944.000000	0.003265
3943.000000	0.003259
3942.000000	0.003253
3941.000000	0.003246
3940.000000	0.003239
3939.000000	0.003233
3938.000000	0.003228
3937.000000	0.003226
3936.000000	0.003235
3935.000000	0.003258
3934.000000	0.003295
3933.000000	0.003334
3932.000000	0.003359
3931.000000	0.003366
3930.000000	0.003358
3929.000000	0.003346
3928.000000	0.003338
3927.000000	0.003335
3926.000000	0.003334
3925.000000	0.003332
3924.000000	0.003336
3923.000000	0.003353
3922.000000	0.003383
3921.000000	0.003415
3920.000000	0.003437
3919.000000	0.003440
3918.000000	0.003424
3917.000000	0.003397
3916.000000	0.003363
3915.000000	0.003328
3914.000000	0.003295
3913.000000	0.003270
3912.000000	0.003255
3911.000000	0.003249
3910.000000	0.003252
3909.000000	0.003266
3908.000000	0.003294
3907.000000	0.003334
3906.000000	0.003376
3905.000000	0.003408
3904.000000	0.003422
3903.000000	0.003424
3902.000000	0.003421
3901.000000	0.003418
3900.000000	0.003413
3899.000000	0.003400
3898.000000	0.003379
3897.000000	0.003358
3896.000000	0.003344
3895.000000	0.003341
3894.000000	0.003342
3893.000000	0.003338
3892.000000	0.003330
3891.000000	0.003327
3890.000000	0.003336
3889.000000	0.003351
3888.000000	0.003366
3887.000000	0.003370
3886.000000	0.003358
3885.000000	0.003338
3884.000000	0.003324
3883.000000	0.003326
3882.000000	0.003339
3881.000000	0.003357
3880.000000	0.003375
3879.000000	0.003392
3878.000000	0.003406
3877.000000	0.003418
3876.000000	0.003428
3875.000000	0.003434
3874.000000	0.003436
3873.000000	0.003436
3872.000000	0.003434
3871.000000	0.003424
3870.000000	0.003403
3869.000000	0.003380
3868.000000	0.003366
3867.000000	0.003366
3866.000000	0.003373
3865.000000	0.003367
3864.000000	0.003340
3863.000000	0.003310
3862.000000	0.003295
3861.000000	0.003299
3860.000000	0.003313
3859.000000	0.003332
3858.000000	0.003357
3857.000000	0.003388
3856.000000	0.003427
3855.000000	0.003463
3854.000000	0.003483
3853.000000	0.003485
3852.000000	0.003476
3851.000000	0.003455
3850.000000	0.003428
3849.000000	0.003401
3848.000000	0.003374
3847.000000	0.003347
3846.000000	0.003325
3845.000000	0.003311
3844.000000	0.003310
3843.000000	0.003324
3842.000000	0.003346
3841.000000	0.003370
3840.000000	0.003392
3839.000000	0.003415
3838.000000	0.003442
3837.000000	0.003466
3836.000000	0.003469
3835.000000	0.003441
3834.000000	0.003386
3833.000000	0.003324
3832.000000	0.003279
3831.000000	0.003262
3830.000000	0.003266
3829.000000	0.003282
3828.000000	0.003301
3827.000000	0.003319
3826.000000	0.003338
3825.000000	0.003356
3824.000000	0.003366
3823.000000	0.003363
3822.000000	0.003343
3821.000000	0.003323
3820.000000	0.003323
3819.000000	0.003342
3818.000000	0.003363
3817.000000	0.003366
3816.000000	0.003345
3815.000000	0.003310
3814.000000	0.003281
3813.000000	0.003270
3812.000000	0.003271
3811.000000	0.003270
3810.000000	0.003253
3809.000000	0.003227
3808.000000	0.003208
3807.000000	0.003213
3806.000000	0.003240
3805.000000	0.003269
3804.000000	0.003282
3803.000000	0.003270
3802.000000	0.003241
3801.000000	0.003227
3800.000000	0.003247
3799.000000	0.003289
3798.000000	0.003326
3797.000000	0.003343
3796.000000	0.003331
3795.000000	0.003300
3794.000000	0.003267
3793.000000	0.003245
3792.000000	0.003237
3791.000000	0.003233
3790.000000	0.003228
3789.000000	0.003223
3788.000000	0.003223
3787.000000	0.003232
3786.000000	0.003250
3785.000000	0.003271
3784.000000	0.003291
3783.000000	0.003303
3782.000000	0.003303
3781.000000	0.003292
3780.000000	0.003273
3779.000000	0.003254
3778.000000	0.003242
3777.000000	0.003240
3776.000000	0.003245
3775.000000	0.003254
3774.000000	0.003261
3773.000000	0.003260
3772.000000	0.003256
3771.000000	0.003256
3770.000000	0.003263
3769.000000	0.003275
3768.000000	0.003282
3767.000000	0.003281
3766.000000	0.003273
3765.000000	0.003263
3764.000000	0.003255
3763.000000	0.003253
3762.000000	0.003257
3761.000000	0.003264
3760.000000	0.003265
3759.000000	0.003262
3758.000000	0.003262
3757.000000	0.003268
3756.000000	0.003275
3755.000000	0.003274
3754.000000	0.003268
3753.000000	0.003264
3752.000000	0.003270
3751.000000	0.003296
3750.000000	0.003341
3749.000000	0.003381
3748.000000	0.003392
3747.000000	0.003375
3746.000000	0.003347
3745.000000	0.003318
3744.000000	0.003292
3743.000000	0.003264
3742.000000	0.003230
3741.000000	0.003205
3740.000000	0.003202
3739.000000	0.003219
3738.000000	0.003265
3737.000000	0.003333
3736.000000	0.003387
3735.000000	0.003383
3734.000000	0.003323
3733.000000	0.003243
3732.000000	0.003181
3731.000000	0.003153
3730.000000	0.003162
3729.000000	0.003203
3728.000000	0.003263
3727.000000	0.003319
3726.000000	0.003351
3725.000000	0.003355
3724.000000	0.003341
3723.000000	0.003318
3722.000000	0.003294
3721.000000	0.003267
3720.000000	0.003236
3719.000000	0.003201
3718.000000	0.003173
3717.000000	0.003163
3716.000000	0.003171
3715.000000	0.003188
3714.000000	0.003209
3713.000000	0.003232
3712.000000	0.003257
3711.000000	0.003274
3710.000000	0.003267
3709.000000	0.003227
3708.000000	0.003165
3707.000000	0.003106
3706.000000	0.003070
3705.000000	0.003060
3704.000000	0.003064
3703.000000	0.003071
3702.000000	0.003076
3701.000000	0.003081
3700.000000	0.003084
3699.000000	0.003080
3698.000000	0.003068
3697.000000	0.003056
3696.000000	0.003057
3695.000000	0.003080
3694.000000	0.003120
3693.000000	0.003161
3692.000000	0.003175
3691.000000	0.003152
3690.000000	0.003110
3689.000000	0.003082
3688.000000	0.003082
3687.000000	0.003083
3686.000000	0.003061
3685.000000	0.003028
3684.000000	0.003004
3683.000000	0.002999
3682.000000	0.003009
3681.000000	0.003021
3680.000000	0.003023
3679.000000	0.003012
3678.000000	0.002996
3677.000000	0.002991
3676.000000	0.003010
3675.000000	0.003053
3674.000000	0.003102
3673.000000	0.003134
3672.000000	0.003151
3671.000000	0.003158
3670.000000	0.003151
3669.000000	0.003133
3668.000000	0.003114
3667.000000	0.003094
3666.000000	0.003071
3665.000000	0.003048
3664.000000	0.003030
3663.000000	0.003020
3662.000000	0.003023
3661.000000	0.003038
3660.000000	0.003061
3659.000000	0.003087
3658.000000	0.003113
3657.000000	0.003142
3656.000000	0.003177
3655.000000	0.003223
3654.000000	0.003280
3653.000000	0.003347
3652.000000	0.003414
3651.000000	0.003467
3650.000000	0.003503
3649.000000	0.003541
3648.000000	0.003594
3647.000000	0.003645
3646.000000	0.003672
3645.000000	0.003679
3644.000000	0.003681
3643.000000	0.003680
3642.000000	0.003668
3641.000000	0.003645
3640.000000	0.003627
3639.000000	0.003630
3638.000000	0.003659
3637.000000	0.003710
3636.000000	0.003769
3635.000000	0.003825
3634.000000	0.003865
3633.000000	0.003889
3632.000000	0.003907
3631.000000	0.003933
3630.000000	0.003968
3629.000000	0.004004
3628.000000	0.004032
3627.000000	0.004047
3626.000000	0.004050
3625.000000	0.004051
3624.000000	0.004056
3623.000000	0.004060
3622.000000	0.004062
3621.000000	0.004066
3620.000000	0.004084
3619.000000	0.004130
3618.000000	0.004202
3617.000000	0.004280
3616.000000	0.004345
3615.000000	0.004390
3614.000000	0.004418
3613.000000	0.004436
3612.000000	0.004446
3611.000000	0.004450
3610.000000	0.004455
3609.000000	0.004466
3608.000000	0.004481
3607.000000	0.004492
3606.000000	0.004495
3605.000000	0.004489
3604.000000	0.004478
3603.000000	0.004466
3602.000000	0.004461
3601.000000	0.004466
3600.000000	0.004483
3599.000000	0.004512
3598.000000	0.004554
3597.000000	0.004611
3596.000000	0.004673
3595.000000	0.004727
3594.000000	0.004763
3593.000000	0.004790
3592.000000	0.004821
3591.000000	0.004864
3590.000000	0.004915
3589.000000	0.004962
3588.000000	0.004993
3587.000000	0.005012
3586.000000	0.005024
3585.000000	0.005033
3584.000000	0.005040
3583.000000	0.005054
3582.000000	0.005080
3581.000000	0.005108
3580.000000	0.005132
3579.000000	0.005148
3578.000000	0.005160
3577.000000	0.005174
3576.000000	0.005193
3575.000000	0.005218
3574.000000	0.005249
3573.000000	0.005284
3572.000000	0.005326
3571.000000	0.005384
3570.000000	0.005466
3569.000000	0.005570
3568.000000	0.005681
3567.000000	0.005773
3566.000000	0.005833
3565.000000	0.005856
3564.000000	0.005847
3563.000000	0.005823
3562.000000	0.005808
3561.000000	0.005821
3560.000000	0.005863
3559.000000	0.005915
3558.000000	0.005955
3557.000000	0.005976
3556.000000	0.005991
3555.000000	0.006020
3554.000000	0.006073
3553.000000	0.006140
3552.000000	0.006200
3551.000000	0.006241
3550.000000	0.006268
3549.000000	0.006298
3548.000000	0.006343
3547.000000	0.006398
3546.000000	0.006446
3545.000000	0.006474
3544.000000	0.006479
3543.000000	0.006469
3542.000000	0.006459
3541.000000	0.006459
3540.000000	0.006477
3539.000000	0.006508
3538.000000	0.006546
3537.000000	0.006581
3536.000000	0.006606
3535.000000	0.006624
3534.000000	0.006642
3533.000000	0.006667
3532.000000	0.006697
3531.000000	0.006724
3530.000000	0.006744
3529.000000	0.006762
3528.000000	0.006784
3527.000000	0.006811
3526.000000	0.006839
3525.000000	0.006866
3524.000000	0.006893
3523.000000	0.006916
3522.000000	0.006930
3521.000000	0.006933
3520.000000	0.006928
3519.000000	0.006917
3518.000000	0.006904
3517.000000	0.006890
3516.000000	0.006880
3515.000000	0.006881
3514.000000	0.006897
3513.000000	0.006926
3512.000000	0.006960
3511.000000	0.006994
3510.000000	0.007023
3509.000000	0.007046
3508.000000	0.007065
3507.000000	0.007086
3506.000000	0.007115
3505.000000	0.007153
3504.000000	0.007192
3503.000000	0.007222
3502.000000	0.007235
3501.000000	0.007230
3500.000000	0.007215
3499.000000	0.007197
3498.000000	0.007187
3497.000000	0.007193
3496.000000	0.007218
3495.000000	0.007256
3494.000000	0.007290
3493.000000	0.007311
3492.000000	0.007316
3491.000000	0.007318
3490.000000	0.007327
3489.000000	0.007347
3488.000000	0.007373
3487.000000	0.007397
3486.000000	0.007415
3485.000000	0.007430
3484.000000	0.007443
3483.000000	0.007454
3482.000000	0.007461
3481.000000	0.007465
3480.000000	0.007468
3479.000000	0.007472
3478.000000	0.007478
3477.000000	0.007488
3476.000000	0.007505
3475.000000	0.007533
3474.000000	0.007570
3473.000000	0.007608
3472.000000	0.007643
3471.000000	0.007671
3470.000000	0.007696
3469.000000	0.007719
3468.000000	0.007737
3467.000000	0.007747
3466.000000	0.007750
3465.000000	0.007752
3464.000000	0.007762
3463.000000	0.007781
3462.000000	0.007803
3461.000000	0.007825
3460.000000	0.007845
3459.000000	0.007866
3458.000000	0.007891
3457.000000	0.007918
3456.000000	0.007942
3455.000000	0.007957
3454.000000	0.007964
3453.000000	0.007970
3452.000000	0.007984
3451.000000	0.008011
3450.000000	0.008047
3449.000000	0.008090
3448.000000	0.008136
3447.000000	0.008182
3446.000000	0.008224
3445.000000	0.008254
3444.000000	0.008268
3443.000000	0.008271
3442.000000	0.008272
3441.000000	0.008281
3440.000000	0.008304
3439.000000	0.008336
3438.000000	0.008366
3437.000000	0.008388
3436.000000	0.008404
3435.000000	0.008422
3434.000000	0.008449
3433.000000	0.008484
3432.000000	0.008520
3431.000000	0.008552
3430.000000	0.008576
3429.000000	0.008592
3428.000000	0.008609
3427.000000	0.008640
3426.000000	0.008694
3425.000000	0.008762
3424.000000	0.008829
3423.000000	0.008883
3422.000000	0.008926
3421.000000	0.008966
3420.000000	0.009008
3419.000000	0.009049
3418.000000	0.009084
3417.000000	0.009114
3416.000000	0.009141
3415.000000	0.009162
3414.000000	0.009176
3413.000000	0.009184
3412.000000	0.009192
3411.000000	0.009205
3410.000000	0.009227
3409.000000	0.009255
3408.000000	0.009288
3407.000000	0.009324
3406.000000	0.009361
3405.000000	0.009393
3404.000000	0.009417
3403.000000	0.009438
3402.000000	0.009461
3401.000000	0.009492
3400.000000	0.009532
3399.000000	0.009576
3398.000000	0.009614
3397.000000	0.009637
3396.000000	0.009640
3395.000000	0.009633
3394.000000	0.009626
3393.000000	0.009627
3392.000000	0.009634
3391.000000	0.009644
3390.000000	0.009654
3389.000000	0.009665
3388.000000	0.009675
3387.000000	0.009684
3386.000000	0.009691
3385.000000	0.009702
3384.000000	0.009717
3383.000000	0.009730
3382.000000	0.009733
3381.000000	0.009725
3380.000000	0.009717
3379.000000	0.009717
3378.000000	0.009730
3377.000000	0.009752
3376.000000	0.009776
3375.000000	0.009799
3374.000000	0.009821
3373.000000	0.009841
3372.000000	0.009861
3371.000000	0.009883
3370.000000	0.009905
3369.000000	0.009928
3368.000000	0.009947
3367.000000	0.009964
3366.000000	0.009978
3365.000000	0.009993
3364.000000	0.010007
3363.000000	0.010018
3362.000000	0.010024
3361.000000	0.010029
3360.000000	0.010043
3359.000000	0.010068
3358.000000	0.010103
3357.000000	0.010139
3356.000000	0.010167
3355.000000	0.010187
3354.000000	0.010205
3353.000000	0.010221
3352.000000	0.010236
3351.000000	0.010245
3350.000000	0.010252
3349.000000	0.010263
3348.000000	0.010286
3347.000000	0.010324
3346.000000	0.010370
3345.000000	0.010411
3344.000000	0.010436
3343.000000	0.010445
3342.000000	0.010447
3341.000000	0.010452
3340.000000	0.010471
3339.000000	0.010507
3338.000000	0.010553
3337.000000	0.010595
3336.000000	0.010619
3335.000000	0.010628
3334.000000	0.010638
3333.000000	0.010664
3332.000000	0.010700
3331.000000	0.010727
3330.000000	0.010737
3329.000000	0.010738
3328.000000	0.010748
3327.000000	0.010773
3326.000000	0.010805
3325.000000	0.010832
3324.000000	0.010849
3323.000000	0.010862
3322.000000	0.010880
3321.000000	0.010901
3320.000000	0.010920
3319.000000	0.010935
3318.000000	0.010947
3317.000000	0.010960
3316.000000	0.010978
3315.000000	0.011003
3314.000000	0.011029
3313.000000	0.011047
3312.000000	0.011048
3311.000000	0.011034
3310.000000	0.011018
3309.000000	0.011010
3308.000000	0.011016
3307.000000	0.011029
3306.000000	0.011046
3305.000000	0.011067
3304.000000	0.011094
3303.000000	0.011125
3302.000000	0.011156
3301.000000	0.011180
3300.000000	0.011194
3299.000000	0.011197
3298.000000	0.011196
3297.000000	0.011196
3296.000000	0.011196
3295.000000	0.011195
3294.000000	0.011193
3293.000000	0.011194
3292.000000	0.011199
3291.000000	0.011206
3290.000000	0.011213
3289.000000	0.011223
3288.000000	0.011240
3287.000000	0.011262
3286.000000	0.011281
3285.000000	0.011285
3284.000000	0.011274
3283.000000	0.011256
3282.000000	0.011243
3281.000000	0.011241
3280.000000	0.011243
3279.000000	0.011242
3278.000000	0.011232
3277.000000	0.011210
3276.000000	0.011175
3275.000000	0.011131
3274.000000	0.011087
3273.000000	0.011054
3272.000000	0.011034
3271.000000	0.011025
3270.000000	0.011019
3269.000000	0.011016
3268.000000	0.011018
3267.000000	0.011024
3266.000000	0.011031
3265.000000	0.011027
3264.000000	0.011003
3263.000000	0.010958
3262.000000	0.010903
3261.000000	0.010860
3260.000000	0.010836
3259.000000	0.010826
3258.000000	0.010816
3257.000000	0.010801
3256.000000	0.010783
3255.000000	0.010762
3254.000000	0.010734
3253.000000	0.010697
3252.000000	0.010657
3251.000000	0.010622
3250.000000	0.010597
3249.000000	0.010584
3248.000000	0.010585
3247.000000	0.010600
3246.000000	0.010622
3245.000000	0.010635
3244.000000	0.010628
3243.000000	0.010600
3242.000000	0.010565
3241.000000	0.010539
3240.000000	0.010528
3239.000000	0.010518
3238.000000	0.010492
3237.000000	0.010444
3236.000000	0.010386
3235.000000	0.010343
3234.000000	0.010330
3233.000000	0.010345
3232.000000	0.010368
3231.000000	0.010380
3230.000000	0.010371
3229.000000	0.010342
3228.000000	0.010302
3227.000000	0.010264
3226.000000	0.010238
3225.000000	0.010228
3224.000000	0.010229
3223.000000	0.010228
3222.000000	0.010215
3221.000000	0.010194
3220.000000	0.010178
3219.000000	0.010182
3218.000000	0.010200
3217.000000	0.010211
3216.000000	0.010198
3215.000000	0.010162
3214.000000	0.010122
3213.000000	0.010098
3212.000000	0.010090
3211.000000	0.010086
3210.000000	0.010075
3209.000000	0.010051
3208.000000	0.010016
3207.000000	0.009976
3206.000000	0.009941
3205.000000	0.009921
3204.000000	0.009918
3203.000000	0.009927
3202.000000	0.009939
3201.000000	0.009943
3200.000000	0.009932
3199.000000	0.009907
3198.000000	0.009882
3197.000000	0.009870
3196.000000	0.009873
3195.000000	0.009879
3194.000000	0.009870
3193.000000	0.009840
3192.000000	0.009796
3191.000000	0.009755
3190.000000	0.009724
3189.000000	0.009701
3188.000000	0.009679
3187.000000	0.009654
3186.000000	0.009626
3185.000000	0.009598
3184.000000	0.009571
3183.000000	0.009549
3182.000000	0.009535
3181.000000	0.009530
3180.000000	0.009531
3179.000000	0.009531
3178.000000	0.009525
3177.000000	0.009513
3176.000000	0.009499
3175.000000	0.009485
3174.000000	0.009467
3173.000000	0.009442
3172.000000	0.009409
3171.000000	0.009376
3170.000000	0.009347
3169.000000	0.009322
3168.000000	0.009292
3167.000000	0.009255
3166.000000	0.009216
3165.000000	0.009187
3164.000000	0.009170
3163.000000	0.009157
3162.000000	0.009139
3161.000000	0.009112
3160.000000	0.009076
3159.000000	0.009038
3158.000000	0.009006
3157.000000	0.008989
3156.000000	0.008991
3155.000000	0.009002
3154.000000	0.009008
3153.000000	0.009000
3152.000000	0.008979
3151.000000	0.008951
3150.000000	0.008924
3149.000000	0.008900
3148.000000	0.008879
3147.000000	0.008859
3146.000000	0.008841
3145.000000	0.008826
3144.000000	0.008815
3143.000000	0.008806
3142.000000	0.008801
3141.000000	0.008800
3140.000000	0.008801
3139.000000	0.008802
3138.000000	0.008801
3137.000000	0.008794
3136.000000	0.008775
3135.000000	0.008743
3134.000000	0.008705
3133.000000	0.008671
3132.000000	0.008652
3131.000000	0.008647
3130.000000	0.008651
3129.000000	0.008657
3128.000000	0.008657
3127.000000	0.008647
3126.000000	0.008628
3125.000000	0.008605
3124.000000	0.008581
3123.000000	0.008560
3122.000000	0.008549
3121.000000	0.008549
3120.000000	0.008556
3119.000000	0.008555
3118.000000	0.008540
3117.000000	0.008516
3116.000000	0.008497
3115.000000	0.008493
3114.000000	0.008503
3113.000000	0.008519
3112.000000	0.008531
3111.000000	0.008537
3110.000000	0.008540
3109.000000	0.008543
3108.000000	0.008544
3107.000000	0.008540
3106.000000	0.008534
3105.000000	0.008534
3104.000000	0.008544
3103.000000	0.008560
3102.000000	0.008573
3101.000000	0.008573
3100.000000	0.008562
3099.000000	0.008550
3098.000000	0.008545
3097.000000	0.008552
3096.000000	0.008570
3095.000000	0.008589
3094.000000	0.008602
3093.000000	0.008602
3092.000000	0.008592
3091.000000	0.008576
3090.000000	0.008565
3089.000000	0.008563
3088.000000	0.008570
3087.000000	0.008575
3086.000000	0.008572
3085.000000	0.008563
3084.000000	0.008556
3083.000000	0.008558
3082.000000	0.008568
3081.000000	0.008573
3080.000000	0.008568
3079.000000	0.008555
3078.000000	0.008549
3077.000000	0.008557
3076.000000	0.008575
3075.000000	0.008589
3074.000000	0.008591
3073.000000	0.008584
3072.000000	0.008575
3071.000000	0.008569
3070.000000	0.008565
3069.000000	0.008557
3068.000000	0.008542
3067.000000	0.008524
3066.000000	0.008512
3065.000000	0.008514
3064.000000	0.008528
3063.000000	0.008543
3062.000000	0.008547
3061.000000	0.008536
3060.000000	0.008511
3059.000000	0.008478
3058.000000	0.008442
3057.000000	0.008412
3056.000000	0.008391
3055.000000	0.008378
3054.000000	0.008366
3053.000000	0.008352
3052.000000	0.008336
3051.000000	0.008324
3050.000000	0.008315
3049.000000	0.008305
3048.000000	0.008287
3047.000000	0.008258
3046.000000	0.008223
3045.000000	0.008189
3044.000000	0.008162
3043.000000	0.008139
3042.000000	0.008118
3041.000000	0.008094
3040.000000	0.008067
3039.000000	0.008036
3038.000000	0.008004
3037.000000	0.007971
3036.000000	0.007935
3035.000000	0.007895
3034.000000	0.007858
3033.000000	0.007831
3032.000000	0.007816
3031.000000	0.007805
3030.000000	0.007789
3029.000000	0.007765
3028.000000	0.007733
3027.000000	0.007696
3026.000000	0.007658
3025.000000	0.007621
3024.000000	0.007586
3023.000000	0.007553
3022.000000	0.007516
3021.000000	0.007472
3020.000000	0.007422
3019.000000	0.007369
3018.000000	0.007314
3017.000000	0.007258
3016.000000	0.007207
3015.000000	0.007165
3014.000000	0.007134
3013.000000	0.007108
3012.000000	0.007079
3011.000000	0.007049
3010.000000	0.007026
3009.000000	0.007013
3008.000000	0.006999
3007.000000	0.006967
3006.000000	0.006912
3005.000000	0.006846
3004.000000	0.006788
3003.000000	0.006754
3002.000000	0.006746
3001.000000	0.006748
3000.000000	0.006744
2999.000000	0.006725
2998.000000	0.006703
2997.000000	0.006695
2996.000000	0.006708
2995.000000	0.006739
2994.000000	0.006772
2993.000000	0.006793
2992.000000	0.006786
2991.000000	0.006755
2990.000000	0.006721
2989.000000	0.006715
2988.000000	0.006756
2987.000000	0.006837
2986.000000	0.006941
2985.000000	0.007052
2984.000000	0.007161
2983.000000	0.007265
2982.000000	0.007362
2981.000000	0.007455
2980.000000	0.007548
2979.000000	0.007646
2978.000000	0.007747
2977.000000	0.007845
2976.000000	0.007942
2975.000000	0.008043
2974.000000	0.008159
2973.000000	0.008290
2972.000000	0.008436
2971.000000	0.008593
2970.000000	0.008763
2969.000000	0.008948
2968.000000	0.009142
2967.000000	0.009339
2966.000000	0.009535
2965.000000	0.009730
2964.000000	0.009918
2963.000000	0.010092
2962.000000	0.010245
2961.000000	0.010380
2960.000000	0.010498
2959.000000	0.010601
2958.000000	0.010690
2957.000000	0.010760
2956.000000	0.010805
2955.000000	0.010820
2954.000000	0.010810
2953.000000	0.010790
2952.000000	0.010783
2951.000000	0.010795
2950.000000	0.010821
2949.000000	0.010846
2948.000000	0.010861
2947.000000	0.010877
2946.000000	0.010917
2945.000000	0.010998
2944.000000	0.011118
2943.000000	0.011261
2942.000000	0.011409
2941.000000	0.011560
2940.000000	0.011721
2939.000000	0.011901
2938.000000	0.012102
2937.000000	0.012319
2936.000000	0.012540
2935.000000	0.012755
2934.000000	0.012963
2933.000000	0.013167
2932.000000	0.013369
2931.000000	0.013561
2930.000000	0.013736
2929.000000	0.013897
2928.000000	0.014054
2927.000000	0.014212
2926.000000	0.014368
2925.000000	0.014511
2924.000000	0.014633
2923.000000	0.014737
2922.000000	0.014834
2921.000000	0.014927
2920.000000	0.015001
2919.000000	0.015029
2918.000000	0.014990
2917.000000	0.014873
2916.000000	0.014674
2915.000000	0.014392
2914.000000	0.014036
2913.000000	0.013635
2912.000000	0.013224
2911.000000	0.012835
2910.000000	0.012489
2909.000000	0.012190
2908.000000	0.011929
2907.000000	0.011692
2906.000000	0.011465
2905.000000	0.011242
2904.000000	0.011020
2903.000000	0.010807
2902.000000	0.010616
2901.000000	0.010465
2900.000000	0.010353
2899.000000	0.010262
2898.000000	0.010170
2897.000000	0.010067
2896.000000	0.009954
2895.000000	0.009839
2894.000000	0.009724
2893.000000	0.009614
2892.000000	0.009516
2891.000000	0.009436
2890.000000	0.009375
2889.000000	0.009328
2888.000000	0.009288
2887.000000	0.009247
2886.000000	0.009206
2885.000000	0.009176
2884.000000	0.009168
2883.000000	0.009184
2882.000000	0.009221
2881.000000	0.009269
2880.000000	0.009316
2879.000000	0.009360
2878.000000	0.009415
2877.000000	0.009497
2876.000000	0.009612
2875.000000	0.009738
2874.000000	0.009843
2873.000000	0.009907
2872.000000	0.009932
2871.000000	0.009932
2870.000000	0.009927
2869.000000	0.009937
2868.000000	0.009971
2867.000000	0.010024
2866.000000	0.010086
2865.000000	0.010150
2864.000000	0.010220
2863.000000	0.010305
2862.000000	0.010410
2861.000000	0.010534
2860.000000	0.010676
2859.000000	0.010836
2858.000000	0.011009
2857.000000	0.011191
2856.000000	0.011373
2855.000000	0.011552
2854.000000	0.011724
2853.000000	0.011887
2852.000000	0.012029
2851.000000	0.012119
2850.000000	0.012119
2849.000000	0.012000
2848.000000	0.011760
2847.000000	0.011423
2846.000000	0.011036
2845.000000	0.010647
2844.000000	0.010295
2843.000000	0.009996
2842.000000	0.009746
2841.000000	0.009536
2840.000000	0.009356
2839.000000	0.009201
2838.000000	0.009063
2837.000000	0.008939
2836.000000	0.008827
2835.000000	0.008731
2834.000000	0.008647
2833.000000	0.008573
2832.000000	0.008502
2831.000000	0.008435
2830.000000	0.008374
2829.000000	0.008321
2828.000000	0.008275
2827.000000	0.008232
2826.000000	0.008190
2825.000000	0.008149
2824.000000	0.008108
2823.000000	0.008070
2822.000000	0.008037
2821.000000	0.008013
2820.000000	0.008003
2819.000000	0.008001
2818.000000	0.008002
2817.000000	0.007998
2816.000000	0.007988
2815.000000	0.007972
2814.000000	0.007952
2813.000000	0.007927
2812.000000	0.007896
2811.000000	0.007859
2810.000000	0.007819
2809.000000	0.007786
2808.000000	0.007768
2807.000000	0.007758
2806.000000	0.007741
2805.000000	0.007710
2804.000000	0.007673
2803.000000	0.007642
2802.000000	0.007629
2801.000000	0.007631
2800.000000	0.007643
2799.000000	0.007654
2798.000000	0.007655
2797.000000	0.007639
2796.000000	0.007608
2795.000000	0.007572
2794.000000	0.007546
2793.000000	0.007535
2792.000000	0.007533
2791.000000	0.007528
2790.000000	0.007510
2789.000000	0.007481
2788.000000	0.007449
2787.000000	0.007427
2786.000000	0.007419
2785.000000	0.007423
2784.000000	0.007432
2783.000000	0.007436
2782.000000	0.007433
2781.000000	0.007425
2780.000000	0.007415
2779.000000	0.007400
2778.000000	0.007384
2777.000000	0.007374
2776.000000	0.007369
2775.000000	0.007361
2774.000000	0.007340
2773.000000	0.007309
2772.000000	0.007287
2771.000000	0.007285
2770.000000	0.007295
2769.000000	0.007300
2768.000000	0.007291
2767.000000	0.007272
2766.000000	0.007252
2765.000000	0.007238
2764.000000	0.007229
2763.000000	0.007220
2762.000000	0.007211
2761.000000	0.007207
2760.000000	0.007211
2759.000000	0.007223
2758.000000	0.007235
2757.000000	0.007241
2756.000000	0.007240
2755.000000	0.007234
2754.000000	0.007225
2753.000000	0.007212
2752.000000	0.007195
2751.000000	0.007176
2750.000000	0.007158
2749.000000	0.007144
2748.000000	0.007135
2747.000000	0.007130
2746.000000	0.007129
2745.000000	0.007127
2744.000000	0.007121
2743.000000	0.007110
2742.000000	0.007097
2741.000000	0.007092
2740.000000	0.007099
2739.000000	0.007111
2738.000000	0.007117
2737.000000	0.007110
2736.000000	0.007094
2735.000000	0.007083
2734.000000	0.007084
2733.000000	0.007094
2732.000000	0.007107
2731.000000	0.007115
2730.000000	0.007118
2729.000000	0.007116
2728.000000	0.007112
2727.000000	0.007106
2726.000000	0.007099
2725.000000	0.007090
2724.000000	0.007080
2723.000000	0.007070
2722.000000	0.007064
2721.000000	0.007063
2720.000000	0.007067
2719.000000	0.007071
2718.000000	0.007075
2717.000000	0.007078
2716.000000	0.007080
2715.000000	0.007071
2714.000000	0.007048
2713.000000	0.007017
2712.000000	0.006993
2711.000000	0.006987
2710.000000	0.006997
2709.000000	0.007012
2708.000000	0.007023
2707.000000	0.007024
2706.000000	0.007018
2705.000000	0.007010
2704.000000	0.007005
2703.000000	0.006999
2702.000000	0.006990
2701.000000	0.006979
2700.000000	0.006966
2699.000000	0.006954
2698.000000	0.006946
2697.000000	0.006941
2696.000000	0.006941
2695.000000	0.006942
2694.000000	0.006942
2693.000000	0.006942
2692.000000	0.006946
2691.000000	0.006956
2690.000000	0.006967
2689.000000	0.006971
2688.000000	0.006966
2687.000000	0.006956
2686.000000	0.006946
2685.000000	0.006938
2684.000000	0.006932
2683.000000	0.006930
2682.000000	0.006931
2681.000000	0.006934
2680.000000	0.006935
2679.000000	0.006934
2678.000000	0.006934
2677.000000	0.006937
2676.000000	0.006946
2675.000000	0.006958
2674.000000	0.006969
2673.000000	0.006972
2672.000000	0.006961
2671.000000	0.006935
2670.000000	0.006903
2669.000000	0.006880
2668.000000	0.006876
2667.000000	0.006885
2666.000000	0.006898
2665.000000	0.006905
2664.000000	0.006911
2663.000000	0.006925
2662.000000	0.006950
2661.000000	0.006977
2660.000000	0.006994
2659.000000	0.006993
2658.000000	0.006974
2657.000000	0.006943
2656.000000	0.006915
2655.000000	0.006900
2654.000000	0.006899
2653.000000	0.006899
2652.000000	0.006888
2651.000000	0.006865
2650.000000	0.006843
2649.000000	0.006832
2648.000000	0.006823
2647.000000	0.006807
2646.000000	0.006780
2645.000000	0.006750
2644.000000	0.006724
2643.000000	0.006704
2642.000000	0.006690
2641.000000	0.006682
2640.000000	0.006684
2639.000000	0.006692
2638.000000	0.006698
2637.000000	0.006692
2636.000000	0.006667
2635.000000	0.006625
2634.000000	0.006575
2633.000000	0.006532
2632.000000	0.006505
2631.000000	0.006495
2630.000000	0.006493
2629.000000	0.006492
2628.000000	0.006486
2627.000000	0.006471
2626.000000	0.006444
2625.000000	0.006408
2624.000000	0.006370
2623.000000	0.006336
2622.000000	0.006314
2621.000000	0.006307
2620.000000	0.006318
2619.000000	0.006344
2618.000000	0.006371
2617.000000	0.006376
2616.000000	0.006345
2615.000000	0.006288
2614.000000	0.006238
2613.000000	0.006221
2612.000000	0.006235
2611.000000	0.006257
2610.000000	0.006268
2609.000000	0.006271
2608.000000	0.006280
2607.000000	0.006299
2606.000000	0.006319
2605.000000	0.006328
2604.000000	0.006323
2603.000000	0.006308
2602.000000	0.006285
2601.000000	0.006256
2600.000000	0.006221
2599.000000	0.006181
2598.000000	0.006134
2597.000000	0.006083
2596.000000	0.006039
2595.000000	0.006019
2594.000000	0.006032
2593.000000	0.006065
2592.000000	0.006091
2591.000000	0.006091
2590.000000	0.006073
2589.000000	0.006056
2588.000000	0.006048
2587.000000	0.006046
2586.000000	0.006046
2585.000000	0.006043
2584.000000	0.006035
2583.000000	0.006021
2582.000000	0.006005
2581.000000	0.005996
2580.000000	0.005990
2579.000000	0.005980
2578.000000	0.005963
2577.000000	0.005952
2576.000000	0.005956
2575.000000	0.005973
2574.000000	0.005993
2573.000000	0.006007
2572.000000	0.006013
2571.000000	0.006012
2570.000000	0.006002
2569.000000	0.005983
2568.000000	0.005952
2567.000000	0.005913
2566.000000	0.005873
2565.000000	0.005843
2564.000000	0.005829
2563.000000	0.005836
2562.000000	0.005858
2561.000000	0.005884
2560.000000	0.005899
2559.000000	0.005897
2558.000000	0.005884
2557.000000	0.005873
2556.000000	0.005869
2555.000000	0.005867
2554.000000	0.005860
2553.000000	0.005850
2552.000000	0.005846
2551.000000	0.005851
2550.000000	0.005856
2549.000000	0.005851
2548.000000	0.005833
2547.000000	0.005814
2546.000000	0.005808
2545.000000	0.005814
2544.000000	0.005822
2543.000000	0.005822
2542.000000	0.005821
2541.000000	0.005823
2540.000000	0.005830
2539.000000	0.005836
2538.000000	0.005842
2537.000000	0.005849
2536.000000	0.005856
2535.000000	0.005862
2534.000000	0.005865
2533.000000	0.005864
2532.000000	0.005859
2531.000000	0.005851
2530.000000	0.005855
2529.000000	0.005877
2528.000000	0.005910
2527.000000	0.005940
2526.000000	0.005964
2525.000000	0.005989
2524.000000	0.006015
2523.000000	0.006037
2522.000000	0.006052
2521.000000	0.006064
2520.000000	0.006068
2519.000000	0.006052
2518.000000	0.006010
2517.000000	0.005956
2516.000000	0.005913
2515.000000	0.005904
2514.000000	0.005936
2513.000000	0.005997
2512.000000	0.006054
2511.000000	0.006075
2510.000000	0.006055
2509.000000	0.006015
2508.000000	0.005987
2507.000000	0.005981
2506.000000	0.005982
2505.000000	0.005963
2504.000000	0.005915
2503.000000	0.005851
2502.000000	0.005799
2501.000000	0.005781
2500.000000	0.005788
2499.000000	0.005800
2498.000000	0.005808
2497.000000	0.005818
2496.000000	0.005834
2495.000000	0.005845
2494.000000	0.005832
2493.000000	0.005790
2492.000000	0.005733
2491.000000	0.005685
2490.000000	0.005667
2489.000000	0.005683
2488.000000	0.005716
2487.000000	0.005741
2486.000000	0.005748
2485.000000	0.005742
2484.000000	0.005734
2483.000000	0.005721
2482.000000	0.005697
2481.000000	0.005663
2480.000000	0.005624
2479.000000	0.005584
2478.000000	0.005543
2477.000000	0.005507
2476.000000	0.005485
2475.000000	0.005483
2474.000000	0.005496
2473.000000	0.005516
2472.000000	0.005533
2471.000000	0.005537
2470.000000	0.005519
2469.000000	0.005478
2468.000000	0.005432
2467.000000	0.005402
2466.000000	0.005402
2465.000000	0.005426
2464.000000	0.005455
2463.000000	0.005481
2462.000000	0.005501
2461.000000	0.005511
2460.000000	0.005500
2459.000000	0.005466
2458.000000	0.005434
2457.000000	0.005426
2456.000000	0.005442
2455.000000	0.005459
2454.000000	0.005461
2453.000000	0.005455
2452.000000	0.005464
2451.000000	0.005502
2450.000000	0.005559
2449.000000	0.005610
2448.000000	0.005624
2447.000000	0.005592
2446.000000	0.005529
2445.000000	0.005468
2444.000000	0.005433
2443.000000	0.005430
2442.000000	0.005454
2441.000000	0.005490
2440.000000	0.005514
2439.000000	0.005511
2438.000000	0.005484
2437.000000	0.005458
2436.000000	0.005456
2435.000000	0.005473
2434.000000	0.005485
2433.000000	0.005468
2432.000000	0.005427
2431.000000	0.005389
2430.000000	0.005375
2429.000000	0.005386
2428.000000	0.005404
2427.000000	0.005418
2426.000000	0.005430
2425.000000	0.005445
2424.000000	0.005457
2423.000000	0.005462
2422.000000	0.005463
2421.000000	0.005462
2420.000000	0.005455
2419.000000	0.005436
2418.000000	0.005407
2417.000000	0.005374
2416.000000	0.005344
2415.000000	0.005322
2414.000000	0.005316
2413.000000	0.005326
2412.000000	0.005340
2411.000000	0.005350
2410.000000	0.005357
2409.000000	0.005368
2408.000000	0.005375
2407.000000	0.005373
2406.000000	0.005364
2405.000000	0.005360
2404.000000	0.005365
2403.000000	0.005368
2402.000000	0.005366
2401.000000	0.005361
2400.000000	0.005356
2399.000000	0.005343
2398.000000	0.005324
2397.000000	0.005311
2396.000000	0.005320
2395.000000	0.005355
2394.000000	0.005404
2393.000000	0.005447
2392.000000	0.005468
2391.000000	0.005467
2390.000000	0.005453
2389.000000	0.005433
2388.000000	0.005405
2387.000000	0.005376
2386.000000	0.005356
2385.000000	0.005346
2384.000000	0.005328
2383.000000	0.005290
2382.000000	0.005246
2381.000000	0.005226
2380.000000	0.005236
2379.000000	0.005260
2378.000000	0.005284
2377.000000	0.005315
2376.000000	0.005353
2375.000000	0.005387
2374.000000	0.005402
2373.000000	0.005394
2372.000000	0.005367
2371.000000	0.005333
2370.000000	0.005306
2369.000000	0.005286
2368.000000	0.005269
2367.000000	0.005256
2366.000000	0.005260
2365.000000	0.005289
2364.000000	0.005334
2363.000000	0.005387
2362.000000	0.005446
2361.000000	0.005489
2360.000000	0.005493
2359.000000	0.005461
2358.000000	0.005419
2357.000000	0.005383
2356.000000	0.005371
2355.000000	0.005400
2354.000000	0.005438
2353.000000	0.005428
2352.000000	0.005384
2351.000000	0.005379
2350.000000	0.005442
2349.000000	0.005533
2348.000000	0.005585
2347.000000	0.005553
2346.000000	0.005471
2345.000000	0.005444
2344.000000	0.005521
2343.000000	0.005635
2342.000000	0.005683
2341.000000	0.005633
2340.000000	0.005545
2339.000000	0.005498
2338.000000	0.005512
2337.000000	0.005552
2336.000000	0.005578
2335.000000	0.005564
2334.000000	0.005493
2333.000000	0.005375
2332.000000	0.005269
2331.000000	0.005239
2330.000000	0.005303
2329.000000	0.005425
2328.000000	0.005577
2327.000000	0.005732
2326.000000	0.005856
2325.000000	0.005917
2324.000000	0.005915
2323.000000	0.005886
2322.000000	0.005874
2321.000000	0.005902
2320.000000	0.005961
2319.000000	0.006006
2318.000000	0.005998
2317.000000	0.005924
2316.000000	0.005816
2315.000000	0.005715
2314.000000	0.005647
2313.000000	0.005613
2312.000000	0.005608
2311.000000	0.005619
2310.000000	0.005637
2309.000000	0.005646
2308.000000	0.005629
2307.000000	0.005578
2306.000000	0.005509
2305.000000	0.005459
2304.000000	0.005449
2303.000000	0.005465
2302.000000	0.005481
2301.000000	0.005485
2300.000000	0.005480
2299.000000	0.005465
2298.000000	0.005442
2297.000000	0.005429
2296.000000	0.005443
2295.000000	0.005485
2294.000000	0.005528
2293.000000	0.005551
2292.000000	0.005552
2291.000000	0.005548
2290.000000	0.005560
2289.000000	0.005597
2288.000000	0.005650
2287.000000	0.005699
2286.000000	0.005721
2285.000000	0.005708
2284.000000	0.005661
2283.000000	0.005588
2282.000000	0.005513
2281.000000	0.005463
2280.000000	0.005446
2279.000000	0.005441
2278.000000	0.005426
2277.000000	0.005403
2276.000000	0.005385
2275.000000	0.005370
2274.000000	0.005348
2273.000000	0.005318
2272.000000	0.005291
2271.000000	0.005272
2270.000000	0.005261
2269.000000	0.005249
2268.000000	0.005232
2267.000000	0.005211
2266.000000	0.005199
2265.000000	0.005207
2264.000000	0.005226
2263.000000	0.005229
2262.000000	0.005206
2261.000000	0.005176
2260.000000	0.005150
2259.000000	0.005109
2258.000000	0.005034
2257.000000	0.004945
2256.000000	0.004879
2255.000000	0.004853
2254.000000	0.004862
2253.000000	0.004911
2252.000000	0.005000
2251.000000	0.005087
2250.000000	0.005107
2249.000000	0.005048
2248.000000	0.004968
2247.000000	0.004935
2246.000000	0.004958
2245.000000	0.004998
2244.000000	0.005021
2243.000000	0.005030
2242.000000	0.005043
2241.000000	0.005064
2240.000000	0.005066
2239.000000	0.005025
2238.000000	0.004948
2237.000000	0.004877
2236.000000	0.004844
2235.000000	0.004837
2234.000000	0.004812
2233.000000	0.004756
2232.000000	0.004704
2231.000000	0.004709
2230.000000	0.004784
2229.000000	0.004889
2228.000000	0.004962
2227.000000	0.004964
2226.000000	0.004903
2225.000000	0.004822
2224.000000	0.004759
2223.000000	0.004730
2222.000000	0.004728
2221.000000	0.004743
2220.000000	0.004766
2219.000000	0.004789
2218.000000	0.004802
2217.000000	0.004797
2216.000000	0.004777
2215.000000	0.004760
2214.000000	0.004764
2213.000000	0.004790
2212.000000	0.004812
2211.000000	0.004808
2210.000000	0.004785
2209.000000	0.004761
2208.000000	0.004742
2207.000000	0.004727
2206.000000	0.004729
2205.000000	0.004751
2204.000000	0.004755
2203.000000	0.004695
2202.000000	0.004586
2201.000000	0.004497
2200.000000	0.004459
2199.000000	0.004422
2198.000000	0.004346
2197.000000	0.004271
2196.000000	0.004279
2195.000000	0.004400
2194.000000	0.004597
2193.000000	0.004810
2192.000000	0.004971
2191.000000	0.005000
2190.000000	0.004860
2189.000000	0.004616
2188.000000	0.004405
2187.000000	0.004331
2186.000000	0.004398
2185.000000	0.004534
2184.000000	0.004658
2183.000000	0.004707
2182.000000	0.004658
2181.000000	0.004548
2180.000000	0.004453
2179.000000	0.004441
2178.000000	0.004513
2177.000000	0.004614
2176.000000	0.004668
2175.000000	0.004635
2174.000000	0.004534
2173.000000	0.004426
2172.000000	0.004367
2171.000000	0.004369
2170.000000	0.004403
2169.000000	0.004440
2168.000000	0.004485
2167.000000	0.004564
2166.000000	0.004676
2165.000000	0.004763
2164.000000	0.004753
2163.000000	0.004634
2162.000000	0.004458
2161.000000	0.004254
2160.000000	0.003986
2159.000000	0.003627
2158.000000	0.003242
2157.000000	0.002929
2156.000000	0.002730
2155.000000	0.002646
2154.000000	0.002701
2153.000000	0.002897
2152.000000	0.003152
2151.000000	0.003353
2150.000000	0.003460
2149.000000	0.003507
2148.000000	0.003522
2147.000000	0.003500
2146.000000	0.003472
2145.000000	0.003518
2144.000000	0.003687
2143.000000	0.003930
2142.000000	0.004137
2141.000000	0.004228
2140.000000	0.004212
2139.000000	0.004155
2138.000000	0.004114
2137.000000	0.004082
2136.000000	0.004031
2135.000000	0.003974
2134.000000	0.003978
2133.000000	0.004068
2132.000000	0.004175
2131.000000	0.004216
2130.000000	0.004190
2129.000000	0.004164
2128.000000	0.004184
2127.000000	0.004240
2126.000000	0.004302
2125.000000	0.004359
2124.000000	0.004402
2123.000000	0.004419
2122.000000	0.004422
2121.000000	0.004443
2120.000000	0.004491
2119.000000	0.004541
2118.000000	0.004582
2117.000000	0.004643
2116.000000	0.004758
2115.000000	0.004907
2114.000000	0.005017
2113.000000	0.005029
2112.000000	0.004942
2111.000000	0.004821
2110.000000	0.004744
2109.000000	0.004746
2108.000000	0.004800
2107.000000	0.004846
2106.000000	0.004851
2105.000000	0.004829
2104.000000	0.004812
2103.000000	0.004820
2102.000000	0.004848
2101.000000	0.004866
2100.000000	0.004835
2099.000000	0.004751
2098.000000	0.004658
2097.000000	0.004605
2096.000000	0.004597
2095.000000	0.004602
2094.000000	0.004600
2093.000000	0.004600
2092.000000	0.004599
2091.000000	0.004584
2090.000000	0.004557
2089.000000	0.004540
2088.000000	0.004544
2087.000000	0.004552
2086.000000	0.004547
2085.000000	0.004525
2084.000000	0.004488
2083.000000	0.004438
2082.000000	0.004400
2081.000000	0.004414
2080.000000	0.004482
2079.000000	0.004558
2078.000000	0.004593
2077.000000	0.004585
2076.000000	0.004566
2075.000000	0.004558
2074.000000	0.004566
2073.000000	0.004575
2072.000000	0.004566
2071.000000	0.004534
2070.000000	0.004498
2069.000000	0.004478
2068.000000	0.004468
2067.000000	0.004456
2066.000000	0.004457
2065.000000	0.004477
2064.000000	0.004473
2063.000000	0.004393
2062.000000	0.004272
2061.000000	0.004219
2060.000000	0.004295
2059.000000	0.004450
2058.000000	0.004587
2057.000000	0.004646
2056.000000	0.004622
2055.000000	0.004557
2054.000000	0.004531
2053.000000	0.004593
2052.000000	0.004684
2051.000000	0.004680
2050.000000	0.004537
2049.000000	0.004361
2048.000000	0.004275
2047.000000	0.004261
2046.000000	0.004210
2045.000000	0.004087
2044.000000	0.003955
2043.000000	0.003865
2042.000000	0.003813
2041.000000	0.003769
2040.000000	0.003726
2039.000000	0.003697
2038.000000	0.003705
2037.000000	0.003750
2036.000000	0.003778
2035.000000	0.003699
2034.000000	0.003485
2033.000000	0.003208
2032.000000	0.002969
2031.000000	0.002832
2030.000000	0.002846
2029.000000	0.003038
2028.000000	0.003338
2027.000000	0.003580
2026.000000	0.003649
2025.000000	0.003584
2024.000000	0.003501
2023.000000	0.003457
2022.000000	0.003422
2021.000000	0.003350
2020.000000	0.003232
2019.000000	0.003105
2018.000000	0.003026
2017.000000	0.003016
2016.000000	0.003025
2015.000000	0.002983
2014.000000	0.002895
2013.000000	0.002843
2012.000000	0.002901
2011.000000	0.003067
2010.000000	0.003279
2009.000000	0.003446
2008.000000	0.003490
2007.000000	0.003421
2006.000000	0.003358
2005.000000	0.003414
2004.000000	0.003554
2003.000000	0.003650
2002.000000	0.003639
2001.000000	0.003579
2000.000000	0.003562
1999.000000	0.003619
1998.000000	0.003713
1997.000000	0.003776
1996.000000	0.003751
1995.000000	0.003659
1994.000000	0.003619
1993.000000	0.003723
1992.000000	0.003913
1991.000000	0.004028
1990.000000	0.003988
1989.000000	0.003851
1988.000000	0.003696
1987.000000	0.003557
1986.000000	0.003465
1985.000000	0.003470
1984.000000	0.003591
1983.000000	0.003796
1982.000000	0.004034
1981.000000	0.004222
1980.000000	0.004222
1979.000000	0.003937
1978.000000	0.003471
1977.000000	0.003074
1976.000000	0.002875
1975.000000	0.002797
1974.000000	0.002763
1973.000000	0.002809
1972.000000	0.002951
1971.000000	0.003108
1970.000000	0.003216
1969.000000	0.003300
1968.000000	0.003393
1967.000000	0.003470
1966.000000	0.003519
1965.000000	0.003577
1964.000000	0.003633
1963.000000	0.003600
1962.000000	0.003408
1961.000000	0.003102
1960.000000	0.002800
1959.000000	0.002617
1958.000000	0.002631
1957.000000	0.002845
1956.000000	0.003148
1955.000000	0.003383
1954.000000	0.003483
1953.000000	0.003500
1952.000000	0.003494
1951.000000	0.003472
1950.000000	0.003448
1949.000000	0.003471
1948.000000	0.003536
1947.000000	0.003558
1946.000000	0.003477
1945.000000	0.003360
1944.000000	0.003330
1943.000000	0.003413
1942.000000	0.003519
1941.000000	0.003560
1940.000000	0.003531
1939.000000	0.003488
1938.000000	0.003479
1937.000000	0.003511
1936.000000	0.003551
1935.000000	0.003571
1934.000000	0.003585
1933.000000	0.003626
1932.000000	0.003688
1931.000000	0.003736
1930.000000	0.003750
1929.000000	0.003750
1928.000000	0.003755
1927.000000	0.003754
1926.000000	0.003734
1925.000000	0.003703
1924.000000	0.003679
1923.000000	0.003658
1922.000000	0.003634
1921.000000	0.003610
1920.000000	0.003588
1919.000000	0.003576
1918.000000	0.003600
1917.000000	0.003681
1916.000000	0.003789
1915.000000	0.003860
1914.000000	0.003862
1913.000000	0.003816
1912.000000	0.003765
1911.000000	0.003740
1910.000000	0.003747
1909.000000	0.003767
1908.000000	0.003760
1907.000000	0.003696
1906.000000	0.003603
1905.000000	0.003548
1904.000000	0.003565
1903.000000	0.003616
1902.000000	0.003646
1901.000000	0.003636
1900.000000	0.003602
1899.000000	0.003553
1898.000000	0.003502
1897.000000	0.003475
1896.000000	0.003489
1895.000000	0.003524
1894.000000	0.003542
1893.000000	0.003529
1892.000000	0.003506
1891.000000	0.003495
1890.000000	0.003509
1889.000000	0.003543
1888.000000	0.003578
1887.000000	0.003585
1886.000000	0.003556
1885.000000	0.003509
1884.000000	0.003466
1883.000000	0.003437
1882.000000	0.003419
1881.000000	0.003407
1880.000000	0.003391
1879.000000	0.003364
1878.000000	0.003344
1877.000000	0.003359
1876.000000	0.003411
1875.000000	0.003476
1874.000000	0.003519
1873.000000	0.003521
1872.000000	0.003489
1871.000000	0.003448
1870.000000	0.003427
1869.000000	0.003437
1868.000000	0.003458
1867.000000	0.003460
1866.000000	0.003437
1865.000000	0.003405
1864.000000	0.003371
1863.000000	0.003327
1862.000000	0.003280
1861.000000	0.003248
1860.000000	0.003246
1859.000000	0.003267
1858.000000	0.003303
1857.000000	0.003342
1856.000000	0.003362
1855.000000	0.003350
1854.000000	0.003317
1853.000000	0.003291
1852.000000	0.003280
1851.000000	0.003265
1850.000000	0.003246
1849.000000	0.003225
1848.000000	0.003185
1847.000000	0.003114
1846.000000	0.003045
1845.000000	0.003034
1844.000000	0.003075
1843.000000	0.003096
1842.000000	0.003067
1841.000000	0.003038
1840.000000	0.003049
1839.000000	0.003081
1838.000000	0.003104
1837.000000	0.003120
1836.000000	0.003142
1835.000000	0.003153
1834.000000	0.003129
1833.000000	0.003071
1832.000000	0.003011
1831.000000	0.002979
1830.000000	0.002984
1829.000000	0.003004
1828.000000	0.003007
1827.000000	0.002995
1826.000000	0.003003
1825.000000	0.003050
1824.000000	0.003102
1823.000000	0.003123
1822.000000	0.003121
1821.000000	0.003123
1820.000000	0.003127
1819.000000	0.003110
1818.000000	0.003068
1817.000000	0.003027
1816.000000	0.003005
1815.000000	0.002997
1814.000000	0.002996
1813.000000	0.003006
1812.000000	0.003023
1811.000000	0.003032
1810.000000	0.003026
1809.000000	0.003018
1808.000000	0.003018
1807.000000	0.003033
1806.000000	0.003072
1805.000000	0.003153
1804.000000	0.003269
1803.000000	0.003383
1802.000000	0.003467
1801.000000	0.003525
1800.000000	0.003572
1799.000000	0.003620
1798.000000	0.003670
1797.000000	0.003716
1796.000000	0.003744
1795.000000	0.003735
1794.000000	0.003701
1793.000000	0.003669
1792.000000	0.003636
1791.000000	0.003566
1790.000000	0.003453
1789.000000	0.003341
1788.000000	0.003269
1787.000000	0.003234
1786.000000	0.003218
1785.000000	0.003207
1784.000000	0.003197
1783.000000	0.003177
1782.000000	0.003153
1781.000000	0.003146
1780.000000	0.003142
1779.000000	0.003125
1778.000000	0.003098
1777.000000	0.003088
1776.000000	0.003085
1775.000000	0.003049
1774.000000	0.002979
1773.000000	0.002926
1772.000000	0.002928
1771.000000	0.002963
1770.000000	0.003006
1769.000000	0.003069
1768.000000	0.003159
1767.000000	0.003238
1766.000000	0.003269
1765.000000	0.003276
1764.000000	0.003316
1763.000000	0.003407
1762.000000	0.003527
1761.000000	0.003643
1760.000000	0.003745
1759.000000	0.003859
1758.000000	0.004024
1757.000000	0.004267
1756.000000	0.004540
1755.000000	0.004775
1754.000000	0.004982
1753.000000	0.005235
1752.000000	0.005580
1751.000000	0.005975
1750.000000	0.006347
1749.000000	0.006691
1748.000000	0.007047
1747.000000	0.007404
1746.000000	0.007744
1745.000000	0.008069
1744.000000	0.008367
1743.000000	0.008606
1742.000000	0.008770
1741.000000	0.008891
1740.000000	0.009001
1739.000000	0.009076
1738.000000	0.009085
1737.000000	0.009047
1736.000000	0.008995
1735.000000	0.008900
1734.000000	0.008717
1733.000000	0.008489
1732.000000	0.008281
1731.000000	0.008122
1730.000000	0.007984
1729.000000	0.007828
1728.000000	0.007636
1727.000000	0.007413
1726.000000	0.007192
1725.000000	0.006995
1724.000000	0.006813
1723.000000	0.006627
1722.000000	0.006431
1721.000000	0.006247
1720.000000	0.006095
1719.000000	0.005965
1718.000000	0.005852
1717.000000	0.005779
1716.000000	0.005768
1715.000000	0.005799
1714.000000	0.005845
1713.000000	0.005892
1712.000000	0.005932
1711.000000	0.005963
1710.000000	0.005999
1709.000000	0.006060
1708.000000	0.006143
1707.000000	0.006243
1706.000000	0.006382
1705.000000	0.006565
1704.000000	0.006727
1703.000000	0.006873
1702.000000	0.006983
1701.000000	0.007114
1700.000000	0.007317
1699.000000	0.007540
1698.000000	0.007741
1697.000000	0.007955
1696.000000	0.008238
1695.000000	0.008526
1694.000000	0.008716
1693.000000	0.008948
1692.000000	0.009180
1691.000000	0.009453
1690.000000	0.009718
1689.000000	0.009938
1688.000000	0.010066
1687.000000	0.010097
1686.000000	0.010139
1685.000000	0.010373
1684.000000	0.010841
1683.000000	0.011298
1682.000000	0.011600
1681.000000	0.011861
1680.000000	0.012154
1679.000000	0.012422
1678.000000	0.012637
1677.000000	0.012884
1676.000000	0.013262
1675.000000	0.013720
1674.000000	0.014086
1673.000000	0.014327
1672.000000	0.014560
1671.000000	0.014888
1670.000000	0.015324
1669.000000	0.015814
1668.000000	0.016253
1667.000000	0.016574
1666.000000	0.016816
1665.000000	0.017077
1664.000000	0.017430
1663.000000	0.017854
1662.000000	0.018250
1661.000000	0.018571
1660.000000	0.018839
1659.000000	0.019087
1658.000000	0.019309
1657.000000	0.019471
1656.000000	0.019547
1655.000000	0.019571
1654.000000	0.019679
1653.000000	0.019992
1652.000000	0.020318
1651.000000	0.020420
1650.000000	0.020438
1649.000000	0.020525
1648.000000	0.020663
1647.000000	0.020804
1646.000000	0.020898
1645.000000	0.020939
1644.000000	0.020949
1643.000000	0.020957
1642.000000	0.020965
1641.000000	0.020965
1640.000000	0.020939
1639.000000	0.020868
1638.000000	0.020760
1637.000000	0.020667
1636.000000	0.020645
1635.000000	0.020683
1634.000000	0.020701
1633.000000	0.020659
1632.000000	0.020594
1631.000000	0.020504
1630.000000	0.020372
1629.000000	0.020210
1628.000000	0.020038
1627.000000	0.019855
1626.000000	0.019657
1625.000000	0.019462
1624.000000	0.019276
1623.000000	0.019072
1622.000000	0.018826
1621.000000	0.018541
1620.000000	0.018225
1619.000000	0.017880
1618.000000	0.017502
1617.000000	0.017117
1616.000000	0.016774
1615.000000	0.016492
1614.000000	0.016262
1613.000000	0.016064
1612.000000	0.015868
1611.000000	0.015648
1610.000000	0.015409
1609.000000	0.015176
1608.000000	0.014963
1607.000000	0.014767
1606.000000	0.014592
1605.000000	0.014443
1604.000000	0.014311
1603.000000	0.014188
1602.000000	0.014079
1601.000000	0.013986
1600.000000	0.013902
1599.000000	0.013823
1598.000000	0.013756
1597.000000	0.013701
1596.000000	0.013646
1595.000000	0.013586
1594.000000	0.013535
1593.000000	0.013503
1592.000000	0.013482
1591.000000	0.013461
1590.000000	0.013442
1589.000000	0.013437
1588.000000	0.013449
1587.000000	0.013478
1586.000000	0.013531
1585.000000	0.013618
1584.000000	0.013732
1583.000000	0.013870
1582.000000	0.014039
1581.000000	0.014218
1580.000000	0.014353
1579.000000	0.014413
1578.000000	0.014441
1577.000000	0.014522
1576.000000	0.014694
1575.000000	0.014879
1574.000000	0.014989
1573.000000	0.015035
1572.000000	0.015060
1571.000000	0.015117
1570.000000	0.015247
1569.000000	0.015426
1568.000000	0.015570
1567.000000	0.015660
1566.000000	0.015771
1565.000000	0.015947
1564.000000	0.016138
1563.000000	0.016250
1562.000000	0.016276
1561.000000	0.016320
1560.000000	0.016558
1559.000000	0.017039
1558.000000	0.017536
1557.000000	0.017843
1556.000000	0.018031
1555.000000	0.018259
1554.000000	0.018535
1553.000000	0.018793
1552.000000	0.019004
1551.000000	0.019213
1550.000000	0.019432
1549.000000	0.019620
1548.000000	0.019750
1547.000000	0.019859
1546.000000	0.020014
1545.000000	0.020209
1544.000000	0.020362
1543.000000	0.020416
1542.000000	0.020409
1541.000000	0.020418
1540.000000	0.020474
1539.000000	0.020524
1538.000000	0.020497
1537.000000	0.020400
1536.000000	0.020299
1535.000000	0.020192
1534.000000	0.020072
1533.000000	0.019950
1532.000000	0.019814
1531.000000	0.019656
1530.000000	0.019501
1529.000000	0.019385
1528.000000	0.019309
1527.000000	0.019234
1526.000000	0.019131
1525.000000	0.019004
1524.000000	0.018863
1523.000000	0.018725
1522.000000	0.018629
1521.000000	0.018613
1520.000000	0.018640
1519.000000	0.018663
1518.000000	0.018715
1517.000000	0.018819
1516.000000	0.018911
1515.000000	0.018918
1514.000000	0.018868
1513.000000	0.018846
1512.000000	0.018872
1511.000000	0.018888
1510.000000	0.018844
1509.000000	0.018755
1508.000000	0.018630
1507.000000	0.018469
1506.000000	0.018389
1505.000000	0.018448
1504.000000	0.018545
1503.000000	0.018659
1502.000000	0.018777
1501.000000	0.018880
1500.000000	0.018966
1499.000000	0.019026
1498.000000	0.019073
1497.000000	0.019151
1496.000000	0.019279
1495.000000	0.019424
1494.000000	0.019568
1493.000000	0.019749
1492.000000	0.019976
1491.000000	0.020206
1490.000000	0.020392
1489.000000	0.020560
1488.000000	0.020754
1487.000000	0.020971
1486.000000	0.021195
1485.000000	0.021443
1484.000000	0.021714
1483.000000	0.021997
1482.000000	0.022309
1481.000000	0.022672
1480.000000	0.023073
1479.000000	0.023488
1478.000000	0.023927
1477.000000	0.024398
1476.000000	0.024859
1475.000000	0.025268
1474.000000	0.025677
1473.000000	0.026191
1472.000000	0.026788
1471.000000	0.027343
1470.000000	0.027811
1469.000000	0.028248
1468.000000	0.028681
1467.000000	0.029091
1466.000000	0.029472
1465.000000	0.029835
1464.000000	0.030163
1463.000000	0.030436
1462.000000	0.030690
1461.000000	0.030974
1460.000000	0.031283
1459.000000	0.031592
1458.000000	0.031933
1457.000000	0.032361
1456.000000	0.032797
1455.000000	0.033132
1454.000000	0.033434
1453.000000	0.033791
1452.000000	0.034163
1451.000000	0.034492
1450.000000	0.034784
1449.000000	0.035084
1448.000000	0.035389
1447.000000	0.035652
1446.000000	0.035880
1445.000000	0.036110
1444.000000	0.036340
1443.000000	0.036555
1442.000000	0.036768
1441.000000	0.037001
1440.000000	0.037244
1439.000000	0.037490
1438.000000	0.037761
1437.000000	0.038057
1436.000000	0.038303
1435.000000	0.038444
1434.000000	0.038546
1433.000000	0.038678
1432.000000	0.038825
1431.000000	0.038941
1430.000000	0.039035
1429.000000	0.039145
1428.000000	0.039272
1427.000000	0.039394
1426.000000	0.039517
1425.000000	0.039644
1424.000000	0.039730
1423.000000	0.039757
1422.000000	0.039779
1421.000000	0.039835
1420.000000	0.039872
1419.000000	0.039799
1418.000000	0.039634
1417.000000	0.039455
1416.000000	0.039267
1415.000000	0.039043
1414.000000	0.038789
1413.000000	0.038516
1412.000000	0.038201
1411.000000	0.037830
1410.000000	0.037438
1409.000000	0.037048
1408.000000	0.036641
1407.000000	0.036188
1406.000000	0.035700
1405.000000	0.035214
1404.000000	0.034760
1403.000000	0.034374
1402.000000	0.034075
1401.000000	0.033834
1400.000000	0.033577
1399.000000	0.033259
1398.000000	0.032908
1397.000000	0.032551
1396.000000	0.032155
1395.000000	0.031706
1394.000000	0.031282
1393.000000	0.030957
1392.000000	0.030716
1391.000000	0.030509
1390.000000	0.030303
1389.000000	0.030058
1388.000000	0.029732
1387.000000	0.029327
1386.000000	0.028910
1385.000000	0.028535
1384.000000	0.028190
1383.000000	0.027852
1382.000000	0.027528
1381.000000	0.027224
1380.000000	0.026930
1379.000000	0.026624
1378.000000	0.026303
1377.000000	0.025970
1376.000000	0.025614
1375.000000	0.025222
1374.000000	0.024808
1373.000000	0.024406
1372.000000	0.024033
1371.000000	0.023692
1370.000000	0.023382
1369.000000	0.023086
1368.000000	0.022779
1367.000000	0.022464
1366.000000	0.022165
1365.000000	0.021884
1364.000000	0.021593
1363.000000	0.021272
1362.000000	0.020941
1361.000000	0.020630
1360.000000	0.020346
1359.000000	0.020090
1358.000000	0.019868
1357.000000	0.019671
1356.000000	0.019478
1355.000000	0.019285
1354.000000	0.019101
1353.000000	0.018934
1352.000000	0.018788
1351.000000	0.018669
1350.000000	0.018582
1349.000000	0.018521
1348.000000	0.018476
1347.000000	0.018458
1346.000000	0.018481
1345.000000	0.018529
1344.000000	0.018564
1343.000000	0.018571
1342.000000	0.018566
1341.000000	0.018567
1340.000000	0.018570
1339.000000	0.018576
1338.000000	0.018599
1337.000000	0.018636
1336.000000	0.018659
1335.000000	0.018641
1334.000000	0.018574
1333.000000	0.018471
1332.000000	0.018347
1331.000000	0.018212
1330.000000	0.018073
1329.000000	0.017924
1328.000000	0.017764
1327.000000	0.017602
1326.000000	0.017458
1325.000000	0.017338
1324.000000	0.017232
1323.000000	0.017126
1322.000000	0.017016
1321.000000	0.016900
1320.000000	0.016778
1319.000000	0.016655
1318.000000	0.016538
1317.000000	0.016420
1316.000000	0.016291
1315.000000	0.016147
1314.000000	0.015993
1313.000000	0.015832
1312.000000	0.015665
1311.000000	0.015495
1310.000000	0.015325
1309.000000	0.015151
1308.000000	0.014969
1307.000000	0.014787
1306.000000	0.014622
1305.000000	0.014475
1304.000000	0.014336
1303.000000	0.014200
1302.000000	0.014068
1301.000000	0.013943
1300.000000	0.013823
1299.000000	0.013708
1298.000000	0.013602
1297.000000	0.013501
1296.000000	0.013401
1295.000000	0.013308
1294.000000	0.013236
1293.000000	0.013186
1292.000000	0.013147
1291.000000	0.013108
1290.000000	0.013067
1289.000000	0.013019
1288.000000	0.012965
1287.000000	0.012913
1286.000000	0.012878
1285.000000	0.012857
1284.000000	0.012838
1283.000000	0.012816
1282.000000	0.012799
1281.000000	0.012791
1280.000000	0.012791
1279.000000	0.012793
1278.000000	0.012803
1277.000000	0.012826
1276.000000	0.012865
1275.000000	0.012917
1274.000000	0.012981
1273.000000	0.013057
1272.000000	0.013153
1271.000000	0.013274
1270.000000	0.013419
1269.000000	0.013583
1268.000000	0.013762
1267.000000	0.013951
1266.000000	0.014138
1265.000000	0.014305
1264.000000	0.014448
1263.000000	0.014582
1262.000000	0.014721
1261.000000	0.014862
1260.000000	0.014993
1259.000000	0.015107
1258.000000	0.015209
1257.000000	0.015306
1256.000000	0.015395
1255.000000	0.015461
1254.000000	0.015493
1253.000000	0.015492
1252.000000	0.015485
1251.000000	0.015503
1250.000000	0.015564
1249.000000	0.015655
1248.000000	0.015757
1247.000000	0.015864
1246.000000	0.015976
1245.000000	0.016079
1244.000000	0.016151
1243.000000	0.016192
1242.000000	0.016235
1241.000000	0.016312
1240.000000	0.016413
1239.000000	0.016495
1238.000000	0.016516
1237.000000	0.016473
1236.000000	0.016387
1235.000000	0.016283
1234.000000	0.016170
1233.000000	0.016045
1232.000000	0.015906
1231.000000	0.015755
1230.000000	0.015594
1229.000000	0.015423
1228.000000	0.015245
1227.000000	0.015064
1226.000000	0.014873
1225.000000	0.014664
1224.000000	0.014430
1223.000000	0.014178
1222.000000	0.013917
1221.000000	0.013654
1220.000000	0.013403
1219.000000	0.013185
1218.000000	0.013011
1217.000000	0.012871
1216.000000	0.012748
1215.000000	0.012643
1214.000000	0.012570
1213.000000	0.012533
1212.000000	0.012521
1211.000000	0.012524
1210.000000	0.012548
1209.000000	0.012597
1208.000000	0.012664
1207.000000	0.012738
1206.000000	0.012810
1205.000000	0.012877
1204.000000	0.012939
1203.000000	0.012997
1202.000000	0.013044
1201.000000	0.013070
1200.000000	0.013065
1199.000000	0.013032
1198.000000	0.012983
1197.000000	0.012934
1196.000000	0.012897
1195.000000	0.012875
1194.000000	0.012863
1193.000000	0.012854
1192.000000	0.012842
1191.000000	0.012833
1190.000000	0.012837
1189.000000	0.012864
1188.000000	0.012919
1187.000000	0.013001
1186.000000	0.013100
1185.000000	0.013206
1184.000000	0.013319
1183.000000	0.013451
1182.000000	0.013607
1181.000000	0.013777
1180.000000	0.013951
1179.000000	0.014133
1178.000000	0.014338
1177.000000	0.014570
1176.000000	0.014820
1175.000000	0.015069
1174.000000	0.015306
1173.000000	0.015530
1172.000000	0.015746
1171.000000	0.015959
1170.000000	0.016172
1169.000000	0.016390
1168.000000	0.016621
1167.000000	0.016860
1166.000000	0.017090
1165.000000	0.017284
1164.000000	0.017432
1163.000000	0.017541
1162.000000	0.017632
1161.000000	0.017716
1160.000000	0.017792
1159.000000	0.017853
1158.000000	0.017891
1157.000000	0.017896
1156.000000	0.017863
1155.000000	0.017801
1154.000000	0.017726
1153.000000	0.017644
1152.000000	0.017551
1151.000000	0.017446
1150.000000	0.017339
1149.000000	0.017229
1148.000000	0.017101
1147.000000	0.016943
1146.000000	0.016766
1145.000000	0.016591
1144.000000	0.016429
1143.000000	0.016278
1142.000000	0.016138
1141.000000	0.016009
1140.000000	0.015891
1139.000000	0.015787
1138.000000	0.015695
1137.000000	0.015611
1136.000000	0.015532
1135.000000	0.015468
1134.000000	0.015435
1133.000000	0.015441
1132.000000	0.015479
1131.000000	0.015538
1130.000000	0.015621
1129.000000	0.015731
1128.000000	0.015860
1127.000000	0.015989
1126.000000	0.016105
1125.000000	0.016216
1124.000000	0.016338
1123.000000	0.016474
1122.000000	0.016616
1121.000000	0.016757
1120.000000	0.016896
1119.000000	0.017039
1118.000000	0.017186
1117.000000	0.017338
1116.000000	0.017497
1115.000000	0.017664
1114.000000	0.017839
1113.000000	0.018019
1112.000000	0.018200
1111.000000	0.018377
1110.000000	0.018543
1109.000000	0.018694
1108.000000	0.018823
1107.000000	0.018921
1106.000000	0.018985
1105.000000	0.019021
1104.000000	0.019043
1103.000000	0.019064
1102.000000	0.019088
1101.000000	0.019117
1100.000000	0.019150
1099.000000	0.019184
1098.000000	0.019209
1097.000000	0.019211
1096.000000	0.019188
1095.000000	0.019147
1094.000000	0.019097
1093.000000	0.019027
1092.000000	0.018925
1091.000000	0.018791
1090.000000	0.018647
1089.000000	0.018511
1088.000000	0.018382
1087.000000	0.018250
1086.000000	0.018108
1085.000000	0.017952
1084.000000	0.017783
1083.000000	0.017602
1082.000000	0.017415
1081.000000	0.017230
1080.000000	0.017046
1079.000000	0.016863
1078.000000	0.016684
1077.000000	0.016513
1076.000000	0.016357
1075.000000	0.016220
1074.000000	0.016103
1073.000000	0.016011
1072.000000	0.015949
1071.000000	0.015910
1070.000000	0.015868
1069.000000	0.015790
1068.000000	0.015682
1067.000000	0.015602
1066.000000	0.015619
1065.000000	0.015753
1064.000000	0.015968
1063.000000	0.016199
1062.000000	0.016387
1061.000000	0.016486
1060.000000	0.016486
1059.000000	0.016434
1058.000000	0.016417
1057.000000	0.016496
1056.000000	0.016649
1055.000000	0.016806
1054.000000	0.016922
1053.000000	0.017010
1052.000000	0.017103
1051.000000	0.017217
1050.000000	0.017342
1049.000000	0.017465
1048.000000	0.017583
1047.000000	0.017702
1046.000000	0.017821
1045.000000	0.017936
1044.000000	0.018046
1043.000000	0.018164
1042.000000	0.018315
1041.000000	0.018516
1040.000000	0.018753
1039.000000	0.019004
1038.000000	0.019268
1037.000000	0.019562
1036.000000	0.019894
1035.000000	0.020232
1034.000000	0.020528
1033.000000	0.020752
1032.000000	0.020898
1031.000000	0.020964
1030.000000	0.020950
1029.000000	0.020879
1028.000000	0.020800
1027.000000	0.020760
1026.000000	0.020760
1025.000000	0.020754
1024.000000	0.020704
1023.000000	0.020613
1022.000000	0.020517
1021.000000	0.020436
1020.000000	0.020362
1019.000000	0.020279
1018.000000	0.020195
1017.000000	0.020124
1016.000000	0.020070
1015.000000	0.020023
1014.000000	0.019978
1013.000000	0.019930
1012.000000	0.019867
1011.000000	0.019779
1010.000000	0.019665
1009.000000	0.019532
1008.000000	0.019384
1007.000000	0.019221
1006.000000	0.019047
1005.000000	0.018872
1004.000000	0.018700
1003.000000	0.018516
1002.000000	0.018305
1001.000000	0.018066
1000.000000	0.017817
999.000000	0.017582
998.000000	0.017367
997.000000	0.017159
996.000000	0.016942
995.000000	0.016712
994.000000	0.016480
993.000000	0.016259
992.000000	0.016048
991.000000	0.015837
990.000000	0.015620
989.000000	0.015398
988.000000	0.015178
987.000000	0.014974
986.000000	0.014798
985.000000	0.014648
984.000000	0.014509
983.000000	0.014359
982.000000	0.014191
981.000000	0.014022
980.000000	0.013873
979.000000	0.013751
978.000000	0.013645
977.000000	0.013544
976.000000	0.013442
975.000000	0.013333
974.000000	0.013214
973.000000	0.013085
972.000000	0.012952
971.000000	0.012816
970.000000	0.012667
969.000000	0.012498
968.000000	0.012309
967.000000	0.012114
966.000000	0.011921
965.000000	0.011731
964.000000	0.011549
963.000000	0.011385
962.000000	0.011245
961.000000	0.011127
960.000000	0.011010
959.000000	0.010866
958.000000	0.010681
957.000000	0.010468
956.000000	0.010262
955.000000	0.010091
954.000000	0.009941
953.000000	0.009779
952.000000	0.009587
951.000000	0.009377
950.000000	0.009172
949.000000	0.008978
948.000000	0.008793
947.000000	0.008614
946.000000	0.008440
945.000000	0.008273
944.000000	0.008126
943.000000	0.008011
942.000000	0.007918
941.000000	0.007820
940.000000	0.007701
939.000000	0.007570
938.000000	0.007452
937.000000	0.007354
936.000000	0.007265
935.000000	0.007164
934.000000	0.007039
933.000000	0.006890
932.000000	0.006734
931.000000	0.006590
930.000000	0.006465
929.000000	0.006350
928.000000	0.006241
927.000000	0.006137
926.000000	0.006034
925.000000	0.005921
924.000000	0.005801
923.000000	0.005694
922.000000	0.005617
921.000000	0.005566
920.000000	0.005526
919.000000	0.005483
918.000000	0.005429
917.000000	0.005360
916.000000	0.005282
915.000000	0.005203
914.000000	0.005120
913.000000	0.005018
912.000000	0.004883
911.000000	0.004721
910.000000	0.004553
909.000000	0.004400
908.000000	0.004273
907.000000	0.004172
906.000000	0.004077
905.000000	0.003968
904.000000	0.003839
903.000000	0.003701
902.000000	0.003561
901.000000	0.003423
900.000000	0.003290
899.000000	0.003177
898.000000	0.003091
897.000000	0.003033
896.000000	0.003001
895.000000	0.002991
894.000000	0.002988
893.000000	0.002974
892.000000	0.002944
891.000000	0.002918
890.000000	0.002925
889.000000	0.003008
888.000000	0.003231
887.000000	0.003659
886.000000	0.004323
885.000000	0.005212
884.000000	0.006295
883.000000	0.007559
882.000000	0.009033
881.000000	0.010781
880.000000	0.012850
879.000000	0.015179
878.000000	0.017549
877.000000	0.019658
876.000000	0.021233
875.000000	0.022096
874.000000	0.022134
873.000000	0.021298
872.000000	0.019649
871.000000	0.017425
870.000000	0.014995
869.000000	0.012713
868.000000	0.010803
867.000000	0.009329
866.000000	0.008230
865.000000	0.007389
864.000000	0.006701
863.000000	0.006113
862.000000	0.005614
861.000000	0.005204
860.000000	0.004877
859.000000	0.004621
858.000000	0.004408
857.000000	0.004206
856.000000	0.004010
855.000000	0.003844
854.000000	0.003730
853.000000	0.003660
852.000000	0.003622
851.000000	0.003633
850.000000	0.003716
849.000000	0.003846
848.000000	0.003943
847.000000	0.003929
846.000000	0.003797
845.000000	0.003607
844.000000	0.003431
843.000000	0.003305
842.000000	0.003231
841.000000	0.003200
840.000000	0.003197
839.000000	0.003201
838.000000	0.003183
837.000000	0.003137
836.000000	0.003087
835.000000	0.003066
834.000000	0.003075
833.000000	0.003091
832.000000	0.003099
831.000000	0.003101
830.000000	0.003094
829.000000	0.003063
828.000000	0.003008
827.000000	0.002958
826.000000	0.002944
825.000000	0.002970
824.000000	0.003013
823.000000	0.003041
822.000000	0.003035
821.000000	0.002999
820.000000	0.002955
819.000000	0.002929
818.000000	0.002928
817.000000	0.002943
816.000000	0.002966
815.000000	0.002997
814.000000	0.003030
813.000000	0.003052
812.000000	0.003058
811.000000	0.003058
810.000000	0.003064
809.000000	0.003078
808.000000	0.003103
807.000000	0.003143
806.000000	0.003200
805.000000	0.003266
804.000000	0.003339
803.000000	0.003424
802.000000	0.003517
801.000000	0.003605
800.000000	0.003671
799.000000	0.003705
798.000000	0.003697
797.000000	0.003653
796.000000	0.003605
795.000000	0.003585
794.000000	0.003591
793.000000	0.003591
792.000000	0.003558
791.000000	0.003499
790.000000	0.003444
789.000000	0.003424
788.000000	0.003458
787.000000	0.003534
786.000000	0.003604
785.000000	0.003619
784.000000	0.003576
783.000000	0.003521
782.000000	0.003498
781.000000	0.003508
780.000000	0.003525
779.000000	0.003533
778.000000	0.003540
777.000000	0.003553
776.000000	0.003563
775.000000	0.003544
774.000000	0.003472
773.000000	0.003352
772.000000	0.003231
771.000000	0.003154
770.000000	0.003136
769.000000	0.003155
768.000000	0.003180
767.000000	0.003196
766.000000	0.003196
765.000000	0.003176
764.000000	0.003147
763.000000	0.003128
762.000000	0.003128
761.000000	0.003148
760.000000	0.003184
759.000000	0.003228
758.000000	0.003259
757.000000	0.003264
756.000000	0.003249
755.000000	0.003225
754.000000	0.003194
753.000000	0.003162
752.000000	0.003154
751.000000	0.003184
750.000000	0.003229
749.000000	0.003249
748.000000	0.003245
747.000000	0.003245
746.000000	0.003252
745.000000	0.003233
744.000000	0.003176
743.000000	0.003110
742.000000	0.003064
741.000000	0.003032
740.000000	0.003003
739.000000	0.002978
738.000000	0.002955
737.000000	0.002925
736.000000	0.002904
735.000000	0.002930
734.000000	0.003014
733.000000	0.003115
732.000000	0.003190
731.000000	0.003232
730.000000	0.003254
729.000000	0.003269
728.000000	0.003295
727.000000	0.003340
726.000000	0.003391
725.000000	0.003429
724.000000	0.003456
723.000000	0.003504
722.000000	0.003591
721.000000	0.003712
720.000000	0.003864
719.000000	0.004071
718.000000	0.004381
717.000000	0.004876
716.000000	0.005652
715.000000	0.006718
714.000000	0.007855
713.000000	0.008661
712.000000	0.008822
711.000000	0.008366
710.000000	0.007600
709.000000	0.006861
708.000000	0.006327
707.000000	0.006009
706.000000	0.005843
705.000000	0.005762
704.000000	0.005734
703.000000	0.005766
702.000000	0.005866
701.000000	0.006001
700.000000	0.006123
699.000000	0.006207
698.000000	0.006266
697.000000	0.006317
696.000000	0.006367
695.000000	0.006423
694.000000	0.006479
693.000000	0.006517
692.000000	0.006541
691.000000	0.006563
690.000000	0.006574
689.000000	0.006542
688.000000	0.006474
687.000000	0.006442
686.000000	0.006492
685.000000	0.006566
684.000000	0.006584
683.000000	0.006546
682.000000	0.006502
681.000000	0.006481
680.000000	0.006489
679.000000	0.006536
678.000000	0.006619
677.000000	0.006732
676.000000	0.006870
675.000000	0.007015
674.000000	0.007116
673.000000	0.007111
672.000000	0.006981
671.000000	0.006702
670.000000	0.006257
669.000000	0.005660
668.000000	0.005272
667.000000	0.005401
666.000000	0.005644
665.000000	0.005785
664.000000	0.005853
663.000000	0.005794
662.000000	0.005628
661.000000	0.005423
660.000000	0.005258
659.000000	0.005146
658.000000	0.005058
657.000000	0.004989
656.000000	0.004945
655.000000	0.004903
654.000000	0.004873
653.000000	0.004901
652.000000	0.004965
651.000000	0.004984
650.000000	0.004933
649.000000	0.004893
648.000000	0.004928
647.000000	0.005018
646.000000	0.005132
645.000000	0.005264
644.000000	0.005379
643.000000	0.005426
642.000000	0.005418
641.000000	0.005441
640.000000	0.005536
639.000000	0.005638
638.000000	0.005675
637.000000	0.005652
636.000000	0.005605
635.000000	0.005552
634.000000	0.005509
633.000000	0.005503
632.000000	0.005518
631.000000	0.005496
630.000000	0.005422
629.000000	0.005360
628.000000	0.005365
627.000000	0.005418
626.000000	0.005476
625.000000	0.005532
624.000000	0.005596
623.000000	0.005663
622.000000	0.005723
621.000000	0.005780
620.000000	0.005844
619.000000	0.005930
618.000000	0.006063
617.000000	0.006244
616.000000	0.006414
615.000000	0.006495
614.000000	0.006490
613.000000	0.006481
612.000000	0.006539
611.000000	0.006668
610.000000	0.006841
609.000000	0.007042
608.000000	0.007235
607.000000	0.007381
606.000000	0.007486
605.000000	0.007594
604.000000	0.007692
603.000000	0.007713
602.000000	0.007614
601.000000	0.007425
600.000000	0.007198
599.000000	0.006951
598.000000	0.006691
597.000000	0.006420
596.000000	0.006110
595.000000	0.005732
594.000000	0.005326
593.000000	0.005006
592.000000	0.004856
591.000000	0.004841
590.000000	0.004853
589.000000	0.004819
588.000000	0.004732
587.000000	0.004621
586.000000	0.004517
585.000000	0.004442
584.000000	0.004398
583.000000	0.004382
582.000000	0.004405
581.000000	0.004471
580.000000	0.004545
579.000000	0.004580
578.000000	0.004558
577.000000	0.004499
576.000000	0.004423
575.000000	0.004365
574.000000	0.004383
573.000000	0.004505
572.000000	0.004679
571.000000	0.004841
570.000000	0.005018
569.000000	0.005292
568.000000	0.005655
567.000000	0.005982
566.000000	0.006164
565.000000	0.006189
564.000000	0.006070
563.000000	0.005828
562.000000	0.005574
561.000000	0.005490
560.000000	0.005651
559.000000	0.005937
558.000000	0.006176
557.000000	0.006315
556.000000	0.006388
555.000000	0.006411
554.000000	0.006409
553.000000	0.006460
552.000000	0.006613
551.000000	0.006805
550.000000	0.006937
549.000000	0.006997
548.000000	0.007036
547.000000	0.007057
546.000000	0.007027
545.000000	0.006960
544.000000	0.006901
543.000000	0.006875
542.000000	0.006899
541.000000	0.006996
540.000000	0.007144
539.000000	0.007253
538.000000	0.007276
537.000000	0.007290
536.000000	0.007396
535.000000	0.007571
534.000000	0.007706
533.000000	0.007741
532.000000	0.007715
531.000000	0.007707
530.000000	0.007782
529.000000	0.007950
528.000000	0.008119
527.000000	0.008138
526.000000	0.007959
525.000000	0.007713
524.000000	0.007526
523.000000	0.007351
522.000000	0.007091
521.000000	0.006789
520.000000	0.006564
519.000000	0.006443
518.000000	0.006343
517.000000	0.006211
516.000000	0.006059
515.000000	0.005884
514.000000	0.005677
513.000000	0.005499
512.000000	0.005437
511.000000	0.005483
510.000000	0.005530
509.000000	0.005498
508.000000	0.005369
507.000000	0.005137
506.000000	0.004824
505.000000	0.004545
504.000000	0.004461
503.000000	0.004628
502.000000	0.004929
501.000000	0.005166
500.000000	0.005216
499.000000	0.005063
498.000000	0.004770
497.000000	0.004477
496.000000	0.004349
495.000000	0.004458
494.000000	0.004728
493.000000	0.005002
492.000000	0.005163
491.000000	0.005237
490.000000	0.005385
489.000000	0.005748
488.000000	0.006296
487.000000	0.006838
486.000000	0.007216
485.000000	0.007454
484.000000	0.007668
483.000000	0.007895
482.000000	0.008091
481.000000	0.008240
480.000000	0.008363
479.000000	0.008450
478.000000	0.008474
477.000000	0.008461
476.000000	0.008500
475.000000	0.008692
474.000000	0.009085
473.000000	0.009588
472.000000	0.009927
471.000000	0.009879
470.000000	0.009575
469.000000	0.009353
468.000000	0.009307
467.000000	0.009152
466.000000	0.008635
465.000000	0.007908
464.000000	0.007294
463.000000	0.006884
462.000000	0.006563
461.000000	0.006316
460.000000	0.006262
459.000000	0.006367
458.000000	0.006329
457.000000	0.005904
456.000000	0.005208
455.000000	0.004507
454.000000	0.003946
453.000000	0.003554
452.000000	0.003294
451.000000	0.003062
450.000000	0.002798
