PE IR       SUBTECH     SPECTRUM    ASCII       PEDS        4.00        
   -1
Peau038_1.ASC
23/06/14
15:21:47.00
23/06/14
15:24:21.00
uco
Sample 038 By uco Date Wednesday, June 14 2023
450.000000
#HDR
-1
-1
#GR
cm-1
A
1.0
0.0
4000.000000
-1.000000
3551
8
0.039761
0.002629
#DATA
4000.000000	0.003164
3999.000000	0.003169
3998.000000	0.003174
3997.000000	0.003180
3996.000000	0.003178
3995.000000	0.003168
3994.000000	0.003158
3993.000000	0.003157
3992.000000	0.003169
3991.000000	0.003195
3990.000000	0.003224
3989.000000	0.003247
3988.000000	0.003254
3987.000000	0.003246
3986.000000	0.003231
3985.000000	0.003217
3984.000000	0.003211
3983.000000	0.003213
3982.000000	0.003217
3981.000000	0.003223
3980.000000	0.003228
3979.000000	0.003234
3978.000000	0.003242
3977.000000	0.003255
3976.000000	0.003274
3975.000000	0.003294
3974.000000	0.003306
3973.000000	0.003308
3972.000000	0.003307
3971.000000	0.003310
3970.000000	0.003318
3969.000000	0.003327
3968.000000	0.003330
3967.000000	0.003328
3966.000000	0.003330
3965.000000	0.003338
3964.000000	0.003349
3963.000000	0.003355
3962.000000	0.003354
3961.000000	0.003351
3960.000000	0.003356
3959.000000	0.003371
3958.000000	0.003388
3957.000000	0.003399
3956.000000	0.003399
3955.000000	0.003395
3954.000000	0.003393
3953.000000	0.003399
3952.000000	0.003412
3951.000000	0.003431
3950.000000	0.003450
3949.000000	0.003463
3948.000000	0.003464
3947.000000	0.003454
3946.000000	0.003442
3945.000000	0.003435
3944.000000	0.003434
3943.000000	0.003433
3942.000000	0.003420
3941.000000	0.003397
3940.000000	0.003372
3939.000000	0.003357
3938.000000	0.003360
3937.000000	0.003381
3936.000000	0.003413
3935.000000	0.003448
3934.000000	0.003476
3933.000000	0.003491
3932.000000	0.003489
3931.000000	0.003474
3930.000000	0.003457
3929.000000	0.003447
3928.000000	0.003450
3927.000000	0.003463
3926.000000	0.003478
3925.000000	0.003487
3924.000000	0.003488
3923.000000	0.003486
3922.000000	0.003485
3921.000000	0.003488
3920.000000	0.003499
3919.000000	0.003515
3918.000000	0.003529
3917.000000	0.003535
3916.000000	0.003532
3915.000000	0.003522
3914.000000	0.003507
3913.000000	0.003489
3912.000000	0.003473
3911.000000	0.003463
3910.000000	0.003464
3909.000000	0.003477
3908.000000	0.003501
3907.000000	0.003532
3906.000000	0.003563
3905.000000	0.003589
3904.000000	0.003606
3903.000000	0.003615
3902.000000	0.003615
3901.000000	0.003602
3900.000000	0.003575
3899.000000	0.003542
3898.000000	0.003516
3897.000000	0.003507
3896.000000	0.003513
3895.000000	0.003528
3894.000000	0.003537
3893.000000	0.003529
3892.000000	0.003509
3891.000000	0.003501
3890.000000	0.003522
3889.000000	0.003562
3888.000000	0.003596
3887.000000	0.003608
3886.000000	0.003600
3885.000000	0.003587
3884.000000	0.003582
3883.000000	0.003577
3882.000000	0.003564
3881.000000	0.003548
3880.000000	0.003539
3879.000000	0.003541
3878.000000	0.003543
3877.000000	0.003535
3876.000000	0.003522
3875.000000	0.003516
3874.000000	0.003530
3873.000000	0.003558
3872.000000	0.003578
3871.000000	0.003577
3870.000000	0.003566
3869.000000	0.003571
3868.000000	0.003596
3867.000000	0.003619
3866.000000	0.003620
3865.000000	0.003602
3864.000000	0.003576
3863.000000	0.003554
3862.000000	0.003539
3861.000000	0.003530
3860.000000	0.003533
3859.000000	0.003547
3858.000000	0.003568
3857.000000	0.003593
3856.000000	0.003618
3855.000000	0.003635
3854.000000	0.003639
3853.000000	0.003642
3852.000000	0.003650
3851.000000	0.003645
3850.000000	0.003615
3849.000000	0.003574
3848.000000	0.003545
3847.000000	0.003533
3846.000000	0.003531
3845.000000	0.003529
3844.000000	0.003524
3843.000000	0.003521
3842.000000	0.003526
3841.000000	0.003535
3840.000000	0.003537
3839.000000	0.003526
3838.000000	0.003507
3837.000000	0.003489
3836.000000	0.003474
3835.000000	0.003458
3834.000000	0.003436
3833.000000	0.003415
3832.000000	0.003406
3831.000000	0.003417
3830.000000	0.003444
3829.000000	0.003474
3828.000000	0.003495
3827.000000	0.003507
3826.000000	0.003517
3825.000000	0.003526
3824.000000	0.003522
3823.000000	0.003491
3822.000000	0.003442
3821.000000	0.003408
3820.000000	0.003415
3819.000000	0.003441
3818.000000	0.003450
3817.000000	0.003435
3816.000000	0.003423
3815.000000	0.003439
3814.000000	0.003474
3813.000000	0.003497
3812.000000	0.003494
3811.000000	0.003474
3810.000000	0.003449
3809.000000	0.003422
3808.000000	0.003402
3807.000000	0.003407
3806.000000	0.003447
3805.000000	0.003498
3804.000000	0.003521
3803.000000	0.003495
3802.000000	0.003441
3801.000000	0.003406
3800.000000	0.003418
3799.000000	0.003457
3798.000000	0.003489
3797.000000	0.003509
3796.000000	0.003524
3795.000000	0.003536
3794.000000	0.003539
3793.000000	0.003528
3792.000000	0.003512
3791.000000	0.003506
3790.000000	0.003516
3789.000000	0.003534
3788.000000	0.003549
3787.000000	0.003552
3786.000000	0.003545
3785.000000	0.003534
3784.000000	0.003528
3783.000000	0.003530
3782.000000	0.003538
3781.000000	0.003544
3780.000000	0.003546
3779.000000	0.003547
3778.000000	0.003551
3777.000000	0.003558
3776.000000	0.003561
3775.000000	0.003554
3774.000000	0.003538
3773.000000	0.003518
3772.000000	0.003499
3771.000000	0.003489
3770.000000	0.003494
3769.000000	0.003506
3768.000000	0.003512
3767.000000	0.003504
3766.000000	0.003493
3765.000000	0.003498
3764.000000	0.003526
3763.000000	0.003561
3762.000000	0.003581
3761.000000	0.003579
3760.000000	0.003560
3759.000000	0.003537
3758.000000	0.003523
3757.000000	0.003518
3756.000000	0.003516
3755.000000	0.003507
3754.000000	0.003485
3753.000000	0.003451
3752.000000	0.003420
3751.000000	0.003412
3750.000000	0.003433
3749.000000	0.003470
3748.000000	0.003500
3747.000000	0.003509
3746.000000	0.003497
3745.000000	0.003483
3744.000000	0.003498
3743.000000	0.003539
3742.000000	0.003561
3741.000000	0.003538
3740.000000	0.003495
3739.000000	0.003476
3738.000000	0.003497
3737.000000	0.003536
3736.000000	0.003546
3735.000000	0.003492
3734.000000	0.003380
3733.000000	0.003260
3732.000000	0.003184
3731.000000	0.003183
3730.000000	0.003250
3729.000000	0.003354
3728.000000	0.003458
3727.000000	0.003537
3726.000000	0.003578
3725.000000	0.003581
3724.000000	0.003558
3723.000000	0.003523
3722.000000	0.003497
3721.000000	0.003489
3720.000000	0.003493
3719.000000	0.003496
3718.000000	0.003495
3717.000000	0.003499
3716.000000	0.003512
3715.000000	0.003526
3714.000000	0.003529
3713.000000	0.003515
3712.000000	0.003487
3711.000000	0.003449
3710.000000	0.003408
3709.000000	0.003366
3708.000000	0.003331
3707.000000	0.003304
3706.000000	0.003283
3705.000000	0.003263
3704.000000	0.003242
3703.000000	0.003225
3702.000000	0.003227
3701.000000	0.003255
3700.000000	0.003301
3699.000000	0.003345
3698.000000	0.003376
3697.000000	0.003389
3696.000000	0.003389
3695.000000	0.003378
3694.000000	0.003354
3693.000000	0.003311
3692.000000	0.003251
3691.000000	0.003175
3690.000000	0.003101
3689.000000	0.003059
3688.000000	0.003068
3687.000000	0.003117
3686.000000	0.003173
3685.000000	0.003215
3684.000000	0.003248
3683.000000	0.003285
3682.000000	0.003332
3681.000000	0.003381
3680.000000	0.003421
3679.000000	0.003440
3678.000000	0.003427
3677.000000	0.003376
3676.000000	0.003306
3675.000000	0.003262
3674.000000	0.003262
3673.000000	0.003277
3672.000000	0.003280
3671.000000	0.003278
3670.000000	0.003286
3669.000000	0.003308
3668.000000	0.003325
3667.000000	0.003322
3666.000000	0.003303
3665.000000	0.003285
3664.000000	0.003277
3663.000000	0.003281
3662.000000	0.003293
3661.000000	0.003315
3660.000000	0.003344
3659.000000	0.003379
3658.000000	0.003413
3657.000000	0.003446
3656.000000	0.003484
3655.000000	0.003529
3654.000000	0.003575
3653.000000	0.003611
3652.000000	0.003641
3651.000000	0.003676
3650.000000	0.003723
3649.000000	0.003775
3648.000000	0.003819
3647.000000	0.003846
3646.000000	0.003865
3645.000000	0.003886
3644.000000	0.003912
3643.000000	0.003938
3642.000000	0.003954
3641.000000	0.003954
3640.000000	0.003946
3639.000000	0.003947
3638.000000	0.003973
3637.000000	0.004016
3636.000000	0.004060
3635.000000	0.004092
3634.000000	0.004116
3633.000000	0.004146
3632.000000	0.004183
3631.000000	0.004223
3630.000000	0.004259
3629.000000	0.004293
3628.000000	0.004328
3627.000000	0.004355
3626.000000	0.004359
3625.000000	0.004345
3624.000000	0.004330
3623.000000	0.004325
3622.000000	0.004323
3621.000000	0.004320
3620.000000	0.004330
3619.000000	0.004373
3618.000000	0.004451
3617.000000	0.004534
3616.000000	0.004590
3615.000000	0.004610
3614.000000	0.004609
3613.000000	0.004608
3612.000000	0.004619
3611.000000	0.004638
3610.000000	0.004663
3609.000000	0.004692
3608.000000	0.004724
3607.000000	0.004748
3606.000000	0.004759
3605.000000	0.004755
3604.000000	0.004742
3603.000000	0.004728
3602.000000	0.004718
3601.000000	0.004717
3600.000000	0.004731
3599.000000	0.004759
3598.000000	0.004797
3597.000000	0.004843
3596.000000	0.004892
3595.000000	0.004939
3594.000000	0.004983
3593.000000	0.005025
3592.000000	0.005070
3591.000000	0.005124
3590.000000	0.005186
3589.000000	0.005247
3588.000000	0.005291
3587.000000	0.005307
3586.000000	0.005299
3585.000000	0.005286
3584.000000	0.005284
3583.000000	0.005302
3582.000000	0.005339
3581.000000	0.005379
3580.000000	0.005404
3579.000000	0.005413
3578.000000	0.005417
3577.000000	0.005432
3576.000000	0.005467
3575.000000	0.005518
3574.000000	0.005575
3573.000000	0.005631
3572.000000	0.005687
3571.000000	0.005748
3570.000000	0.005818
3569.000000	0.005899
3568.000000	0.005984
3567.000000	0.006055
3566.000000	0.006101
3565.000000	0.006115
3564.000000	0.006100
3563.000000	0.006068
3562.000000	0.006041
3561.000000	0.006036
3560.000000	0.006060
3559.000000	0.006103
3558.000000	0.006145
3557.000000	0.006181
3556.000000	0.006217
3555.000000	0.006267
3554.000000	0.006329
3553.000000	0.006391
3552.000000	0.006442
3551.000000	0.006478
3550.000000	0.006507
3549.000000	0.006537
3548.000000	0.006572
3547.000000	0.006609
3546.000000	0.006647
3545.000000	0.006686
3544.000000	0.006724
3543.000000	0.006757
3542.000000	0.006778
3541.000000	0.006789
3540.000000	0.006799
3539.000000	0.006819
3538.000000	0.006853
3537.000000	0.006892
3536.000000	0.006925
3535.000000	0.006950
3534.000000	0.006972
3533.000000	0.006994
3532.000000	0.007014
3531.000000	0.007026
3530.000000	0.007027
3529.000000	0.007020
3528.000000	0.007013
3527.000000	0.007016
3526.000000	0.007033
3525.000000	0.007067
3524.000000	0.007110
3523.000000	0.007155
3522.000000	0.007189
3521.000000	0.007210
3520.000000	0.007215
3519.000000	0.007211
3518.000000	0.007204
3517.000000	0.007202
3516.000000	0.007208
3515.000000	0.007220
3514.000000	0.007238
3513.000000	0.007255
3512.000000	0.007267
3511.000000	0.007273
3510.000000	0.007275
3509.000000	0.007277
3508.000000	0.007286
3507.000000	0.007306
3506.000000	0.007339
3505.000000	0.007382
3504.000000	0.007423
3503.000000	0.007446
3502.000000	0.007441
3501.000000	0.007414
3500.000000	0.007381
3499.000000	0.007359
3498.000000	0.007359
3497.000000	0.007383
3496.000000	0.007423
3495.000000	0.007469
3494.000000	0.007510
3493.000000	0.007540
3492.000000	0.007560
3491.000000	0.007572
3490.000000	0.007583
3489.000000	0.007602
3488.000000	0.007631
3487.000000	0.007664
3486.000000	0.007690
3485.000000	0.007705
3484.000000	0.007715
3483.000000	0.007726
3482.000000	0.007742
3481.000000	0.007763
3480.000000	0.007788
3479.000000	0.007811
3478.000000	0.007825
3477.000000	0.007829
3476.000000	0.007824
3475.000000	0.007819
3474.000000	0.007821
3473.000000	0.007835
3472.000000	0.007861
3471.000000	0.007893
3470.000000	0.007924
3469.000000	0.007951
3468.000000	0.007972
3467.000000	0.007989
3466.000000	0.008005
3465.000000	0.008021
3464.000000	0.008040
3463.000000	0.008060
3462.000000	0.008075
3461.000000	0.008084
3460.000000	0.008089
3459.000000	0.008093
3458.000000	0.008103
3457.000000	0.008120
3456.000000	0.008140
3455.000000	0.008158
3454.000000	0.008176
3453.000000	0.008196
3452.000000	0.008224
3451.000000	0.008258
3450.000000	0.008294
3449.000000	0.008328
3448.000000	0.008361
3447.000000	0.008396
3446.000000	0.008433
3445.000000	0.008467
3444.000000	0.008496
3443.000000	0.008519
3442.000000	0.008543
3441.000000	0.008571
3440.000000	0.008601
3439.000000	0.008627
3438.000000	0.008648
3437.000000	0.008667
3436.000000	0.008691
3435.000000	0.008719
3434.000000	0.008744
3433.000000	0.008763
3432.000000	0.008778
3431.000000	0.008794
3430.000000	0.008814
3429.000000	0.008835
3428.000000	0.008861
3427.000000	0.008898
3426.000000	0.008950
3425.000000	0.009009
3424.000000	0.009067
3423.000000	0.009118
3422.000000	0.009160
3421.000000	0.009195
3420.000000	0.009220
3419.000000	0.009240
3418.000000	0.009264
3417.000000	0.009302
3416.000000	0.009357
3415.000000	0.009417
3414.000000	0.009471
3413.000000	0.009505
3412.000000	0.009519
3411.000000	0.009518
3410.000000	0.009520
3409.000000	0.009538
3408.000000	0.009577
3407.000000	0.009623
3406.000000	0.009657
3405.000000	0.009669
3404.000000	0.009664
3403.000000	0.009656
3402.000000	0.009659
3401.000000	0.009678
3400.000000	0.009714
3399.000000	0.009759
3398.000000	0.009806
3397.000000	0.009843
3396.000000	0.009869
3395.000000	0.009884
3394.000000	0.009897
3393.000000	0.009913
3392.000000	0.009930
3391.000000	0.009945
3390.000000	0.009957
3389.000000	0.009965
3388.000000	0.009969
3387.000000	0.009965
3386.000000	0.009954
3385.000000	0.009943
3384.000000	0.009940
3383.000000	0.009950
3382.000000	0.009966
3381.000000	0.009984
3380.000000	0.009997
3379.000000	0.009998
3378.000000	0.009992
3377.000000	0.009984
3376.000000	0.009986
3375.000000	0.009997
3374.000000	0.010011
3373.000000	0.010020
3372.000000	0.010028
3371.000000	0.010042
3370.000000	0.010066
3369.000000	0.010095
3368.000000	0.010122
3367.000000	0.010142
3366.000000	0.010154
3365.000000	0.010164
3364.000000	0.010176
3363.000000	0.010193
3362.000000	0.010213
3361.000000	0.010229
3360.000000	0.010242
3359.000000	0.010261
3358.000000	0.010293
3357.000000	0.010335
3356.000000	0.010377
3355.000000	0.010411
3354.000000	0.010437
3353.000000	0.010459
3352.000000	0.010478
3351.000000	0.010491
3350.000000	0.010498
3349.000000	0.010503
3348.000000	0.010514
3347.000000	0.010541
3346.000000	0.010583
3345.000000	0.010633
3344.000000	0.010677
3343.000000	0.010707
3342.000000	0.010726
3341.000000	0.010740
3340.000000	0.010756
3339.000000	0.010773
3338.000000	0.010793
3337.000000	0.010815
3336.000000	0.010845
3335.000000	0.010882
3334.000000	0.010924
3333.000000	0.010963
3332.000000	0.010995
3331.000000	0.011017
3330.000000	0.011033
3329.000000	0.011047
3328.000000	0.011065
3327.000000	0.011090
3326.000000	0.011118
3325.000000	0.011144
3324.000000	0.011160
3323.000000	0.011164
3322.000000	0.011164
3321.000000	0.011169
3320.000000	0.011179
3319.000000	0.011190
3318.000000	0.011194
3317.000000	0.011190
3316.000000	0.011186
3315.000000	0.011194
3314.000000	0.011215
3313.000000	0.011240
3312.000000	0.011259
3311.000000	0.011267
3310.000000	0.011270
3309.000000	0.011269
3308.000000	0.011266
3307.000000	0.011259
3306.000000	0.011253
3305.000000	0.011254
3304.000000	0.011266
3303.000000	0.011290
3302.000000	0.011321
3301.000000	0.011353
3300.000000	0.011377
3299.000000	0.011389
3298.000000	0.011394
3297.000000	0.011397
3296.000000	0.011403
3295.000000	0.011409
3294.000000	0.011412
3293.000000	0.011412
3292.000000	0.011412
3291.000000	0.011417
3290.000000	0.011432
3289.000000	0.011458
3288.000000	0.011487
3287.000000	0.011507
3286.000000	0.011506
3285.000000	0.011485
3284.000000	0.011455
3283.000000	0.011429
3282.000000	0.011414
3281.000000	0.011408
3280.000000	0.011404
3279.000000	0.011398
3278.000000	0.011387
3277.000000	0.011372
3276.000000	0.011352
3275.000000	0.011328
3274.000000	0.011300
3273.000000	0.011272
3272.000000	0.011250
3271.000000	0.011236
3270.000000	0.011228
3269.000000	0.011222
3268.000000	0.011216
3267.000000	0.011208
3266.000000	0.011203
3265.000000	0.011200
3264.000000	0.011196
3263.000000	0.011183
3262.000000	0.011160
3261.000000	0.011131
3260.000000	0.011102
3259.000000	0.011078
3258.000000	0.011057
3257.000000	0.011038
3256.000000	0.011021
3255.000000	0.011004
3254.000000	0.010986
3253.000000	0.010961
3252.000000	0.010927
3251.000000	0.010887
3250.000000	0.010853
3249.000000	0.010835
3248.000000	0.010833
3247.000000	0.010832
3246.000000	0.010816
3245.000000	0.010787
3244.000000	0.010758
3243.000000	0.010748
3242.000000	0.010756
3241.000000	0.010766
3240.000000	0.010757
3239.000000	0.010718
3238.000000	0.010661
3237.000000	0.010606
3236.000000	0.010568
3235.000000	0.010552
3234.000000	0.010551
3233.000000	0.010553
3232.000000	0.010551
3231.000000	0.010544
3230.000000	0.010538
3229.000000	0.010534
3228.000000	0.010532
3227.000000	0.010529
3226.000000	0.010525
3225.000000	0.010520
3224.000000	0.010510
3223.000000	0.010491
3222.000000	0.010464
3221.000000	0.010437
3220.000000	0.010417
3219.000000	0.010400
3218.000000	0.010378
3217.000000	0.010346
3216.000000	0.010311
3215.000000	0.010291
3214.000000	0.010295
3213.000000	0.010309
3212.000000	0.010314
3211.000000	0.010299
3210.000000	0.010274
3209.000000	0.010251
3208.000000	0.010231
3207.000000	0.010208
3206.000000	0.010181
3205.000000	0.010154
3204.000000	0.010136
3203.000000	0.010129
3202.000000	0.010127
3201.000000	0.010126
3200.000000	0.010120
3199.000000	0.010108
3198.000000	0.010092
3197.000000	0.010078
3196.000000	0.010066
3195.000000	0.010056
3194.000000	0.010042
3193.000000	0.010021
3192.000000	0.009993
3191.000000	0.009964
3190.000000	0.009938
3189.000000	0.009920
3188.000000	0.009906
3187.000000	0.009889
3186.000000	0.009863
3185.000000	0.009830
3184.000000	0.009802
3183.000000	0.009791
3182.000000	0.009796
3181.000000	0.009804
3180.000000	0.009799
3179.000000	0.009778
3178.000000	0.009749
3177.000000	0.009721
3176.000000	0.009694
3175.000000	0.009665
3174.000000	0.009636
3173.000000	0.009611
3172.000000	0.009594
3171.000000	0.009583
3170.000000	0.009575
3169.000000	0.009561
3168.000000	0.009539
3167.000000	0.009513
3166.000000	0.009491
3165.000000	0.009473
3164.000000	0.009449
3163.000000	0.009412
3162.000000	0.009365
3161.000000	0.009320
3160.000000	0.009285
3159.000000	0.009260
3158.000000	0.009243
3157.000000	0.009233
3156.000000	0.009232
3155.000000	0.009235
3154.000000	0.009232
3153.000000	0.009216
3152.000000	0.009191
3151.000000	0.009166
3150.000000	0.009146
3149.000000	0.009129
3148.000000	0.009113
3147.000000	0.009096
3146.000000	0.009080
3145.000000	0.009065
3144.000000	0.009049
3143.000000	0.009033
3142.000000	0.009016
3141.000000	0.009000
3140.000000	0.008983
3139.000000	0.008966
3138.000000	0.008954
3137.000000	0.008948
3136.000000	0.008945
3135.000000	0.008937
3134.000000	0.008920
3133.000000	0.008898
3132.000000	0.008876
3131.000000	0.008858
3130.000000	0.008849
3129.000000	0.008847
3128.000000	0.008847
3127.000000	0.008844
3126.000000	0.008837
3125.000000	0.008826
3124.000000	0.008811
3123.000000	0.008796
3122.000000	0.008785
3121.000000	0.008779
3120.000000	0.008775
3119.000000	0.008769
3118.000000	0.008760
3117.000000	0.008754
3116.000000	0.008755
3115.000000	0.008764
3114.000000	0.008774
3113.000000	0.008780
3112.000000	0.008777
3111.000000	0.008768
3110.000000	0.008758
3109.000000	0.008752
3108.000000	0.008756
3107.000000	0.008766
3106.000000	0.008774
3105.000000	0.008776
3104.000000	0.008774
3103.000000	0.008775
3102.000000	0.008780
3101.000000	0.008783
3100.000000	0.008776
3099.000000	0.008762
3098.000000	0.008752
3097.000000	0.008754
3096.000000	0.008765
3095.000000	0.008773
3094.000000	0.008772
3093.000000	0.008760
3092.000000	0.008747
3091.000000	0.008742
3090.000000	0.008746
3089.000000	0.008752
3088.000000	0.008747
3087.000000	0.008735
3086.000000	0.008729
3085.000000	0.008741
3084.000000	0.008765
3083.000000	0.008785
3082.000000	0.008790
3081.000000	0.008776
3080.000000	0.008751
3079.000000	0.008727
3078.000000	0.008716
3077.000000	0.008727
3076.000000	0.008747
3075.000000	0.008757
3074.000000	0.008751
3073.000000	0.008739
3072.000000	0.008736
3071.000000	0.008745
3070.000000	0.008754
3069.000000	0.008750
3068.000000	0.008736
3067.000000	0.008723
3066.000000	0.008716
3065.000000	0.008711
3064.000000	0.008703
3063.000000	0.008688
3062.000000	0.008672
3061.000000	0.008660
3060.000000	0.008652
3059.000000	0.008645
3058.000000	0.008633
3057.000000	0.008612
3056.000000	0.008587
3055.000000	0.008567
3054.000000	0.008557
3053.000000	0.008552
3052.000000	0.008542
3051.000000	0.008519
3050.000000	0.008488
3049.000000	0.008455
3048.000000	0.008425
3047.000000	0.008396
3046.000000	0.008370
3045.000000	0.008349
3044.000000	0.008332
3043.000000	0.008317
3042.000000	0.008303
3041.000000	0.008288
3040.000000	0.008267
3039.000000	0.008240
3038.000000	0.008209
3037.000000	0.008175
3036.000000	0.008138
3035.000000	0.008101
3034.000000	0.008072
3033.000000	0.008051
3032.000000	0.008030
3031.000000	0.007997
3030.000000	0.007954
3029.000000	0.007907
3028.000000	0.007864
3027.000000	0.007826
3026.000000	0.007792
3025.000000	0.007769
3024.000000	0.007754
3023.000000	0.007736
3022.000000	0.007707
3021.000000	0.007663
3020.000000	0.007610
3019.000000	0.007555
3018.000000	0.007506
3017.000000	0.007466
3016.000000	0.007436
3015.000000	0.007413
3014.000000	0.007387
3013.000000	0.007350
3012.000000	0.007297
3011.000000	0.007238
3010.000000	0.007190
3009.000000	0.007163
3008.000000	0.007149
3007.000000	0.007128
3006.000000	0.007090
3005.000000	0.007041
3004.000000	0.006993
3003.000000	0.006958
3002.000000	0.006940
3001.000000	0.006933
3000.000000	0.006929
2999.000000	0.006918
2998.000000	0.006904
2997.000000	0.006896
2996.000000	0.006899
2995.000000	0.006911
2994.000000	0.006922
2993.000000	0.006925
2992.000000	0.006917
2991.000000	0.006906
2990.000000	0.006908
2989.000000	0.006940
2988.000000	0.007008
2987.000000	0.007100
2986.000000	0.007199
2985.000000	0.007296
2984.000000	0.007392
2983.000000	0.007488
2982.000000	0.007582
2981.000000	0.007672
2980.000000	0.007752
2979.000000	0.007825
2978.000000	0.007902
2977.000000	0.007995
2976.000000	0.008110
2975.000000	0.008241
2974.000000	0.008380
2973.000000	0.008521
2972.000000	0.008662
2971.000000	0.008804
2970.000000	0.008959
2969.000000	0.009141
2968.000000	0.009352
2967.000000	0.009574
2966.000000	0.009787
2965.000000	0.009986
2964.000000	0.010171
2963.000000	0.010341
2962.000000	0.010491
2961.000000	0.010617
2960.000000	0.010722
2959.000000	0.010811
2958.000000	0.010886
2957.000000	0.010947
2956.000000	0.010993
2955.000000	0.011022
2954.000000	0.011033
2953.000000	0.011028
2952.000000	0.011015
2951.000000	0.011005
2950.000000	0.011009
2949.000000	0.011031
2948.000000	0.011062
2947.000000	0.011096
2946.000000	0.011136
2945.000000	0.011196
2944.000000	0.011286
2943.000000	0.011406
2942.000000	0.011555
2941.000000	0.011728
2940.000000	0.011922
2939.000000	0.012128
2938.000000	0.012339
2937.000000	0.012553
2936.000000	0.012772
2935.000000	0.012994
2934.000000	0.013213
2933.000000	0.013419
2932.000000	0.013601
2931.000000	0.013759
2930.000000	0.013904
2929.000000	0.014057
2928.000000	0.014226
2927.000000	0.014403
2926.000000	0.014570
2925.000000	0.014720
2924.000000	0.014852
2923.000000	0.014972
2922.000000	0.015084
2921.000000	0.015185
2920.000000	0.015260
2919.000000	0.015283
2918.000000	0.015231
2917.000000	0.015089
2916.000000	0.014856
2915.000000	0.014539
2914.000000	0.014159
2913.000000	0.013752
2912.000000	0.013355
2911.000000	0.012986
2910.000000	0.012647
2909.000000	0.012337
2908.000000	0.012058
2907.000000	0.011816
2906.000000	0.011608
2905.000000	0.011419
2904.000000	0.011231
2903.000000	0.011035
2902.000000	0.010845
2901.000000	0.010686
2900.000000	0.010575
2899.000000	0.010498
2898.000000	0.010421
2897.000000	0.010320
2896.000000	0.010193
2895.000000	0.010054
2894.000000	0.009917
2893.000000	0.009790
2892.000000	0.009680
2891.000000	0.009594
2890.000000	0.009531
2889.000000	0.009485
2888.000000	0.009443
2887.000000	0.009400
2886.000000	0.009358
2885.000000	0.009325
2884.000000	0.009312
2883.000000	0.009327
2882.000000	0.009370
2881.000000	0.009434
2880.000000	0.009508
2879.000000	0.009583
2878.000000	0.009660
2877.000000	0.009743
2876.000000	0.009832
2875.000000	0.009914
2874.000000	0.009980
2873.000000	0.010029
2872.000000	0.010069
2871.000000	0.010103
2870.000000	0.010132
2869.000000	0.010152
2868.000000	0.010168
2867.000000	0.010188
2866.000000	0.010224
2865.000000	0.010288
2864.000000	0.010383
2863.000000	0.010497
2862.000000	0.010613
2861.000000	0.010725
2860.000000	0.010847
2859.000000	0.010994
2858.000000	0.011170
2857.000000	0.011363
2856.000000	0.011560
2855.000000	0.011755
2854.000000	0.011948
2853.000000	0.012136
2852.000000	0.012295
2851.000000	0.012390
2850.000000	0.012378
2849.000000	0.012231
2848.000000	0.011954
2847.000000	0.011585
2846.000000	0.011183
2845.000000	0.010800
2844.000000	0.010466
2843.000000	0.010182
2842.000000	0.009938
2841.000000	0.009729
2840.000000	0.009550
2839.000000	0.009394
2838.000000	0.009250
2837.000000	0.009114
2836.000000	0.008985
2835.000000	0.008871
2834.000000	0.008775
2833.000000	0.008696
2832.000000	0.008633
2831.000000	0.008581
2830.000000	0.008535
2829.000000	0.008489
2828.000000	0.008441
2827.000000	0.008390
2826.000000	0.008341
2825.000000	0.008301
2824.000000	0.008269
2823.000000	0.008244
2822.000000	0.008221
2821.000000	0.008199
2820.000000	0.008179
2819.000000	0.008159
2818.000000	0.008137
2817.000000	0.008115
2816.000000	0.008094
2815.000000	0.008078
2814.000000	0.008066
2813.000000	0.008056
2812.000000	0.008041
2811.000000	0.008016
2810.000000	0.007981
2809.000000	0.007946
2808.000000	0.007920
2807.000000	0.007908
2806.000000	0.007899
2805.000000	0.007882
2804.000000	0.007850
2803.000000	0.007807
2802.000000	0.007762
2801.000000	0.007728
2800.000000	0.007713
2799.000000	0.007713
2798.000000	0.007719
2797.000000	0.007724
2796.000000	0.007724
2795.000000	0.007717
2794.000000	0.007705
2793.000000	0.007690
2792.000000	0.007678
2791.000000	0.007671
2790.000000	0.007666
2789.000000	0.007655
2788.000000	0.007636
2787.000000	0.007611
2786.000000	0.007587
2785.000000	0.007570
2784.000000	0.007557
2783.000000	0.007543
2782.000000	0.007527
2781.000000	0.007512
2780.000000	0.007504
2779.000000	0.007504
2778.000000	0.007512
2777.000000	0.007522
2776.000000	0.007527
2775.000000	0.007518
2774.000000	0.007496
2773.000000	0.007469
2772.000000	0.007451
2771.000000	0.007444
2770.000000	0.007446
2769.000000	0.007449
2768.000000	0.007450
2767.000000	0.007447
2766.000000	0.007439
2765.000000	0.007428
2764.000000	0.007416
2763.000000	0.007407
2762.000000	0.007403
2761.000000	0.007406
2760.000000	0.007415
2759.000000	0.007421
2758.000000	0.007411
2757.000000	0.007381
2756.000000	0.007343
2755.000000	0.007315
2754.000000	0.007304
2753.000000	0.007306
2752.000000	0.007311
2751.000000	0.007313
2750.000000	0.007316
2749.000000	0.007322
2748.000000	0.007330
2747.000000	0.007333
2746.000000	0.007325
2745.000000	0.007306
2744.000000	0.007286
2743.000000	0.007275
2742.000000	0.007277
2741.000000	0.007284
2740.000000	0.007288
2739.000000	0.007287
2738.000000	0.007282
2737.000000	0.007273
2736.000000	0.007260
2735.000000	0.007245
2734.000000	0.007232
2733.000000	0.007222
2732.000000	0.007220
2731.000000	0.007227
2730.000000	0.007244
2729.000000	0.007264
2728.000000	0.007277
2727.000000	0.007276
2726.000000	0.007263
2725.000000	0.007247
2724.000000	0.007238
2723.000000	0.007236
2722.000000	0.007235
2721.000000	0.007228
2720.000000	0.007214
2719.000000	0.007202
2718.000000	0.007204
2717.000000	0.007221
2716.000000	0.007237
2715.000000	0.007236
2714.000000	0.007217
2713.000000	0.007187
2712.000000	0.007161
2711.000000	0.007145
2710.000000	0.007140
2709.000000	0.007141
2708.000000	0.007142
2707.000000	0.007140
2706.000000	0.007138
2705.000000	0.007137
2704.000000	0.007139
2703.000000	0.007142
2702.000000	0.007144
2701.000000	0.007148
2700.000000	0.007150
2699.000000	0.007145
2698.000000	0.007134
2697.000000	0.007120
2696.000000	0.007104
2695.000000	0.007085
2694.000000	0.007065
2693.000000	0.007052
2692.000000	0.007055
2691.000000	0.007070
2690.000000	0.007083
2689.000000	0.007085
2688.000000	0.007078
2687.000000	0.007070
2686.000000	0.007067
2685.000000	0.007068
2684.000000	0.007067
2683.000000	0.007061
2682.000000	0.007051
2681.000000	0.007047
2680.000000	0.007052
2679.000000	0.007064
2678.000000	0.007078
2677.000000	0.007086
2676.000000	0.007086
2675.000000	0.007079
2674.000000	0.007067
2673.000000	0.007052
2672.000000	0.007035
2671.000000	0.007022
2670.000000	0.007018
2669.000000	0.007029
2668.000000	0.007048
2667.000000	0.007063
2666.000000	0.007066
2665.000000	0.007055
2664.000000	0.007041
2663.000000	0.007032
2662.000000	0.007031
2661.000000	0.007036
2660.000000	0.007045
2659.000000	0.007059
2658.000000	0.007077
2657.000000	0.007092
2656.000000	0.007095
2655.000000	0.007085
2654.000000	0.007066
2653.000000	0.007045
2652.000000	0.007022
2651.000000	0.007000
2650.000000	0.006985
2649.000000	0.006980
2648.000000	0.006978
2647.000000	0.006970
2646.000000	0.006951
2645.000000	0.006923
2644.000000	0.006885
2643.000000	0.006841
2642.000000	0.006799
2641.000000	0.006773
2640.000000	0.006770
2639.000000	0.006782
2638.000000	0.006790
2637.000000	0.006784
2636.000000	0.006765
2635.000000	0.006740
2634.000000	0.006713
2633.000000	0.006690
2632.000000	0.006672
2631.000000	0.006657
2630.000000	0.006644
2629.000000	0.006634
2628.000000	0.006625
2627.000000	0.006612
2626.000000	0.006589
2625.000000	0.006559
2624.000000	0.006529
2623.000000	0.006507
2622.000000	0.006490
2621.000000	0.006474
2620.000000	0.006456
2619.000000	0.006446
2618.000000	0.006453
2617.000000	0.006472
2616.000000	0.006486
2615.000000	0.006481
2614.000000	0.006460
2613.000000	0.006436
2612.000000	0.006420
2611.000000	0.006407
2610.000000	0.006392
2609.000000	0.006374
2608.000000	0.006355
2607.000000	0.006336
2606.000000	0.006321
2605.000000	0.006316
2604.000000	0.006320
2603.000000	0.006327
2602.000000	0.006332
2601.000000	0.006336
2600.000000	0.006344
2599.000000	0.006352
2598.000000	0.006352
2597.000000	0.006343
2596.000000	0.006327
2595.000000	0.006304
2594.000000	0.006276
2593.000000	0.006242
2592.000000	0.006207
2591.000000	0.006180
2590.000000	0.006171
2589.000000	0.006184
2588.000000	0.006211
2587.000000	0.006235
2586.000000	0.006239
2585.000000	0.006221
2584.000000	0.006188
2583.000000	0.006154
2582.000000	0.006132
2581.000000	0.006131
2580.000000	0.006144
2579.000000	0.006161
2578.000000	0.006176
2577.000000	0.006192
2576.000000	0.006206
2575.000000	0.006211
2574.000000	0.006201
2573.000000	0.006180
2572.000000	0.006154
2571.000000	0.006126
2570.000000	0.006099
2569.000000	0.006078
2568.000000	0.006058
2567.000000	0.006025
2566.000000	0.005977
2565.000000	0.005931
2564.000000	0.005916
2563.000000	0.005935
2562.000000	0.005969
2561.000000	0.005991
2560.000000	0.005993
2559.000000	0.005986
2558.000000	0.005981
2557.000000	0.005988
2556.000000	0.006005
2555.000000	0.006022
2554.000000	0.006029
2553.000000	0.006022
2552.000000	0.006004
2551.000000	0.005981
2550.000000	0.005956
2549.000000	0.005932
2548.000000	0.005921
2547.000000	0.005928
2546.000000	0.005940
2545.000000	0.005939
2544.000000	0.005923
2543.000000	0.005914
2542.000000	0.005928
2541.000000	0.005949
2540.000000	0.005947
2539.000000	0.005912
2538.000000	0.005870
2537.000000	0.005856
2536.000000	0.005878
2535.000000	0.005915
2534.000000	0.005945
2533.000000	0.005956
2532.000000	0.005950
2531.000000	0.005941
2530.000000	0.005943
2529.000000	0.005966
2528.000000	0.006002
2527.000000	0.006032
2526.000000	0.006044
2525.000000	0.006046
2524.000000	0.006055
2523.000000	0.006083
2522.000000	0.006125
2521.000000	0.006163
2520.000000	0.006180
2519.000000	0.006164
2518.000000	0.006124
2517.000000	0.006081
2516.000000	0.006056
2515.000000	0.006057
2514.000000	0.006075
2513.000000	0.006092
2512.000000	0.006095
2511.000000	0.006083
2510.000000	0.006073
2509.000000	0.006073
2508.000000	0.006077
2507.000000	0.006071
2506.000000	0.006044
2505.000000	0.006006
2504.000000	0.005968
2503.000000	0.005939
2502.000000	0.005917
2501.000000	0.005902
2500.000000	0.005895
2499.000000	0.005894
2498.000000	0.005896
2497.000000	0.005889
2496.000000	0.005861
2495.000000	0.005815
2494.000000	0.005766
2493.000000	0.005728
2492.000000	0.005708
2491.000000	0.005708
2490.000000	0.005726
2489.000000	0.005756
2488.000000	0.005781
2487.000000	0.005789
2486.000000	0.005780
2485.000000	0.005775
2484.000000	0.005787
2483.000000	0.005812
2482.000000	0.005823
2481.000000	0.005800
2480.000000	0.005744
2479.000000	0.005684
2478.000000	0.005649
2477.000000	0.005646
2476.000000	0.005661
2475.000000	0.005673
2474.000000	0.005678
2473.000000	0.005675
2472.000000	0.005660
2471.000000	0.005634
2470.000000	0.005610
2469.000000	0.005602
2468.000000	0.005612
2467.000000	0.005631
2466.000000	0.005653
2465.000000	0.005682
2464.000000	0.005714
2463.000000	0.005734
2462.000000	0.005727
2461.000000	0.005692
2460.000000	0.005644
2459.000000	0.005603
2458.000000	0.005581
2457.000000	0.005579
2456.000000	0.005585
2455.000000	0.005590
2454.000000	0.005594
2453.000000	0.005613
2452.000000	0.005654
2451.000000	0.005709
2450.000000	0.005760
2449.000000	0.005784
2448.000000	0.005765
2447.000000	0.005706
2446.000000	0.005635
2445.000000	0.005582
2444.000000	0.005562
2443.000000	0.005565
2442.000000	0.005574
2441.000000	0.005581
2440.000000	0.005586
2439.000000	0.005591
2438.000000	0.005594
2437.000000	0.005594
2436.000000	0.005590
2435.000000	0.005582
2434.000000	0.005571
2433.000000	0.005560
2432.000000	0.005550
2431.000000	0.005539
2430.000000	0.005529
2429.000000	0.005516
2428.000000	0.005499
2427.000000	0.005482
2426.000000	0.005477
2425.000000	0.005484
2424.000000	0.005494
2423.000000	0.005494
2422.000000	0.005480
2421.000000	0.005455
2420.000000	0.005422
2419.000000	0.005386
2418.000000	0.005360
2417.000000	0.005362
2416.000000	0.005394
2415.000000	0.005439
2414.000000	0.005477
2413.000000	0.005491
2412.000000	0.005474
2411.000000	0.005437
2410.000000	0.005403
2409.000000	0.005391
2408.000000	0.005399
2407.000000	0.005407
2406.000000	0.005401
2405.000000	0.005385
2404.000000	0.005371
2403.000000	0.005366
2402.000000	0.005378
2401.000000	0.005403
2400.000000	0.005427
2399.000000	0.005434
2398.000000	0.005427
2397.000000	0.005420
2396.000000	0.005425
2395.000000	0.005438
2394.000000	0.005447
2393.000000	0.005447
2392.000000	0.005440
2391.000000	0.005433
2390.000000	0.005435
2389.000000	0.005445
2388.000000	0.005455
2387.000000	0.005457
2386.000000	0.005451
2385.000000	0.005439
2384.000000	0.005418
2383.000000	0.005380
2382.000000	0.005330
2381.000000	0.005286
2380.000000	0.005264
2379.000000	0.005272
2378.000000	0.005311
2377.000000	0.005375
2376.000000	0.005446
2375.000000	0.005507
2374.000000	0.005545
2373.000000	0.005552
2372.000000	0.005527
2371.000000	0.005482
2370.000000	0.005444
2369.000000	0.005424
2368.000000	0.005407
2367.000000	0.005386
2366.000000	0.005377
2365.000000	0.005397
2364.000000	0.005446
2363.000000	0.005508
2362.000000	0.005567
2361.000000	0.005602
2360.000000	0.005596
2359.000000	0.005559
2358.000000	0.005521
2357.000000	0.005502
2356.000000	0.005519
2355.000000	0.005574
2354.000000	0.005605
2353.000000	0.005552
2352.000000	0.005455
2351.000000	0.005415
2350.000000	0.005468
2349.000000	0.005576
2348.000000	0.005667
2347.000000	0.005678
2346.000000	0.005621
2345.000000	0.005587
2344.000000	0.005637
2343.000000	0.005723
2342.000000	0.005775
2341.000000	0.005765
2340.000000	0.005721
2339.000000	0.005684
2338.000000	0.005676
2337.000000	0.005690
2336.000000	0.005716
2335.000000	0.005733
2334.000000	0.005711
2333.000000	0.005634
2332.000000	0.005540
2331.000000	0.005486
2330.000000	0.005490
2329.000000	0.005542
2328.000000	0.005631
2327.000000	0.005762
2326.000000	0.005917
2325.000000	0.006052
2324.000000	0.006127
2323.000000	0.006128
2322.000000	0.006091
2321.000000	0.006073
2320.000000	0.006103
2319.000000	0.006153
2318.000000	0.006163
2317.000000	0.006106
2316.000000	0.005992
2315.000000	0.005859
2314.000000	0.005749
2313.000000	0.005696
2312.000000	0.005698
2311.000000	0.005711
2310.000000	0.005689
2309.000000	0.005631
2308.000000	0.005571
2307.000000	0.005536
2306.000000	0.005521
2305.000000	0.005510
2304.000000	0.005485
2303.000000	0.005438
2302.000000	0.005385
2301.000000	0.005364
2300.000000	0.005398
2299.000000	0.005463
2298.000000	0.005514
2297.000000	0.005530
2296.000000	0.005532
2295.000000	0.005539
2294.000000	0.005548
2293.000000	0.005549
2292.000000	0.005549
2291.000000	0.005563
2290.000000	0.005601
2289.000000	0.005650
2288.000000	0.005693
2287.000000	0.005713
2286.000000	0.005705
2285.000000	0.005677
2284.000000	0.005639
2283.000000	0.005595
2282.000000	0.005547
2281.000000	0.005500
2280.000000	0.005454
2279.000000	0.005407
2278.000000	0.005368
2277.000000	0.005363
2276.000000	0.005398
2275.000000	0.005441
2274.000000	0.005451
2273.000000	0.005427
2272.000000	0.005400
2271.000000	0.005382
2270.000000	0.005351
2269.000000	0.005286
2268.000000	0.005209
2267.000000	0.005159
2266.000000	0.005163
2265.000000	0.005215
2264.000000	0.005283
2263.000000	0.005331
2262.000000	0.005340
2261.000000	0.005319
2260.000000	0.005291
2259.000000	0.005274
2258.000000	0.005266
2257.000000	0.005256
2256.000000	0.005233
2255.000000	0.005196
2254.000000	0.005158
2253.000000	0.005149
2252.000000	0.005175
2251.000000	0.005205
2250.000000	0.005190
2249.000000	0.005118
2248.000000	0.005025
2247.000000	0.004948
2246.000000	0.004899
2245.000000	0.004876
2244.000000	0.004878
2243.000000	0.004911
2242.000000	0.004971
2241.000000	0.005040
2240.000000	0.005094
2239.000000	0.005121
2238.000000	0.005130
2237.000000	0.005136
2236.000000	0.005139
2235.000000	0.005109
2234.000000	0.005021
2233.000000	0.004899
2232.000000	0.004817
2231.000000	0.004828
2230.000000	0.004908
2229.000000	0.004975
2228.000000	0.004965
2227.000000	0.004885
2226.000000	0.004795
2225.000000	0.004743
2224.000000	0.004726
2223.000000	0.004712
2222.000000	0.004681
2221.000000	0.004646
2220.000000	0.004635
2219.000000	0.004672
2218.000000	0.004759
2217.000000	0.004879
2216.000000	0.004992
2215.000000	0.005064
2214.000000	0.005090
2213.000000	0.005086
2212.000000	0.005068
2211.000000	0.005042
2210.000000	0.005000
2209.000000	0.004925
2208.000000	0.004799
2207.000000	0.004639
2206.000000	0.004508
2205.000000	0.004468
2204.000000	0.004517
2203.000000	0.004604
2202.000000	0.004691
2201.000000	0.004766
2200.000000	0.004808
2199.000000	0.004787
2198.000000	0.004714
2197.000000	0.004642
2196.000000	0.004607
2195.000000	0.004607
2194.000000	0.004639
2193.000000	0.004717
2192.000000	0.004823
2191.000000	0.004898
2190.000000	0.004909
2189.000000	0.004896
2188.000000	0.004916
2187.000000	0.004953
2186.000000	0.004937
2185.000000	0.004829
2184.000000	0.004656
2183.000000	0.004471
2182.000000	0.004326
2181.000000	0.004258
2180.000000	0.004268
2179.000000	0.004306
2178.000000	0.004324
2177.000000	0.004322
2176.000000	0.004339
2175.000000	0.004405
2174.000000	0.004517
2173.000000	0.004642
2172.000000	0.004731
2171.000000	0.004743
2170.000000	0.004672
2169.000000	0.004564
2168.000000	0.004484
2167.000000	0.004469
2166.000000	0.004512
2165.000000	0.004580
2164.000000	0.004642
2163.000000	0.004683
2162.000000	0.004678
2161.000000	0.004543
2160.000000	0.004166
2159.000000	0.003557
2158.000000	0.002950
2157.000000	0.002629
2156.000000	0.002661
2155.000000	0.002888
2154.000000	0.003134
2153.000000	0.003325
2152.000000	0.003464
2151.000000	0.003581
2150.000000	0.003700
2149.000000	0.003823
2148.000000	0.003908
2147.000000	0.003918
2146.000000	0.003881
2145.000000	0.003863
2144.000000	0.003893
2143.000000	0.003936
2142.000000	0.003966
2141.000000	0.004006
2140.000000	0.004089
2139.000000	0.004206
2138.000000	0.004315
2137.000000	0.004366
2136.000000	0.004333
2135.000000	0.004236
2134.000000	0.004141
2133.000000	0.004109
2132.000000	0.004133
2131.000000	0.004162
2130.000000	0.004175
2129.000000	0.004197
2128.000000	0.004259
2127.000000	0.004356
2126.000000	0.004471
2125.000000	0.004583
2124.000000	0.004668
2123.000000	0.004692
2122.000000	0.004655
2121.000000	0.004606
2120.000000	0.004603
2119.000000	0.004658
2118.000000	0.004734
2117.000000	0.004791
2116.000000	0.004813
2115.000000	0.004817
2114.000000	0.004833
2113.000000	0.004875
2112.000000	0.004923
2111.000000	0.004939
2110.000000	0.004907
2109.000000	0.004859
2108.000000	0.004835
2107.000000	0.004847
2106.000000	0.004874
2105.000000	0.004880
2104.000000	0.004855
2103.000000	0.004827
2102.000000	0.004834
2101.000000	0.004873
2100.000000	0.004895
2099.000000	0.004861
2098.000000	0.004795
2097.000000	0.004742
2096.000000	0.004713
2095.000000	0.004679
2094.000000	0.004643
2093.000000	0.004639
2092.000000	0.004679
2091.000000	0.004732
2090.000000	0.004777
2089.000000	0.004822
2088.000000	0.004870
2087.000000	0.004901
2086.000000	0.004896
2085.000000	0.004870
2084.000000	0.004840
2083.000000	0.004806
2082.000000	0.004758
2081.000000	0.004703
2080.000000	0.004648
2079.000000	0.004591
2078.000000	0.004546
2077.000000	0.004544
2076.000000	0.004592
2075.000000	0.004649
2074.000000	0.004676
2073.000000	0.004669
2072.000000	0.004642
2071.000000	0.004608
2070.000000	0.004584
2069.000000	0.004585
2068.000000	0.004600
2067.000000	0.004590
2066.000000	0.004544
2065.000000	0.004500
2064.000000	0.004490
2063.000000	0.004502
2062.000000	0.004517
2061.000000	0.004546
2060.000000	0.004601
2059.000000	0.004661
2058.000000	0.004699
2057.000000	0.004715
2056.000000	0.004708
2055.000000	0.004670
2054.000000	0.004615
2053.000000	0.004581
2052.000000	0.004574
2051.000000	0.004535
2050.000000	0.004418
2049.000000	0.004263
2048.000000	0.004140
2047.000000	0.004064
2046.000000	0.004011
2045.000000	0.004003
2044.000000	0.004070
2043.000000	0.004159
2042.000000	0.004158
2041.000000	0.004023
2040.000000	0.003836
2039.000000	0.003712
2038.000000	0.003719
2037.000000	0.003843
2036.000000	0.003992
2035.000000	0.004040
2034.000000	0.003932
2033.000000	0.003727
2032.000000	0.003519
2031.000000	0.003334
2030.000000	0.003169
2029.000000	0.003085
2028.000000	0.003153
2027.000000	0.003338
2026.000000	0.003505
2025.000000	0.003568
2024.000000	0.003560
2023.000000	0.003550
2022.000000	0.003535
2021.000000	0.003457
2020.000000	0.003309
2019.000000	0.003175
2018.000000	0.003147
2017.000000	0.003218
2016.000000	0.003277
2015.000000	0.003233
2014.000000	0.003112
2013.000000	0.003022
2012.000000	0.003034
2011.000000	0.003136
2010.000000	0.003264
2009.000000	0.003340
2008.000000	0.003296
2007.000000	0.003141
2006.000000	0.002989
2005.000000	0.002971
2004.000000	0.003107
2003.000000	0.003311
2002.000000	0.003506
2001.000000	0.003666
2000.000000	0.003785
1999.000000	0.003858
1998.000000	0.003904
1997.000000	0.003944
1996.000000	0.003957
1995.000000	0.003912
1994.000000	0.003846
1993.000000	0.003851
1992.000000	0.003958
1991.000000	0.004077
1990.000000	0.004097
1989.000000	0.003991
1988.000000	0.003807
1987.000000	0.003620
1986.000000	0.003507
1985.000000	0.003515
1984.000000	0.003626
1983.000000	0.003786
1982.000000	0.003980
1981.000000	0.004211
1980.000000	0.004396
1979.000000	0.004355
1978.000000	0.003994
1977.000000	0.003450
1976.000000	0.002996
1975.000000	0.002792
1974.000000	0.002826
1973.000000	0.002992
1972.000000	0.003164
1971.000000	0.003259
1970.000000	0.003286
1969.000000	0.003317
1968.000000	0.003394
1967.000000	0.003480
1966.000000	0.003529
1965.000000	0.003544
1964.000000	0.003551
1963.000000	0.003559
1962.000000	0.003562
1961.000000	0.003556
1960.000000	0.003536
1959.000000	0.003508
1958.000000	0.003510
1957.000000	0.003572
1956.000000	0.003672
1955.000000	0.003748
1954.000000	0.003753
1953.000000	0.003681
1952.000000	0.003542
1951.000000	0.003371
1950.000000	0.003234
1949.000000	0.003196
1948.000000	0.003245
1947.000000	0.003303
1946.000000	0.003313
1945.000000	0.003297
1944.000000	0.003317
1943.000000	0.003409
1942.000000	0.003563
1941.000000	0.003715
1940.000000	0.003790
1939.000000	0.003762
1938.000000	0.003683
1937.000000	0.003636
1936.000000	0.003645
1935.000000	0.003672
1934.000000	0.003685
1933.000000	0.003684
1932.000000	0.003670
1931.000000	0.003627
1930.000000	0.003554
1929.000000	0.003484
1928.000000	0.003441
1927.000000	0.003424
1926.000000	0.003433
1925.000000	0.003476
1924.000000	0.003547
1923.000000	0.003601
1922.000000	0.003604
1921.000000	0.003575
1920.000000	0.003552
1919.000000	0.003561
1918.000000	0.003613
1917.000000	0.003709
1916.000000	0.003825
1915.000000	0.003913
1914.000000	0.003937
1913.000000	0.003902
1912.000000	0.003840
1911.000000	0.003790
1910.000000	0.003773
1909.000000	0.003795
1908.000000	0.003825
1907.000000	0.003821
1906.000000	0.003772
1905.000000	0.003711
1904.000000	0.003688
1903.000000	0.003717
1902.000000	0.003771
1901.000000	0.003806
1900.000000	0.003788
1899.000000	0.003719
1898.000000	0.003643
1897.000000	0.003610
1896.000000	0.003630
1895.000000	0.003654
1894.000000	0.003636
1893.000000	0.003579
1892.000000	0.003527
1891.000000	0.003517
1890.000000	0.003554
1889.000000	0.003610
1888.000000	0.003647
1887.000000	0.003654
1886.000000	0.003647
1885.000000	0.003649
1884.000000	0.003658
1883.000000	0.003656
1882.000000	0.003639
1881.000000	0.003617
1880.000000	0.003591
1879.000000	0.003550
1878.000000	0.003505
1877.000000	0.003479
1876.000000	0.003489
1875.000000	0.003525
1874.000000	0.003559
1873.000000	0.003570
1872.000000	0.003557
1871.000000	0.003541
1870.000000	0.003543
1869.000000	0.003555
1868.000000	0.003545
1867.000000	0.003501
1866.000000	0.003463
1865.000000	0.003467
1864.000000	0.003496
1863.000000	0.003504
1862.000000	0.003480
1861.000000	0.003455
1860.000000	0.003458
1859.000000	0.003483
1858.000000	0.003508
1857.000000	0.003523
1856.000000	0.003516
1855.000000	0.003479
1854.000000	0.003429
1853.000000	0.003399
1852.000000	0.003398
1851.000000	0.003399
1850.000000	0.003389
1849.000000	0.003368
1848.000000	0.003332
1847.000000	0.003274
1846.000000	0.003221
1845.000000	0.003213
1844.000000	0.003251
1843.000000	0.003281
1842.000000	0.003275
1841.000000	0.003263
1840.000000	0.003270
1839.000000	0.003285
1838.000000	0.003290
1837.000000	0.003292
1836.000000	0.003301
1835.000000	0.003302
1834.000000	0.003274
1833.000000	0.003221
1832.000000	0.003164
1831.000000	0.003128
1830.000000	0.003133
1829.000000	0.003156
1828.000000	0.003157
1827.000000	0.003134
1826.000000	0.003125
1825.000000	0.003156
1824.000000	0.003202
1823.000000	0.003229
1822.000000	0.003236
1821.000000	0.003246
1820.000000	0.003251
1819.000000	0.003229
1818.000000	0.003178
1817.000000	0.003126
1816.000000	0.003107
1815.000000	0.003119
1814.000000	0.003151
1813.000000	0.003190
1812.000000	0.003217
1811.000000	0.003222
1810.000000	0.003212
1809.000000	0.003210
1808.000000	0.003227
1807.000000	0.003258
1806.000000	0.003304
1805.000000	0.003378
1804.000000	0.003477
1803.000000	0.003572
1802.000000	0.003640
1801.000000	0.003681
1800.000000	0.003703
1799.000000	0.003719
1798.000000	0.003735
1797.000000	0.003755
1796.000000	0.003768
1795.000000	0.003755
1794.000000	0.003722
1793.000000	0.003690
1792.000000	0.003658
1791.000000	0.003608
1790.000000	0.003536
1789.000000	0.003472
1788.000000	0.003431
1787.000000	0.003406
1786.000000	0.003386
1785.000000	0.003369
1784.000000	0.003348
1783.000000	0.003311
1782.000000	0.003270
1781.000000	0.003253
1780.000000	0.003248
1779.000000	0.003235
1778.000000	0.003210
1777.000000	0.003195
1776.000000	0.003182
1775.000000	0.003144
1774.000000	0.003095
1773.000000	0.003084
1772.000000	0.003122
1771.000000	0.003165
1770.000000	0.003197
1769.000000	0.003242
1768.000000	0.003306
1767.000000	0.003353
1766.000000	0.003361
1765.000000	0.003364
1764.000000	0.003402
1763.000000	0.003486
1762.000000	0.003600
1761.000000	0.003724
1760.000000	0.003845
1759.000000	0.003975
1758.000000	0.004148
1757.000000	0.004393
1756.000000	0.004672
1755.000000	0.004916
1754.000000	0.005136
1753.000000	0.005405
1752.000000	0.005762
1751.000000	0.006158
1750.000000	0.006524
1749.000000	0.006862
1748.000000	0.007211
1747.000000	0.007556
1746.000000	0.007884
1745.000000	0.008198
1744.000000	0.008482
1743.000000	0.008701
1742.000000	0.008849
1741.000000	0.008967
1740.000000	0.009087
1739.000000	0.009172
1738.000000	0.009185
1737.000000	0.009157
1736.000000	0.009125
1735.000000	0.009048
1734.000000	0.008864
1733.000000	0.008623
1732.000000	0.008406
1731.000000	0.008242
1730.000000	0.008105
1729.000000	0.007960
1728.000000	0.007786
1727.000000	0.007579
1726.000000	0.007369
1725.000000	0.007181
1724.000000	0.007008
1723.000000	0.006831
1722.000000	0.006637
1721.000000	0.006453
1720.000000	0.006298
1719.000000	0.006157
1718.000000	0.006016
1717.000000	0.005911
1716.000000	0.005875
1715.000000	0.005882
1714.000000	0.005905
1713.000000	0.005942
1712.000000	0.006000
1711.000000	0.006066
1710.000000	0.006128
1709.000000	0.006193
1708.000000	0.006264
1707.000000	0.006362
1706.000000	0.006503
1705.000000	0.006690
1704.000000	0.006936
1703.000000	0.007083
1702.000000	0.007209
1701.000000	0.007351
1700.000000	0.007557
1699.000000	0.007764
1698.000000	0.007943
1697.000000	0.008144
1696.000000	0.008425
1695.000000	0.008721
1694.000000	0.008911
1693.000000	0.009107
1692.000000	0.009320
1691.000000	0.009591
1690.000000	0.009867
1689.000000	0.010106
1688.000000	0.010265
1687.000000	0.010348
1686.000000	0.010443
1685.000000	0.010690
1684.000000	0.011107
1683.000000	0.011475
1682.000000	0.011706
1681.000000	0.011940
1680.000000	0.012230
1679.000000	0.012500
1678.000000	0.012711
1677.000000	0.012945
1676.000000	0.013300
1675.000000	0.013732
1674.000000	0.014095
1673.000000	0.014356
1672.000000	0.014611
1671.000000	0.014940
1670.000000	0.015356
1669.000000	0.015828
1668.000000	0.016266
1667.000000	0.016601
1666.000000	0.016862
1665.000000	0.017137
1664.000000	0.017495
1663.000000	0.017913
1662.000000	0.018299
1661.000000	0.018617
1660.000000	0.018894
1659.000000	0.019148
1658.000000	0.019356
1657.000000	0.019488
1656.000000	0.019544
1655.000000	0.019594
1654.000000	0.019769
1653.000000	0.020133
1652.000000	0.020448
1651.000000	0.020516
1650.000000	0.020503
1649.000000	0.020559
1648.000000	0.020690
1647.000000	0.020840
1646.000000	0.020941
1645.000000	0.020981
1644.000000	0.020996
1643.000000	0.021005
1642.000000	0.021008
1641.000000	0.021008
1640.000000	0.020990
1639.000000	0.020928
1638.000000	0.020829
1637.000000	0.020745
1636.000000	0.020728
1635.000000	0.020749
1634.000000	0.020733
1633.000000	0.020665
1632.000000	0.020592
1631.000000	0.020507
1630.000000	0.020389
1629.000000	0.020245
1628.000000	0.020087
1627.000000	0.019904
1626.000000	0.019686
1625.000000	0.019456
1624.000000	0.019240
1623.000000	0.019033
1622.000000	0.018810
1621.000000	0.018561
1620.000000	0.018287
1619.000000	0.017994
1618.000000	0.017677
1617.000000	0.017340
1616.000000	0.017002
1615.000000	0.016682
1614.000000	0.016398
1613.000000	0.016161
1612.000000	0.015947
1611.000000	0.015724
1610.000000	0.015484
1609.000000	0.015253
1608.000000	0.015051
1607.000000	0.014877
1606.000000	0.014729
1605.000000	0.014602
1604.000000	0.014481
1603.000000	0.014361
1602.000000	0.014252
1601.000000	0.014153
1600.000000	0.014056
1599.000000	0.013952
1598.000000	0.013854
1597.000000	0.013776
1596.000000	0.013718
1595.000000	0.013675
1594.000000	0.013641
1593.000000	0.013613
1592.000000	0.013584
1591.000000	0.013558
1590.000000	0.013546
1589.000000	0.013558
1588.000000	0.013588
1587.000000	0.013631
1586.000000	0.013688
1585.000000	0.013767
1584.000000	0.013867
1583.000000	0.013989
1582.000000	0.014142
1581.000000	0.014308
1580.000000	0.014434
1579.000000	0.014503
1578.000000	0.014566
1577.000000	0.014691
1576.000000	0.014886
1575.000000	0.015064
1574.000000	0.015159
1573.000000	0.015201
1572.000000	0.015237
1571.000000	0.015300
1570.000000	0.015410
1569.000000	0.015547
1568.000000	0.015661
1567.000000	0.015755
1566.000000	0.015897
1565.000000	0.016105
1564.000000	0.016306
1563.000000	0.016409
1562.000000	0.016425
1561.000000	0.016461
1560.000000	0.016684
1559.000000	0.017152
1558.000000	0.017612
1557.000000	0.017863
1556.000000	0.018042
1555.000000	0.018290
1554.000000	0.018587
1553.000000	0.018849
1552.000000	0.019049
1551.000000	0.019253
1550.000000	0.019488
1549.000000	0.019707
1548.000000	0.019866
1547.000000	0.019991
1546.000000	0.020151
1545.000000	0.020349
1544.000000	0.020509
1543.000000	0.020573
1542.000000	0.020571
1541.000000	0.020575
1540.000000	0.020620
1539.000000	0.020649
1538.000000	0.020602
1537.000000	0.020495
1536.000000	0.020377
1535.000000	0.020247
1534.000000	0.020102
1533.000000	0.019954
1532.000000	0.019805
1531.000000	0.019661
1530.000000	0.019538
1529.000000	0.019450
1528.000000	0.019382
1527.000000	0.019298
1526.000000	0.019179
1525.000000	0.019037
1524.000000	0.018889
1523.000000	0.018756
1522.000000	0.018674
1521.000000	0.018665
1520.000000	0.018680
1519.000000	0.018684
1518.000000	0.018726
1517.000000	0.018824
1516.000000	0.018906
1515.000000	0.018897
1514.000000	0.018833
1513.000000	0.018800
1512.000000	0.018812
1511.000000	0.018813
1510.000000	0.018761
1509.000000	0.018679
1508.000000	0.018582
1507.000000	0.018460
1506.000000	0.018391
1505.000000	0.018446
1504.000000	0.018563
1503.000000	0.018698
1502.000000	0.018824
1501.000000	0.018924
1500.000000	0.018993
1499.000000	0.019040
1498.000000	0.019108
1497.000000	0.019245
1496.000000	0.019437
1495.000000	0.019608
1494.000000	0.019739
1493.000000	0.019882
1492.000000	0.020067
1491.000000	0.020265
1490.000000	0.020438
1489.000000	0.020602
1488.000000	0.020790
1487.000000	0.021002
1486.000000	0.021233
1485.000000	0.021507
1484.000000	0.021822
1483.000000	0.022152
1482.000000	0.022498
1481.000000	0.022862
1480.000000	0.023229
1479.000000	0.023592
1478.000000	0.023985
1477.000000	0.024435
1476.000000	0.024907
1475.000000	0.025343
1474.000000	0.025770
1473.000000	0.026271
1472.000000	0.026827
1471.000000	0.027345
1470.000000	0.027807
1469.000000	0.028257
1468.000000	0.028699
1467.000000	0.029102
1466.000000	0.029461
1465.000000	0.029813
1464.000000	0.030151
1463.000000	0.030454
1462.000000	0.030737
1461.000000	0.031030
1460.000000	0.031326
1459.000000	0.031602
1458.000000	0.031893
1457.000000	0.032265
1456.000000	0.032675
1455.000000	0.033036
1454.000000	0.033390
1453.000000	0.033784
1452.000000	0.034168
1451.000000	0.034487
1450.000000	0.034764
1449.000000	0.035056
1448.000000	0.035360
1447.000000	0.035627
1446.000000	0.035863
1445.000000	0.036111
1444.000000	0.036368
1443.000000	0.036612
1442.000000	0.036848
1441.000000	0.037088
1440.000000	0.037321
1439.000000	0.037542
1438.000000	0.037770
1437.000000	0.038008
1436.000000	0.038205
1435.000000	0.038337
1434.000000	0.038469
1433.000000	0.038643
1432.000000	0.038818
1431.000000	0.038936
1430.000000	0.039017
1429.000000	0.039122
1428.000000	0.039267
1427.000000	0.039419
1426.000000	0.039561
1425.000000	0.039682
1424.000000	0.039737
1423.000000	0.039732
1422.000000	0.039730
1421.000000	0.039761
1420.000000	0.039753
1419.000000	0.039629
1418.000000	0.039446
1417.000000	0.039301
1416.000000	0.039179
1415.000000	0.039019
1414.000000	0.038805
1413.000000	0.038546
1412.000000	0.038230
1411.000000	0.037858
1410.000000	0.037469
1409.000000	0.037089
1408.000000	0.036696
1407.000000	0.036258
1406.000000	0.035778
1405.000000	0.035289
1404.000000	0.034823
1403.000000	0.034424
1402.000000	0.034119
1401.000000	0.033876
1400.000000	0.033619
1399.000000	0.033305
1398.000000	0.032959
1397.000000	0.032591
1396.000000	0.032156
1395.000000	0.031655
1394.000000	0.031207
1393.000000	0.030911
1392.000000	0.030728
1391.000000	0.030569
1390.000000	0.030382
1389.000000	0.030136
1388.000000	0.029803
1387.000000	0.029392
1386.000000	0.028971
1385.000000	0.028597
1384.000000	0.028258
1383.000000	0.027922
1382.000000	0.027585
1381.000000	0.027259
1380.000000	0.026945
1379.000000	0.026630
1378.000000	0.026309
1377.000000	0.025978
1376.000000	0.025622
1375.000000	0.025228
1374.000000	0.024819
1373.000000	0.024436
1372.000000	0.024097
1371.000000	0.023792
1370.000000	0.023509
1369.000000	0.023226
1368.000000	0.022923
1367.000000	0.022601
1366.000000	0.022280
1365.000000	0.021966
1364.000000	0.021646
1363.000000	0.021318
1362.000000	0.021004
1361.000000	0.020718
1360.000000	0.020454
1359.000000	0.020205
1358.000000	0.019976
1357.000000	0.019768
1356.000000	0.019571
1355.000000	0.019381
1354.000000	0.019209
1353.000000	0.019058
1352.000000	0.018924
1351.000000	0.018806
1350.000000	0.018709
1349.000000	0.018640
1348.000000	0.018603
1347.000000	0.018604
1346.000000	0.018644
1345.000000	0.018699
1344.000000	0.018736
1343.000000	0.018744
1342.000000	0.018733
1341.000000	0.018721
1340.000000	0.018712
1339.000000	0.018708
1338.000000	0.018715
1337.000000	0.018728
1336.000000	0.018734
1335.000000	0.018717
1334.000000	0.018666
1333.000000	0.018573
1332.000000	0.018445
1331.000000	0.018300
1330.000000	0.018155
1329.000000	0.018010
1328.000000	0.017862
1327.000000	0.017719
1326.000000	0.017590
1325.000000	0.017475
1324.000000	0.017361
1323.000000	0.017248
1322.000000	0.017141
1321.000000	0.017034
1320.000000	0.016916
1319.000000	0.016785
1318.000000	0.016649
1317.000000	0.016515
1316.000000	0.016382
1315.000000	0.016248
1314.000000	0.016110
1313.000000	0.015958
1312.000000	0.015791
1311.000000	0.015619
1310.000000	0.015450
1309.000000	0.015277
1308.000000	0.015090
1307.000000	0.014898
1306.000000	0.014719
1305.000000	0.014565
1304.000000	0.014428
1303.000000	0.014303
1302.000000	0.014185
1301.000000	0.014067
1300.000000	0.013947
1299.000000	0.013831
1298.000000	0.013727
1297.000000	0.013635
1296.000000	0.013553
1295.000000	0.013488
1294.000000	0.013436
1293.000000	0.013378
1292.000000	0.013303
1291.000000	0.013222
1290.000000	0.013157
1289.000000	0.013112
1288.000000	0.013078
1287.000000	0.013052
1286.000000	0.013035
1285.000000	0.013026
1284.000000	0.013017
1283.000000	0.013006
1282.000000	0.012994
1281.000000	0.012977
1280.000000	0.012960
1279.000000	0.012954
1278.000000	0.012964
1277.000000	0.012979
1276.000000	0.012993
1275.000000	0.013019
1274.000000	0.013077
1273.000000	0.013165
1272.000000	0.013273
1271.000000	0.013396
1270.000000	0.013542
1269.000000	0.013710
1268.000000	0.013890
1267.000000	0.014076
1266.000000	0.014261
1265.000000	0.014435
1264.000000	0.014590
1263.000000	0.014728
1262.000000	0.014862
1261.000000	0.014995
1260.000000	0.015122
1259.000000	0.015244
1258.000000	0.015369
1257.000000	0.015491
1256.000000	0.015592
1255.000000	0.015655
1254.000000	0.015679
1253.000000	0.015674
1252.000000	0.015666
1251.000000	0.015682
1250.000000	0.015740
1249.000000	0.015827
1248.000000	0.015921
1247.000000	0.016012
1246.000000	0.016106
1245.000000	0.016195
1244.000000	0.016264
1243.000000	0.016314
1242.000000	0.016374
1241.000000	0.016463
1240.000000	0.016567
1239.000000	0.016648
1238.000000	0.016679
1237.000000	0.016657
1236.000000	0.016591
1235.000000	0.016496
1234.000000	0.016386
1233.000000	0.016269
1232.000000	0.016142
1231.000000	0.015993
1230.000000	0.015817
1229.000000	0.015617
1228.000000	0.015406
1227.000000	0.015198
1226.000000	0.014997
1225.000000	0.014795
1224.000000	0.014577
1223.000000	0.014335
1222.000000	0.014076
1221.000000	0.013815
1220.000000	0.013569
1219.000000	0.013352
1218.000000	0.013168
1217.000000	0.013013
1216.000000	0.012886
1215.000000	0.012797
1214.000000	0.012753
1213.000000	0.012747
1212.000000	0.012754
1211.000000	0.012755
1210.000000	0.012750
1209.000000	0.012750
1208.000000	0.012774
1207.000000	0.012830
1206.000000	0.012915
1205.000000	0.013008
1204.000000	0.013090
1203.000000	0.013157
1202.000000	0.013209
1201.000000	0.013242
1200.000000	0.013245
1199.000000	0.013221
1198.000000	0.013182
1197.000000	0.013148
1196.000000	0.013129
1195.000000	0.013123
1194.000000	0.013117
1193.000000	0.013095
1192.000000	0.013060
1191.000000	0.013033
1190.000000	0.013040
1189.000000	0.013080
1188.000000	0.013138
1187.000000	0.013204
1186.000000	0.013283
1185.000000	0.013387
1184.000000	0.013514
1183.000000	0.013655
1182.000000	0.013805
1181.000000	0.013968
1180.000000	0.014145
1179.000000	0.014337
1178.000000	0.014543
1177.000000	0.014763
1176.000000	0.014992
1175.000000	0.015224
1174.000000	0.015455
1173.000000	0.015685
1172.000000	0.015915
1171.000000	0.016146
1170.000000	0.016372
1169.000000	0.016591
1168.000000	0.016803
1167.000000	0.017012
1166.000000	0.017215
1165.000000	0.017400
1164.000000	0.017557
1163.000000	0.017683
1162.000000	0.017781
1161.000000	0.017859
1160.000000	0.017922
1159.000000	0.017971
1158.000000	0.018004
1157.000000	0.018011
1156.000000	0.017991
1155.000000	0.017956
1154.000000	0.017918
1153.000000	0.017873
1152.000000	0.017797
1151.000000	0.017679
1150.000000	0.017535
1149.000000	0.017385
1148.000000	0.017235
1147.000000	0.017077
1146.000000	0.016906
1145.000000	0.016730
1144.000000	0.016564
1143.000000	0.016415
1142.000000	0.016281
1141.000000	0.016155
1140.000000	0.016037
1139.000000	0.015934
1138.000000	0.015849
1137.000000	0.015776
1136.000000	0.015711
1135.000000	0.015661
1134.000000	0.015639
1133.000000	0.015641
1132.000000	0.015650
1131.000000	0.015668
1130.000000	0.015717
1129.000000	0.015812
1128.000000	0.015939
1127.000000	0.016072
1126.000000	0.016202
1125.000000	0.016341
1124.000000	0.016494
1123.000000	0.016653
1122.000000	0.016802
1121.000000	0.016938
1120.000000	0.017064
1119.000000	0.017192
1118.000000	0.017329
1117.000000	0.017474
1116.000000	0.017625
1115.000000	0.017785
1114.000000	0.017965
1113.000000	0.018173
1112.000000	0.018398
1111.000000	0.018616
1110.000000	0.018799
1109.000000	0.018938
1108.000000	0.019043
1107.000000	0.019131
1106.000000	0.019214
1105.000000	0.019282
1104.000000	0.019322
1103.000000	0.019334
1102.000000	0.019334
1101.000000	0.019335
1100.000000	0.019333
1099.000000	0.019323
1098.000000	0.019312
1097.000000	0.019310
1096.000000	0.019309
1095.000000	0.019291
1094.000000	0.019250
1093.000000	0.019189
1092.000000	0.019110
1091.000000	0.019007
1090.000000	0.018877
1089.000000	0.018729
1088.000000	0.018578
1087.000000	0.018427
1086.000000	0.018271
1085.000000	0.018102
1084.000000	0.017917
1083.000000	0.017724
1082.000000	0.017535
1081.000000	0.017353
1080.000000	0.017164
1079.000000	0.016959
1078.000000	0.016748
1077.000000	0.016559
1076.000000	0.016415
1075.000000	0.016316
1074.000000	0.016242
1073.000000	0.016176
1072.000000	0.016118
1071.000000	0.016071
1070.000000	0.016018
1069.000000	0.015939
1068.000000	0.015840
1067.000000	0.015777
1066.000000	0.015817
1065.000000	0.015973
1064.000000	0.016188
1063.000000	0.016387
1062.000000	0.016523
1061.000000	0.016588
1060.000000	0.016597
1059.000000	0.016581
1058.000000	0.016584
1057.000000	0.016642
1056.000000	0.016748
1055.000000	0.016866
1054.000000	0.016973
1053.000000	0.017077
1052.000000	0.017199
1051.000000	0.017336
1050.000000	0.017467
1049.000000	0.017581
1048.000000	0.017683
1047.000000	0.017788
1046.000000	0.017908
1045.000000	0.018047
1044.000000	0.018208
1043.000000	0.018388
1042.000000	0.018584
1041.000000	0.018789
1040.000000	0.018992
1039.000000	0.019192
1038.000000	0.019403
1037.000000	0.019654
1036.000000	0.019955
1035.000000	0.020279
1034.000000	0.020581
1033.000000	0.020830
1032.000000	0.021014
1031.000000	0.021116
1030.000000	0.021118
1029.000000	0.021038
1028.000000	0.020939
1027.000000	0.020888
1026.000000	0.020890
1025.000000	0.020895
1024.000000	0.020849
1023.000000	0.020745
1022.000000	0.020612
1021.000000	0.020481
1020.000000	0.020367
1019.000000	0.020276
1018.000000	0.020204
1017.000000	0.020136
1016.000000	0.020064
1015.000000	0.019995
1014.000000	0.019949
1013.000000	0.019921
1012.000000	0.019887
1011.000000	0.019826
1010.000000	0.019737
1009.000000	0.019626
1008.000000	0.019485
1007.000000	0.019312
1006.000000	0.019121
1005.000000	0.018934
1004.000000	0.018759
1003.000000	0.018590
1002.000000	0.018414
1001.000000	0.018224
1000.000000	0.018014
999.000000	0.017786
998.000000	0.017541
997.000000	0.017283
996.000000	0.017023
995.000000	0.016782
994.000000	0.016580
993.000000	0.016417
992.000000	0.016270
991.000000	0.016109
990.000000	0.015922
989.000000	0.015715
988.000000	0.015496
987.000000	0.015272
986.000000	0.015051
985.000000	0.014844
984.000000	0.014663
983.000000	0.014508
982.000000	0.014364
981.000000	0.014211
980.000000	0.014045
979.000000	0.013884
978.000000	0.013749
977.000000	0.013643
976.000000	0.013554
975.000000	0.013471
974.000000	0.013384
973.000000	0.013284
972.000000	0.013157
971.000000	0.013005
970.000000	0.012841
969.000000	0.012681
968.000000	0.012525
967.000000	0.012362
966.000000	0.012187
965.000000	0.012002
964.000000	0.011819
963.000000	0.011647
962.000000	0.011484
961.000000	0.011325
960.000000	0.011166
959.000000	0.011004
958.000000	0.010836
957.000000	0.010652
956.000000	0.010450
955.000000	0.010240
954.000000	0.010042
953.000000	0.009865
952.000000	0.009700
951.000000	0.009528
950.000000	0.009334
949.000000	0.009121
948.000000	0.008915
947.000000	0.008743
946.000000	0.008612
945.000000	0.008503
944.000000	0.008392
943.000000	0.008267
942.000000	0.008133
941.000000	0.008006
940.000000	0.007895
939.000000	0.007796
938.000000	0.007696
937.000000	0.007584
936.000000	0.007464
935.000000	0.007349
934.000000	0.007237
933.000000	0.007111
932.000000	0.006964
931.000000	0.006812
930.000000	0.006681
929.000000	0.006576
928.000000	0.006487
927.000000	0.006402
926.000000	0.006316
925.000000	0.006222
924.000000	0.006124
923.000000	0.006029
922.000000	0.005949
921.000000	0.005885
920.000000	0.005828
919.000000	0.005766
918.000000	0.005695
917.000000	0.005616
916.000000	0.005533
915.000000	0.005444
914.000000	0.005340
913.000000	0.005219
912.000000	0.005092
911.000000	0.004971
910.000000	0.004853
909.000000	0.004720
908.000000	0.004561
907.000000	0.004392
906.000000	0.004228
905.000000	0.004072
904.000000	0.003922
903.000000	0.003785
902.000000	0.003664
901.000000	0.003555
900.000000	0.003446
899.000000	0.003340
898.000000	0.003252
897.000000	0.003192
896.000000	0.003160
895.000000	0.003144
894.000000	0.003122
893.000000	0.003089
892.000000	0.003059
891.000000	0.003057
890.000000	0.003095
889.000000	0.003189
888.000000	0.003387
887.000000	0.003777
886.000000	0.004430
885.000000	0.005349
884.000000	0.006491
883.000000	0.007817
882.000000	0.009338
881.000000	0.011105
880.000000	0.013146
879.000000	0.015398
878.000000	0.017676
877.000000	0.019723
876.000000	0.021285
875.000000	0.022163
874.000000	0.022216
873.000000	0.021386
872.000000	0.019744
871.000000	0.017527
870.000000	0.015107
869.000000	0.012846
868.000000	0.010975
867.000000	0.009546
866.000000	0.008480
865.000000	0.007648
864.000000	0.006954
863.000000	0.006359
862.000000	0.005856
861.000000	0.005440
860.000000	0.005096
859.000000	0.004814
858.000000	0.004581
857.000000	0.004381
856.000000	0.004201
855.000000	0.004038
854.000000	0.003903
853.000000	0.003813
852.000000	0.003794
851.000000	0.003868
850.000000	0.004015
849.000000	0.004164
848.000000	0.004230
847.000000	0.004176
846.000000	0.004030
845.000000	0.003858
844.000000	0.003716
843.000000	0.003626
842.000000	0.003571
841.000000	0.003521
840.000000	0.003458
839.000000	0.003393
838.000000	0.003339
837.000000	0.003296
836.000000	0.003262
835.000000	0.003241
834.000000	0.003237
833.000000	0.003241
832.000000	0.003239
831.000000	0.003223
830.000000	0.003199
829.000000	0.003173
828.000000	0.003149
827.000000	0.003128
826.000000	0.003113
825.000000	0.003102
824.000000	0.003094
823.000000	0.003095
822.000000	0.003112
821.000000	0.003146
820.000000	0.003184
819.000000	0.003212
818.000000	0.003217
817.000000	0.003198
816.000000	0.003170
815.000000	0.003140
814.000000	0.003107
813.000000	0.003076
812.000000	0.003066
811.000000	0.003092
810.000000	0.003136
809.000000	0.003173
808.000000	0.003205
807.000000	0.003258
806.000000	0.003342
805.000000	0.003442
804.000000	0.003546
803.000000	0.003665
802.000000	0.003794
801.000000	0.003897
800.000000	0.003940
799.000000	0.003933
798.000000	0.003913
797.000000	0.003906
796.000000	0.003907
795.000000	0.003902
794.000000	0.003881
793.000000	0.003844
792.000000	0.003795
791.000000	0.003738
790.000000	0.003680
789.000000	0.003636
788.000000	0.003630
787.000000	0.003665
786.000000	0.003709
785.000000	0.003722
784.000000	0.003706
783.000000	0.003699
782.000000	0.003729
781.000000	0.003781
780.000000	0.003819
779.000000	0.003823
778.000000	0.003794
777.000000	0.003743
776.000000	0.003692
775.000000	0.003664
774.000000	0.003653
773.000000	0.003618
772.000000	0.003530
771.000000	0.003409
770.000000	0.003313
769.000000	0.003271
768.000000	0.003267
767.000000	0.003268
766.000000	0.003256
765.000000	0.003236
764.000000	0.003218
763.000000	0.003213
762.000000	0.003223
761.000000	0.003249
760.000000	0.003292
759.000000	0.003341
758.000000	0.003376
757.000000	0.003379
756.000000	0.003347
755.000000	0.003298
754.000000	0.003255
753.000000	0.003244
752.000000	0.003278
751.000000	0.003340
750.000000	0.003386
749.000000	0.003385
748.000000	0.003359
747.000000	0.003350
746.000000	0.003362
745.000000	0.003362
744.000000	0.003330
743.000000	0.003288
742.000000	0.003251
741.000000	0.003203
740.000000	0.003131
739.000000	0.003061
738.000000	0.003030
737.000000	0.003049
736.000000	0.003094
735.000000	0.003147
734.000000	0.003202
733.000000	0.003262
732.000000	0.003332
731.000000	0.003405
730.000000	0.003459
729.000000	0.003479
728.000000	0.003483
727.000000	0.003495
726.000000	0.003521
725.000000	0.003552
724.000000	0.003590
723.000000	0.003648
722.000000	0.003725
721.000000	0.003815
720.000000	0.003934
719.000000	0.004127
718.000000	0.004446
717.000000	0.004953
716.000000	0.005717
715.000000	0.006732
714.000000	0.007805
713.000000	0.008584
712.000000	0.008787
711.000000	0.008410
710.000000	0.007705
709.000000	0.006974
708.000000	0.006412
707.000000	0.006068
706.000000	0.005902
705.000000	0.005848
704.000000	0.005852
703.000000	0.005893
702.000000	0.005955
701.000000	0.006002
700.000000	0.006012
699.000000	0.006011
698.000000	0.006057
697.000000	0.006185
696.000000	0.006360
695.000000	0.006527
694.000000	0.006638
693.000000	0.006673
692.000000	0.006654
691.000000	0.006618
690.000000	0.006592
689.000000	0.006581
688.000000	0.006589
687.000000	0.006637
686.000000	0.006708
685.000000	0.006741
684.000000	0.006706
683.000000	0.006644
682.000000	0.006607
681.000000	0.006599
680.000000	0.006613
679.000000	0.006656
678.000000	0.006717
677.000000	0.006779
676.000000	0.006848
675.000000	0.006930
674.000000	0.006983
673.000000	0.006947
672.000000	0.006818
671.000000	0.006630
670.000000	0.006400
669.000000	0.006096
668.000000	0.005929
667.000000	0.005976
666.000000	0.005897
665.000000	0.005780
664.000000	0.005766
663.000000	0.005759
662.000000	0.005688
661.000000	0.005548
660.000000	0.005405
659.000000	0.005286
658.000000	0.005191
657.000000	0.005136
656.000000	0.005107
655.000000	0.005043
654.000000	0.004937
653.000000	0.004879
652.000000	0.004914
651.000000	0.004972
650.000000	0.004976
649.000000	0.004939
648.000000	0.004918
647.000000	0.004939
646.000000	0.005024
645.000000	0.005181
644.000000	0.005359
643.000000	0.005472
642.000000	0.005504
641.000000	0.005526
640.000000	0.005586
639.000000	0.005637
638.000000	0.005622
637.000000	0.005557
636.000000	0.005492
635.000000	0.005450
634.000000	0.005439
633.000000	0.005465
632.000000	0.005515
631.000000	0.005555
630.000000	0.005566
629.000000	0.005564
628.000000	0.005564
627.000000	0.005563
626.000000	0.005578
625.000000	0.005637
624.000000	0.005731
623.000000	0.005819
622.000000	0.005876
621.000000	0.005908
620.000000	0.005934
619.000000	0.005988
618.000000	0.006114
617.000000	0.006309
616.000000	0.006484
615.000000	0.006555
614.000000	0.006541
613.000000	0.006531
612.000000	0.006574
611.000000	0.006652
610.000000	0.006768
609.000000	0.006960
608.000000	0.007220
607.000000	0.007482
606.000000	0.007701
605.000000	0.007876
604.000000	0.007984
603.000000	0.007969
602.000000	0.007819
601.000000	0.007593
600.000000	0.007346
599.000000	0.007078
598.000000	0.006766
597.000000	0.006406
596.000000	0.006012
595.000000	0.005624
594.000000	0.005312
593.000000	0.005130
592.000000	0.005053
591.000000	0.004998
590.000000	0.004918
589.000000	0.004828
588.000000	0.004745
587.000000	0.004672
586.000000	0.004632
585.000000	0.004649
584.000000	0.004691
583.000000	0.004687
582.000000	0.004625
581.000000	0.004567
580.000000	0.004557
579.000000	0.004576
578.000000	0.004589
577.000000	0.004593
576.000000	0.004596
575.000000	0.004606
574.000000	0.004657
573.000000	0.004776
572.000000	0.004907
571.000000	0.004956
570.000000	0.004920
569.000000	0.004920
568.000000	0.005057
567.000000	0.005310
566.000000	0.005598
565.000000	0.005860
564.000000	0.006034
563.000000	0.006063
562.000000	0.005981
561.000000	0.005925
560.000000	0.005983
559.000000	0.006104
558.000000	0.006194
557.000000	0.006232
556.000000	0.006237
555.000000	0.006214
554.000000	0.006192
553.000000	0.006234
552.000000	0.006347
551.000000	0.006456
550.000000	0.006532
549.000000	0.006653
548.000000	0.006860
547.000000	0.007045
546.000000	0.007093
545.000000	0.007051
544.000000	0.007037
543.000000	0.007053
542.000000	0.007037
541.000000	0.007023
540.000000	0.007106
539.000000	0.007250
538.000000	0.007312
537.000000	0.007258
536.000000	0.007219
535.000000	0.007291
534.000000	0.007401
533.000000	0.007436
532.000000	0.007409
531.000000	0.007419
530.000000	0.007503
529.000000	0.007585
528.000000	0.007567
527.000000	0.007426
526.000000	0.007242
525.000000	0.007121
524.000000	0.007081
523.000000	0.007057
522.000000	0.006990
521.000000	0.006868
520.000000	0.006686
519.000000	0.006435
518.000000	0.006155
517.000000	0.005936
516.000000	0.005821
515.000000	0.005757
514.000000	0.005680
513.000000	0.005580
512.000000	0.005460
511.000000	0.005315
510.000000	0.005176
509.000000	0.005103
508.000000	0.005094
507.000000	0.005062
506.000000	0.004968
505.000000	0.004897
504.000000	0.004931
503.000000	0.005007
502.000000	0.004978
501.000000	0.004802
500.000000	0.004588
499.000000	0.004460
498.000000	0.004468
497.000000	0.004581
496.000000	0.004708
495.000000	0.004775
494.000000	0.004813
493.000000	0.004917
492.000000	0.005082
491.000000	0.005181
490.000000	0.005183
489.000000	0.005276
488.000000	0.005663
487.000000	0.006298
486.000000	0.006939
485.000000	0.007401
484.000000	0.007690
483.000000	0.007881
482.000000	0.008016
481.000000	0.008129
480.000000	0.008249
479.000000	0.008362
478.000000	0.008445
477.000000	0.008519
476.000000	0.008624
475.000000	0.008753
474.000000	0.008882
473.000000	0.009017
472.000000	0.009135
471.000000	0.009145
470.000000	0.009002
469.000000	0.008802
468.000000	0.008667
467.000000	0.008615
466.000000	0.008577
465.000000	0.008480
464.000000	0.008214
463.000000	0.007650
462.000000	0.006874
461.000000	0.006255
460.000000	0.006087
459.000000	0.006243
458.000000	0.006248
457.000000	0.005789
456.000000	0.005060
455.000000	0.004406
454.000000	0.003990
453.000000	0.003787
452.000000	0.003651
451.000000	0.003366
450.000000	0.002883
