PE UV       SUBTECH     SPECTRUM    ASCII       PEDS        4.00        
   -1
GGRAG10_2.Sample.asc
23/09/07
15:02:45.00
23/09/07
15:02:45.00
Administrator

250.000000
1
Lambda 750
750N8071901
PerkinElmer UV WinLab 6.0.4.0738 / 1.61.00 Lambda 900

0
0
3350/servo 860.8/2
0
0
UV/VIS
1
1
1
CommonBeamDepol,150mm sphere / downward view
0
0
0
0
Program
Program
3350/servo 860.8/2
3350/0.2 860.8/0.2
3350/0.2 860.8/0.2
0
1
 
 
 
0
 
860.8
319.2
860.8
Front
100
on
 
 
0
0
0
 
0
 
 
 
0
 
 
0
0
0
0
0
 
 
 
 
0
0


0
0
#HDR
-1
-1
#GR
nm
%R
1.0
0.0
2500.000000
-10.000000
226
8
79.319052
3.909639
#DATA
2500.000000	27.556951
2490.000000	27.113980
2480.000000	29.023529
2470.000000	27.715392
2460.000000	29.034571
2450.000000	29.582933
2440.000000	32.123776
2430.000000	31.036924
2420.000000	31.324519
2410.000000	32.496824
2400.000000	32.168897
2390.000000	32.559755
2380.000000	33.681463
2370.000000	32.642618
2360.000000	32.724347
2350.000000	33.929820
2340.000000	32.896980
2330.000000	31.857616
2320.000000	32.207492
2310.000000	31.525776
2300.000000	30.884141
2290.000000	31.776380
2280.000000	34.426185
2270.000000	35.255494
2260.000000	36.210289
2250.000000	37.729938
2240.000000	37.796060
2230.000000	37.171027
2220.000000	37.705496
2210.000000	36.348341
2200.000000	36.065322
2190.000000	36.496940
2180.000000	37.569450
2170.000000	38.330222
2160.000000	39.318811
2150.000000	40.236900
2140.000000	40.988900
2130.000000	41.087185
2120.000000	40.713335
2110.000000	41.176456
2100.000000	40.093637
2090.000000	39.705361
2080.000000	38.594713
2070.000000	36.848949
2060.000000	36.689341
2050.000000	36.834264
2040.000000	37.327466
2030.000000	37.284440
2020.000000	36.242692
2010.000000	35.424619
2000.000000	34.383719
1990.000000	33.295238
1980.000000	32.002202
1970.000000	31.406382
1960.000000	31.147080
1950.000000	31.805194
1940.000000	32.978015
1930.000000	35.941867
1920.000000	40.031022
1910.000000	45.300828
1900.000000	50.140028
1890.000000	54.327165
1880.000000	56.969047
1870.000000	57.780979
1860.000000	58.037511
1850.000000	57.700290
1840.000000	57.490821
1830.000000	57.028725
1820.000000	56.490045
1810.000000	56.339319
1800.000000	55.970180
1790.000000	55.399705
1780.000000	54.862260
1770.000000	54.521611
1760.000000	53.979116
1750.000000	53.427358
1740.000000	53.606074
1730.000000	54.953039
1720.000000	55.832455
1710.000000	56.464011
1700.000000	57.644924
1690.000000	59.640091
1680.000000	61.215811
1670.000000	61.889574
1660.000000	62.035625
1650.000000	61.679535
1640.000000	61.163704
1630.000000	60.520968
1620.000000	59.731632
1610.000000	58.943934
1600.000000	58.262181
1590.000000	57.690723
1580.000000	57.093064
1570.000000	56.697965
1560.000000	56.124205
1550.000000	55.182869
1540.000000	54.350815
1530.000000	53.855563
1520.000000	53.492999
1510.000000	53.278713
1500.000000	53.223761
1490.000000	53.304005
1480.000000	53.556571
1470.000000	53.941629
1460.000000	54.700338
1450.000000	55.836270
1440.000000	57.387374
1430.000000	59.645332
1420.000000	62.580925
1410.000000	65.644324
1400.000000	68.087557
1390.000000	69.716412
1380.000000	70.639471
1370.000000	71.495817
1360.000000	72.457216
1350.000000	73.282017
1340.000000	73.732994
1330.000000	74.335937
1320.000000	74.839241
1310.000000	75.148891
1300.000000	75.099106
1290.000000	74.971869
1280.000000	75.085427
1270.000000	75.001570
1260.000000	74.882116
1250.000000	74.659566
1240.000000	74.367009
1230.000000	73.949164
1220.000000	73.423248
1210.000000	73.133120
1200.000000	73.137057
1190.000000	73.647793
1180.000000	74.508710
1170.000000	75.521577
1160.000000	76.302119
1150.000000	77.050365
1140.000000	77.532027
1130.000000	77.771326
1120.000000	77.825208
1110.000000	77.888064
1100.000000	77.917315
1090.000000	77.786843
1080.000000	77.743805
1070.000000	77.663504
1060.000000	77.603371
1050.000000	77.622760
1040.000000	77.577407
1030.000000	77.442413
1020.000000	77.429582
1010.000000	77.680971
1000.000000	77.790626
990.000000	77.889721
980.000000	78.045391
970.000000	78.198174
960.000000	78.411068
950.000000	78.471183
940.000000	78.434979
930.000000	78.573592
920.000000	78.499430
910.000000	78.757130
900.000000	78.858167
890.000000	78.714810
880.000000	79.319052
870.000000	78.837985
860.000000	79.025464
850.000000	79.089784
840.000000	78.573911
830.000000	78.550485
820.000000	78.565823
810.000000	78.634627
800.000000	78.711179
790.000000	78.261907
780.000000	78.439216
770.000000	78.208102
760.000000	77.945934
750.000000	77.724373
740.000000	77.682799
730.000000	77.599681
720.000000	77.259777
710.000000	77.060600
700.000000	76.816819
690.000000	76.491090
680.000000	76.072950
670.000000	75.638480
660.000000	75.297660
650.000000	74.835448
640.000000	74.351995
630.000000	73.795815
620.000000	73.095726
610.000000	72.465686
600.000000	71.789797
590.000000	71.137841
580.000000	70.386664
570.000000	69.534185
560.000000	68.727104
550.000000	67.816598
540.000000	66.905079
530.000000	65.898274
520.000000	64.990760
510.000000	63.985180
500.000000	62.985552
490.000000	61.874156
480.000000	60.555252
470.000000	59.284126
460.000000	57.791778
450.000000	56.196331
440.000000	54.306232
430.000000	51.965860
420.000000	49.924463
410.000000	47.450404
400.000000	45.087294
390.000000	42.631711
380.000000	40.013545
370.000000	37.213641
360.000000	34.352166
350.000000	31.513773
340.000000	28.704753
330.000000	25.289265
320.000000	23.076770
310.000000	20.575937
300.000000	16.013175
290.000000	10.249591
280.000000	6.375094
270.000000	5.008323
260.000000	4.470820
250.000000	3.909639
