PE UV       SUBTECH     SPECTRUM    ASCII       PEDS        4.00        
   -1
Ams1556142.Sample.asc
18/03/23
17:28:30.00
18/03/23
17:28:30.00
Administrator

200.000000
1
Lambda 750
750N8071901
PerkinElmer UV WinLab 6.0.4.0738 / 1.61.00 Lambda 900

0
0
3350/servo 860.8/2
0
0
UV/VIS
1
1
1
CommonBeamDepol,150mm sphere / downward view
0
0
0
0
Program
Program
3350/servo 860.8/2
3350/0.2 860.8/0.2
3350/0.2 860.8/0.2
0
1
 
 
 
0
 
860.8
319.2
860.8
Front
100
on
 
 
0
0
0
 
0
 
 
 
0
 
 
0
0
0
0
0
 
 
 
 
0
0


0
0
#HDR
-1
-1
#GR
nm
A
1.0
0.0
2350.000000
-1.000000
2151
8
0.999278
0.068152
#DATA
2350.000000	0.278732
2349.000000	0.274672
2348.000000	0.276802
2347.000000	0.270981
2346.000000	0.278048
2345.000000	0.273924
2344.000000	0.275372
2343.000000	0.276973
2342.000000	0.275389
2341.000000	0.276769
2340.000000	0.272151
2339.000000	0.271708
2338.000000	0.271099
2337.000000	0.270349
2336.000000	0.269097
2335.000000	0.268243
2334.000000	0.267952
2333.000000	0.267395
2332.000000	0.268802
2331.000000	0.271622
2330.000000	0.270449
2329.000000	0.268025
2328.000000	0.272578
2327.000000	0.271451
2326.000000	0.267059
2325.000000	0.270632
2324.000000	0.273601
2323.000000	0.272573
2322.000000	0.273906
2321.000000	0.273669
2320.000000	0.273895
2319.000000	0.275906
2318.000000	0.273448
2317.000000	0.275269
2316.000000	0.275719
2315.000000	0.274435
2314.000000	0.277845
2313.000000	0.278492
2312.000000	0.277317
2311.000000	0.280123
2310.000000	0.282172
2309.000000	0.281729
2308.000000	0.280187
2307.000000	0.284805
2306.000000	0.283969
2305.000000	0.284699
2304.000000	0.284809
2303.000000	0.286560
2302.000000	0.286376
2301.000000	0.286656
2300.000000	0.287353
2299.000000	0.290058
2298.000000	0.290098
2297.000000	0.290087
2296.000000	0.291106
2295.000000	0.293454
2294.000000	0.291920
2293.000000	0.293743
2292.000000	0.296639
2291.000000	0.296773
2290.000000	0.297421
2289.000000	0.296938
2288.000000	0.297698
2287.000000	0.297514
2286.000000	0.299352
2285.000000	0.300251
2284.000000	0.299736
2283.000000	0.299591
2282.000000	0.299517
2281.000000	0.300369
2280.000000	0.300888
2279.000000	0.299038
2278.000000	0.299702
2277.000000	0.300574
2276.000000	0.298752
2275.000000	0.297127
2274.000000	0.296984
2273.000000	0.296143
2272.000000	0.294928
2271.000000	0.295558
2270.000000	0.295459
2269.000000	0.293354
2268.000000	0.293414
2267.000000	0.291984
2266.000000	0.291335
2265.000000	0.290383
2264.000000	0.288311
2263.000000	0.286887
2262.000000	0.284988
2261.000000	0.283194
2260.000000	0.281034
2259.000000	0.279901
2258.000000	0.278928
2257.000000	0.277287
2256.000000	0.275803
2255.000000	0.272634
2254.000000	0.270787
2253.000000	0.268350
2252.000000	0.264882
2251.000000	0.262970
2250.000000	0.261205
2249.000000	0.258992
2248.000000	0.257980
2247.000000	0.255434
2246.000000	0.252627
2245.000000	0.250577
2244.000000	0.248086
2243.000000	0.246702
2242.000000	0.245452
2241.000000	0.244746
2240.000000	0.242872
2239.000000	0.240562
2238.000000	0.239549
2237.000000	0.237348
2236.000000	0.234835
2235.000000	0.234619
2234.000000	0.235116
2233.000000	0.235231
2232.000000	0.234466
2231.000000	0.233771
2230.000000	0.232992
2229.000000	0.231863
2228.000000	0.231283
2227.000000	0.231257
2226.000000	0.232544
2225.000000	0.232518
2224.000000	0.232531
2223.000000	0.232398
2222.000000	0.231763
2221.000000	0.233925
2220.000000	0.233489
2219.000000	0.232855
2218.000000	0.234699
2217.000000	0.234911
2216.000000	0.233937
2215.000000	0.235489
2214.000000	0.235706
2213.000000	0.236620
2212.000000	0.237348
2211.000000	0.237859
2210.000000	0.238969
2209.000000	0.240628
2208.000000	0.240459
2207.000000	0.240082
2206.000000	0.240823
2205.000000	0.241270
2204.000000	0.241860
2203.000000	0.242217
2202.000000	0.243664
2201.000000	0.244953
2200.000000	0.244571
2199.000000	0.245283
2198.000000	0.246359
2197.000000	0.246679
2196.000000	0.247839
2195.000000	0.247875
2194.000000	0.249367
2193.000000	0.250938
2192.000000	0.251372
2191.000000	0.251244
2190.000000	0.251707
2189.000000	0.252447
2188.000000	0.253659
2187.000000	0.254750
2186.000000	0.255041
2185.000000	0.256047
2184.000000	0.256240
2183.000000	0.254883
2182.000000	0.256722
2181.000000	0.256152
2180.000000	0.256552
2179.000000	0.255856
2178.000000	0.256782
2177.000000	0.254991
2176.000000	0.257793
2175.000000	0.256192
2174.000000	0.255010
2173.000000	0.255254
2172.000000	0.256254
2171.000000	0.254990
2170.000000	0.254487
2169.000000	0.254335
2168.000000	0.251768
2167.000000	0.251799
2166.000000	0.250895
2165.000000	0.249840
2164.000000	0.249652
2163.000000	0.249090
2162.000000	0.246363
2161.000000	0.245978
2160.000000	0.242042
2159.000000	0.241387
2158.000000	0.242715
2157.000000	0.241120
2156.000000	0.237176
2155.000000	0.235305
2154.000000	0.235527
2153.000000	0.231859
2152.000000	0.233028
2151.000000	0.231155
2150.000000	0.228951
2149.000000	0.229582
2148.000000	0.229317
2147.000000	0.226333
2146.000000	0.223586
2145.000000	0.222952
2144.000000	0.222087
2143.000000	0.220816
2142.000000	0.219275
2141.000000	0.216813
2140.000000	0.214816
2139.000000	0.215961
2138.000000	0.213425
2137.000000	0.213933
2136.000000	0.213375
2135.000000	0.211544
2134.000000	0.209701
2133.000000	0.209834
2132.000000	0.208746
2131.000000	0.209114
2130.000000	0.207970
2129.000000	0.206500
2128.000000	0.207979
2127.000000	0.206624
2126.000000	0.205932
2125.000000	0.204751
2124.000000	0.204821
2123.000000	0.204997
2122.000000	0.204740
2121.000000	0.202991
2120.000000	0.203669
2119.000000	0.204144
2118.000000	0.203314
2117.000000	0.203614
2116.000000	0.202935
2115.000000	0.201533
2114.000000	0.203528
2113.000000	0.203413
2112.000000	0.202730
2111.000000	0.203061
2110.000000	0.202892
2109.000000	0.202665
2108.000000	0.202604
2107.000000	0.201629
2106.000000	0.202647
2105.000000	0.201676
2104.000000	0.202199
2103.000000	0.203430
2102.000000	0.202130
2101.000000	0.201787
2100.000000	0.201318
2099.000000	0.202234
2098.000000	0.203105
2097.000000	0.203127
2096.000000	0.202736
2095.000000	0.203170
2094.000000	0.203069
2093.000000	0.203258
2092.000000	0.203086
2091.000000	0.202845
2090.000000	0.203759
2089.000000	0.203044
2088.000000	0.203562
2087.000000	0.203867
2086.000000	0.204471
2085.000000	0.205323
2084.000000	0.206561
2083.000000	0.206275
2082.000000	0.207524
2081.000000	0.207978
2080.000000	0.208196
2079.000000	0.209071
2078.000000	0.209937
2077.000000	0.211129
2076.000000	0.211800
2075.000000	0.213244
2074.000000	0.213937
2073.000000	0.214138
2072.000000	0.215570
2071.000000	0.216918
2070.000000	0.218245
2069.000000	0.220102
2068.000000	0.221022
2067.000000	0.221671
2066.000000	0.223462
2065.000000	0.224334
2064.000000	0.225450
2063.000000	0.227574
2062.000000	0.229319
2061.000000	0.230379
2060.000000	0.231454
2059.000000	0.233009
2058.000000	0.234888
2057.000000	0.236455
2056.000000	0.237758
2055.000000	0.238466
2054.000000	0.240031
2053.000000	0.241647
2052.000000	0.242906
2051.000000	0.244509
2050.000000	0.245470
2049.000000	0.246667
2048.000000	0.247606
2047.000000	0.248268
2046.000000	0.249220
2045.000000	0.250195
2044.000000	0.250336
2043.000000	0.250484
2042.000000	0.250653
2041.000000	0.250888
2040.000000	0.250997
2039.000000	0.250552
2038.000000	0.249592
2037.000000	0.249274
2036.000000	0.248753
2035.000000	0.247498
2034.000000	0.246765
2033.000000	0.246494
2032.000000	0.245609
2031.000000	0.244506
2030.000000	0.243692
2029.000000	0.242620
2028.000000	0.242091
2027.000000	0.241340
2026.000000	0.240162
2025.000000	0.239641
2024.000000	0.239039
2023.000000	0.238625
2022.000000	0.238211
2021.000000	0.237580
2020.000000	0.237215
2019.000000	0.236596
2018.000000	0.236758
2017.000000	0.237221
2016.000000	0.237088
2015.000000	0.237288
2014.000000	0.237738
2013.000000	0.237944
2012.000000	0.238390
2011.000000	0.238671
2010.000000	0.239174
2009.000000	0.240530
2008.000000	0.241568
2007.000000	0.242428
2006.000000	0.243641
2005.000000	0.243865
2004.000000	0.244764
2003.000000	0.246301
2002.000000	0.247509
2001.000000	0.248941
2000.000000	0.250372
1999.000000	0.251081
1998.000000	0.252100
1997.000000	0.253176
1996.000000	0.254192
1995.000000	0.255898
1994.000000	0.257506
1993.000000	0.258392
1992.000000	0.260098
1991.000000	0.261881
1990.000000	0.262815
1989.000000	0.263851
1988.000000	0.265123
1987.000000	0.266448
1986.000000	0.267620
1985.000000	0.268990
1984.000000	0.270155
1983.000000	0.271318
1982.000000	0.273076
1981.000000	0.274576
1980.000000	0.276009
1979.000000	0.276673
1978.000000	0.278099
1977.000000	0.279804
1976.000000	0.281521
1975.000000	0.282992
1974.000000	0.284119
1973.000000	0.285226
1972.000000	0.286270
1971.000000	0.287492
1970.000000	0.288999
1969.000000	0.290621
1968.000000	0.291537
1967.000000	0.292955
1966.000000	0.294317
1965.000000	0.295339
1964.000000	0.296631
1963.000000	0.297773
1962.000000	0.299345
1961.000000	0.300489
1960.000000	0.301578
1959.000000	0.302628
1958.000000	0.303844
1957.000000	0.304908
1956.000000	0.305749
1955.000000	0.307496
1954.000000	0.308183
1953.000000	0.309082
1952.000000	0.309581
1951.000000	0.310448
1950.000000	0.311336
1949.000000	0.311912
1948.000000	0.312019
1947.000000	0.312775
1946.000000	0.313443
1945.000000	0.313876
1944.000000	0.313088
1943.000000	0.313360
1942.000000	0.313493
1941.000000	0.313491
1940.000000	0.313510
1939.000000	0.312247
1938.000000	0.311228
1937.000000	0.310651
1936.000000	0.308627
1935.000000	0.308737
1934.000000	0.307348
1933.000000	0.305776
1932.000000	0.303646
1931.000000	0.301875
1930.000000	0.301034
1929.000000	0.298758
1928.000000	0.296540
1927.000000	0.294224
1926.000000	0.291412
1925.000000	0.289482
1924.000000	0.286019
1923.000000	0.282793
1922.000000	0.280829
1921.000000	0.277648
1920.000000	0.274946
1919.000000	0.271388
1918.000000	0.268195
1917.000000	0.264382
1916.000000	0.261153
1915.000000	0.256591
1914.000000	0.253596
1913.000000	0.249287
1912.000000	0.245249
1911.000000	0.241015
1910.000000	0.236691
1909.000000	0.232890
1908.000000	0.228164
1907.000000	0.224013
1906.000000	0.219322
1905.000000	0.214753
1904.000000	0.210414
1903.000000	0.205587
1902.000000	0.200786
1901.000000	0.196603
1900.000000	0.192330
1899.000000	0.187173
1898.000000	0.182839
1897.000000	0.178564
1896.000000	0.173779
1895.000000	0.170076
1894.000000	0.166032
1893.000000	0.162050
1892.000000	0.158342
1891.000000	0.154888
1890.000000	0.150781
1889.000000	0.148098
1888.000000	0.144393
1887.000000	0.141085
1886.000000	0.137983
1885.000000	0.135241
1884.000000	0.132677
1883.000000	0.129731
1882.000000	0.127624
1881.000000	0.124967
1880.000000	0.122908
1879.000000	0.120764
1878.000000	0.118393
1877.000000	0.116147
1876.000000	0.114726
1875.000000	0.112412
1874.000000	0.111341
1873.000000	0.110093
1872.000000	0.108431
1871.000000	0.107187
1870.000000	0.106087
1869.000000	0.105039
1868.000000	0.103909
1867.000000	0.103187
1866.000000	0.102524
1865.000000	0.101756
1864.000000	0.101179
1863.000000	0.100685
1862.000000	0.100049
1861.000000	0.099994
1860.000000	0.099586
1859.000000	0.099226
1858.000000	0.098711
1857.000000	0.098935
1856.000000	0.098339
1855.000000	0.098253
1854.000000	0.098010
1853.000000	0.097913
1852.000000	0.098023
1851.000000	0.098024
1850.000000	0.098072
1849.000000	0.097923
1848.000000	0.097558
1847.000000	0.097653
1846.000000	0.097622
1845.000000	0.097718
1844.000000	0.098318
1843.000000	0.098636
1842.000000	0.098683
1841.000000	0.098670
1840.000000	0.098810
1839.000000	0.098763
1838.000000	0.099068
1837.000000	0.099432
1836.000000	0.099703
1835.000000	0.100024
1834.000000	0.100425
1833.000000	0.100645
1832.000000	0.100922
1831.000000	0.101350
1830.000000	0.101543
1829.000000	0.101948
1828.000000	0.102287
1827.000000	0.102254
1826.000000	0.102519
1825.000000	0.102901
1824.000000	0.103082
1823.000000	0.103380
1822.000000	0.103802
1821.000000	0.103876
1820.000000	0.104192
1819.000000	0.104651
1818.000000	0.104732
1817.000000	0.104952
1816.000000	0.105290
1815.000000	0.105542
1814.000000	0.105819
1813.000000	0.106130
1812.000000	0.106423
1811.000000	0.106585
1810.000000	0.106896
1809.000000	0.106958
1808.000000	0.107185
1807.000000	0.107709
1806.000000	0.107815
1805.000000	0.107997
1804.000000	0.108433
1803.000000	0.108665
1802.000000	0.108972
1801.000000	0.109286
1800.000000	0.109470
1799.000000	0.109798
1798.000000	0.110173
1797.000000	0.110248
1796.000000	0.110477
1795.000000	0.110787
1794.000000	0.110716
1793.000000	0.110805
1792.000000	0.111220
1791.000000	0.111468
1790.000000	0.111535
1789.000000	0.111747
1788.000000	0.111812
1787.000000	0.112084
1786.000000	0.112352
1785.000000	0.112579
1784.000000	0.112808
1783.000000	0.113076
1782.000000	0.113192
1781.000000	0.113447
1780.000000	0.113754
1779.000000	0.113959
1778.000000	0.114437
1777.000000	0.114797
1776.000000	0.115080
1775.000000	0.115417
1774.000000	0.115667
1773.000000	0.115967
1772.000000	0.116315
1771.000000	0.116749
1770.000000	0.117062
1769.000000	0.117360
1768.000000	0.117615
1767.000000	0.118010
1766.000000	0.118258
1765.000000	0.118703
1764.000000	0.118955
1763.000000	0.119305
1762.000000	0.119802
1761.000000	0.120004
1760.000000	0.120288
1759.000000	0.120409
1758.000000	0.120708
1757.000000	0.121039
1756.000000	0.121272
1755.000000	0.121698
1754.000000	0.122241
1753.000000	0.122615
1752.000000	0.122909
1751.000000	0.123128
1750.000000	0.123412
1749.000000	0.123729
1748.000000	0.124256
1747.000000	0.124683
1746.000000	0.124808
1745.000000	0.125313
1744.000000	0.125569
1743.000000	0.125945
1742.000000	0.126412
1741.000000	0.126640
1740.000000	0.127140
1739.000000	0.127370
1738.000000	0.127619
1737.000000	0.127824
1736.000000	0.128084
1735.000000	0.127851
1734.000000	0.128094
1733.000000	0.128188
1732.000000	0.128170
1731.000000	0.127930
1730.000000	0.128055
1729.000000	0.127854
1728.000000	0.127511
1727.000000	0.127136
1726.000000	0.127033
1725.000000	0.126387
1724.000000	0.126262
1723.000000	0.125723
1722.000000	0.125363
1721.000000	0.124754
1720.000000	0.123947
1719.000000	0.123529
1718.000000	0.122745
1717.000000	0.122024
1716.000000	0.121382
1715.000000	0.121268
1714.000000	0.120430
1713.000000	0.119904
1712.000000	0.119398
1711.000000	0.119051
1710.000000	0.118598
1709.000000	0.117996
1708.000000	0.117978
1707.000000	0.117652
1706.000000	0.116976
1705.000000	0.117262
1704.000000	0.117002
1703.000000	0.116871
1702.000000	0.116728
1701.000000	0.116788
1700.000000	0.116591
1699.000000	0.116688
1698.000000	0.116467
1697.000000	0.116291
1696.000000	0.115706
1695.000000	0.116005
1694.000000	0.115583
1693.000000	0.115259
1692.000000	0.115281
1691.000000	0.114742
1690.000000	0.114257
1689.000000	0.113885
1688.000000	0.113256
1687.000000	0.112756
1686.000000	0.111950
1685.000000	0.111566
1684.000000	0.110679
1683.000000	0.109898
1682.000000	0.109144
1681.000000	0.108267
1680.000000	0.107276
1679.000000	0.106519
1678.000000	0.105777
1677.000000	0.104796
1676.000000	0.103752
1675.000000	0.103065
1674.000000	0.102172
1673.000000	0.101244
1672.000000	0.100405
1671.000000	0.099571
1670.000000	0.098717
1669.000000	0.098185
1668.000000	0.097542
1667.000000	0.096811
1666.000000	0.096403
1665.000000	0.095916
1664.000000	0.095295
1663.000000	0.095076
1662.000000	0.094736
1661.000000	0.094202
1660.000000	0.094031
1659.000000	0.093649
1658.000000	0.093625
1657.000000	0.093533
1656.000000	0.093459
1655.000000	0.093159
1654.000000	0.093046
1653.000000	0.092871
1652.000000	0.092836
1651.000000	0.093044
1650.000000	0.092912
1649.000000	0.093085
1648.000000	0.093180
1647.000000	0.093149
1646.000000	0.093273
1645.000000	0.093623
1644.000000	0.093615
1643.000000	0.093734
1642.000000	0.093881
1641.000000	0.093940
1640.000000	0.094034
1639.000000	0.094272
1638.000000	0.094403
1637.000000	0.094719
1636.000000	0.095025
1635.000000	0.095403
1634.000000	0.095637
1633.000000	0.095723
1632.000000	0.095809
1631.000000	0.096145
1630.000000	0.096463
1629.000000	0.096691
1628.000000	0.096976
1627.000000	0.097323
1626.000000	0.097525
1625.000000	0.097864
1624.000000	0.098032
1623.000000	0.098260
1622.000000	0.098639
1621.000000	0.098988
1620.000000	0.099341
1619.000000	0.099628
1618.000000	0.099879
1617.000000	0.100200
1616.000000	0.100628
1615.000000	0.101014
1614.000000	0.101441
1613.000000	0.101745
1612.000000	0.102011
1611.000000	0.102440
1610.000000	0.102887
1609.000000	0.103229
1608.000000	0.103538
1607.000000	0.103908
1606.000000	0.104381
1605.000000	0.104861
1604.000000	0.105130
1603.000000	0.105491
1602.000000	0.105924
1601.000000	0.106237
1600.000000	0.106688
1599.000000	0.107094
1598.000000	0.107418
1597.000000	0.107751
1596.000000	0.108088
1595.000000	0.108547
1594.000000	0.108888
1593.000000	0.109114
1592.000000	0.109418
1591.000000	0.109832
1590.000000	0.110166
1589.000000	0.110532
1588.000000	0.110987
1587.000000	0.111244
1586.000000	0.111458
1585.000000	0.111966
1584.000000	0.112352
1583.000000	0.112584
1582.000000	0.112908
1581.000000	0.113113
1580.000000	0.113377
1579.000000	0.113756
1578.000000	0.113979
1577.000000	0.114347
1576.000000	0.114666
1575.000000	0.114843
1574.000000	0.115198
1573.000000	0.115596
1572.000000	0.115801
1571.000000	0.116037
1570.000000	0.116355
1569.000000	0.116679
1568.000000	0.116939
1567.000000	0.117155
1566.000000	0.117409
1565.000000	0.117618
1564.000000	0.117855
1563.000000	0.117994
1562.000000	0.118173
1561.000000	0.118332
1560.000000	0.118562
1559.000000	0.118754
1558.000000	0.118853
1557.000000	0.119097
1556.000000	0.119203
1555.000000	0.119511
1554.000000	0.119769
1553.000000	0.119846
1552.000000	0.120032
1551.000000	0.120260
1550.000000	0.120552
1549.000000	0.120890
1548.000000	0.121099
1547.000000	0.121585
1546.000000	0.121877
1545.000000	0.122237
1544.000000	0.122689
1543.000000	0.123168
1542.000000	0.123537
1541.000000	0.124010
1540.000000	0.124672
1539.000000	0.125084
1538.000000	0.125719
1537.000000	0.126338
1536.000000	0.126862
1535.000000	0.127247
1534.000000	0.127936
1533.000000	0.128427
1532.000000	0.129136
1531.000000	0.129679
1530.000000	0.130196
1529.000000	0.130707
1528.000000	0.131267
1527.000000	0.131652
1526.000000	0.132232
1525.000000	0.132666
1524.000000	0.132996
1523.000000	0.133432
1522.000000	0.133870
1521.000000	0.134215
1520.000000	0.134604
1519.000000	0.134898
1518.000000	0.135179
1517.000000	0.135437
1516.000000	0.135702
1515.000000	0.136008
1514.000000	0.136347
1513.000000	0.136602
1512.000000	0.136722
1511.000000	0.136966
1510.000000	0.137218
1509.000000	0.137521
1508.000000	0.137511
1507.000000	0.137900
1506.000000	0.137905
1505.000000	0.138089
1504.000000	0.138153
1503.000000	0.138298
1502.000000	0.138493
1501.000000	0.138616
1500.000000	0.138728
1499.000000	0.138734
1498.000000	0.138845
1497.000000	0.138857
1496.000000	0.138895
1495.000000	0.138973
1494.000000	0.138927
1493.000000	0.138827
1492.000000	0.138963
1491.000000	0.138689
1490.000000	0.138488
1489.000000	0.138406
1488.000000	0.138250
1487.000000	0.138144
1486.000000	0.138033
1485.000000	0.137685
1484.000000	0.137699
1483.000000	0.137386
1482.000000	0.137140
1481.000000	0.136854
1480.000000	0.136599
1479.000000	0.136631
1478.000000	0.136325
1477.000000	0.136079
1476.000000	0.135843
1475.000000	0.135627
1474.000000	0.135407
1473.000000	0.135175
1472.000000	0.134857
1471.000000	0.134819
1470.000000	0.134742
1469.000000	0.134447
1468.000000	0.134263
1467.000000	0.134055
1466.000000	0.133759
1465.000000	0.133441
1464.000000	0.133305
1463.000000	0.133068
1462.000000	0.132933
1461.000000	0.132760
1460.000000	0.132535
1459.000000	0.132311
1458.000000	0.131938
1457.000000	0.131619
1456.000000	0.131262
1455.000000	0.131071
1454.000000	0.130768
1453.000000	0.130485
1452.000000	0.130238
1451.000000	0.129777
1450.000000	0.129442
1449.000000	0.129008
1448.000000	0.128670
1447.000000	0.128265
1446.000000	0.127895
1445.000000	0.127406
1444.000000	0.126957
1443.000000	0.126416
1442.000000	0.126084
1441.000000	0.125501
1440.000000	0.124969
1439.000000	0.124571
1438.000000	0.123919
1437.000000	0.123422
1436.000000	0.122860
1435.000000	0.122160
1434.000000	0.121711
1433.000000	0.121103
1432.000000	0.120318
1431.000000	0.119602
1430.000000	0.118908
1429.000000	0.118285
1428.000000	0.117425
1427.000000	0.116635
1426.000000	0.115903
1425.000000	0.115079
1424.000000	0.114211
1423.000000	0.113304
1422.000000	0.112412
1421.000000	0.111481
1420.000000	0.110540
1419.000000	0.109620
1418.000000	0.108478
1417.000000	0.107602
1416.000000	0.106722
1415.000000	0.105594
1414.000000	0.104524
1413.000000	0.103483
1412.000000	0.102542
1411.000000	0.101568
1410.000000	0.100472
1409.000000	0.099449
1408.000000	0.098332
1407.000000	0.097280
1406.000000	0.096168
1405.000000	0.095191
1404.000000	0.094327
1403.000000	0.093319
1402.000000	0.092328
1401.000000	0.091480
1400.000000	0.090597
1399.000000	0.089663
1398.000000	0.088790
1397.000000	0.087987
1396.000000	0.087192
1395.000000	0.086437
1394.000000	0.085713
1393.000000	0.084896
1392.000000	0.084096
1391.000000	0.083342
1390.000000	0.082755
1389.000000	0.082236
1388.000000	0.081501
1387.000000	0.080904
1386.000000	0.080475
1385.000000	0.079952
1384.000000	0.079471
1383.000000	0.079018
1382.000000	0.078532
1381.000000	0.078159
1380.000000	0.077919
1379.000000	0.077529
1378.000000	0.077172
1377.000000	0.076852
1376.000000	0.076562
1375.000000	0.076370
1374.000000	0.076140
1373.000000	0.075901
1372.000000	0.075644
1371.000000	0.075442
1370.000000	0.075279
1369.000000	0.075044
1368.000000	0.074864
1367.000000	0.074763
1366.000000	0.074608
1365.000000	0.074423
1364.000000	0.074210
1363.000000	0.074046
1362.000000	0.073826
1361.000000	0.073599
1360.000000	0.073441
1359.000000	0.073283
1358.000000	0.072996
1357.000000	0.072859
1356.000000	0.072687
1355.000000	0.072517
1354.000000	0.072522
1353.000000	0.072320
1352.000000	0.072175
1351.000000	0.072092
1350.000000	0.071793
1349.000000	0.071509
1348.000000	0.071380
1347.000000	0.071235
1346.000000	0.071029
1345.000000	0.070799
1344.000000	0.070763
1343.000000	0.070646
1342.000000	0.070528
1341.000000	0.070358
1340.000000	0.070135
1339.000000	0.069999
1338.000000	0.069925
1337.000000	0.069794
1336.000000	0.069637
1335.000000	0.069623
1334.000000	0.069548
1333.000000	0.069429
1332.000000	0.069292
1331.000000	0.068985
1330.000000	0.068958
1329.000000	0.068987
1328.000000	0.068914
1327.000000	0.068850
1326.000000	0.068753
1325.000000	0.068797
1324.000000	0.068700
1323.000000	0.068503
1322.000000	0.068553
1321.000000	0.068583
1320.000000	0.068510
1319.000000	0.068536
1318.000000	0.068283
1317.000000	0.068263
1316.000000	0.068349
1315.000000	0.068346
1314.000000	0.068467
1313.000000	0.068414
1312.000000	0.068152
1311.000000	0.068371
1310.000000	0.068373
1309.000000	0.068277
1308.000000	0.068332
1307.000000	0.068290
1306.000000	0.068401
1305.000000	0.068360
1304.000000	0.068362
1303.000000	0.068362
1302.000000	0.068408
1301.000000	0.068552
1300.000000	0.068470
1299.000000	0.068486
1298.000000	0.068654
1297.000000	0.068671
1296.000000	0.068656
1295.000000	0.068838
1294.000000	0.068923
1293.000000	0.068975
1292.000000	0.068930
1291.000000	0.069088
1290.000000	0.069137
1289.000000	0.069252
1288.000000	0.069286
1287.000000	0.069309
1286.000000	0.069292
1285.000000	0.069380
1284.000000	0.069452
1283.000000	0.069447
1282.000000	0.069593
1281.000000	0.069589
1280.000000	0.069634
1279.000000	0.069752
1278.000000	0.069867
1277.000000	0.069796
1276.000000	0.069795
1275.000000	0.069953
1274.000000	0.069920
1273.000000	0.070031
1272.000000	0.070132
1271.000000	0.070029
1270.000000	0.070089
1269.000000	0.070274
1268.000000	0.070147
1267.000000	0.070043
1266.000000	0.070247
1265.000000	0.070295
1264.000000	0.070229
1263.000000	0.070227
1262.000000	0.070474
1261.000000	0.070299
1260.000000	0.070214
1259.000000	0.070407
1258.000000	0.070398
1257.000000	0.070443
1256.000000	0.070562
1255.000000	0.070562
1254.000000	0.070728
1253.000000	0.070776
1252.000000	0.070647
1251.000000	0.070790
1250.000000	0.070929
1249.000000	0.070903
1248.000000	0.070910
1247.000000	0.071093
1246.000000	0.071141
1245.000000	0.071292
1244.000000	0.071513
1243.000000	0.071751
1242.000000	0.071815
1241.000000	0.071813
1240.000000	0.071945
1239.000000	0.072089
1238.000000	0.072458
1237.000000	0.072496
1236.000000	0.072526
1235.000000	0.072640
1234.000000	0.072854
1233.000000	0.072929
1232.000000	0.072957
1231.000000	0.073194
1230.000000	0.073479
1229.000000	0.073451
1228.000000	0.073593
1227.000000	0.073752
1226.000000	0.073773
1225.000000	0.073956
1224.000000	0.074259
1223.000000	0.074314
1222.000000	0.074389
1221.000000	0.074543
1220.000000	0.074753
1219.000000	0.074862
1218.000000	0.074901
1217.000000	0.075011
1216.000000	0.075051
1215.000000	0.075231
1214.000000	0.075443
1213.000000	0.075614
1212.000000	0.075772
1211.000000	0.075936
1210.000000	0.076130
1209.000000	0.076300
1208.000000	0.076553
1207.000000	0.076707
1206.000000	0.076871
1205.000000	0.077000
1204.000000	0.077250
1203.000000	0.077285
1202.000000	0.077557
1201.000000	0.077817
1200.000000	0.077905
1199.000000	0.078101
1198.000000	0.078296
1197.000000	0.078529
1196.000000	0.078636
1195.000000	0.078672
1194.000000	0.078976
1193.000000	0.079154
1192.000000	0.079257
1191.000000	0.079410
1190.000000	0.079635
1189.000000	0.079809
1188.000000	0.079921
1187.000000	0.080082
1186.000000	0.080078
1185.000000	0.080094
1184.000000	0.080239
1183.000000	0.080171
1182.000000	0.080105
1181.000000	0.080125
1180.000000	0.080074
1179.000000	0.080020
1178.000000	0.079967
1177.000000	0.079945
1176.000000	0.079815
1175.000000	0.079655
1174.000000	0.079519
1173.000000	0.079398
1172.000000	0.079273
1171.000000	0.079108
1170.000000	0.078920
1169.000000	0.078753
1168.000000	0.078574
1167.000000	0.078402
1166.000000	0.078220
1165.000000	0.077988
1164.000000	0.077780
1163.000000	0.077607
1162.000000	0.077440
1161.000000	0.077258
1160.000000	0.077009
1159.000000	0.076743
1158.000000	0.076613
1157.000000	0.076518
1156.000000	0.076364
1155.000000	0.076109
1154.000000	0.075978
1153.000000	0.075868
1152.000000	0.075700
1151.000000	0.075544
1150.000000	0.075401
1149.000000	0.075275
1148.000000	0.075142
1147.000000	0.075090
1146.000000	0.075022
1145.000000	0.074922
1144.000000	0.074839
1143.000000	0.074672
1142.000000	0.074565
1141.000000	0.074511
1140.000000	0.074353
1139.000000	0.074319
1138.000000	0.074296
1137.000000	0.074287
1136.000000	0.074185
1135.000000	0.074077
1134.000000	0.074018
1133.000000	0.073917
1132.000000	0.073952
1131.000000	0.073902
1130.000000	0.073875
1129.000000	0.073874
1128.000000	0.073834
1127.000000	0.073888
1126.000000	0.073811
1125.000000	0.073775
1124.000000	0.073850
1123.000000	0.073922
1122.000000	0.073910
1121.000000	0.073836
1120.000000	0.073848
1119.000000	0.073976
1118.000000	0.074090
1117.000000	0.074156
1116.000000	0.074124
1115.000000	0.074118
1114.000000	0.074290
1113.000000	0.074300
1112.000000	0.074421
1111.000000	0.074497
1110.000000	0.074576
1109.000000	0.074657
1108.000000	0.074798
1107.000000	0.074882
1106.000000	0.074956
1105.000000	0.074974
1104.000000	0.075008
1103.000000	0.075052
1102.000000	0.075142
1101.000000	0.075181
1100.000000	0.075280
1099.000000	0.075352
1098.000000	0.075486
1097.000000	0.075547
1096.000000	0.075634
1095.000000	0.075623
1094.000000	0.075716
1093.000000	0.075740
1092.000000	0.075805
1091.000000	0.075999
1090.000000	0.076078
1089.000000	0.076129
1088.000000	0.076288
1087.000000	0.076306
1086.000000	0.076465
1085.000000	0.076545
1084.000000	0.076670
1083.000000	0.076706
1082.000000	0.076774
1081.000000	0.076835
1080.000000	0.076884
1079.000000	0.076886
1078.000000	0.077019
1077.000000	0.077293
1076.000000	0.077301
1075.000000	0.077419
1074.000000	0.077529
1073.000000	0.077603
1072.000000	0.077623
1071.000000	0.077847
1070.000000	0.077922
1069.000000	0.078041
1068.000000	0.078095
1067.000000	0.078252
1066.000000	0.078422
1065.000000	0.078353
1064.000000	0.078615
1063.000000	0.078544
1062.000000	0.078848
1061.000000	0.078845
1060.000000	0.078967
1059.000000	0.079017
1058.000000	0.079199
1057.000000	0.079317
1056.000000	0.079344
1055.000000	0.079506
1054.000000	0.079565
1053.000000	0.079766
1052.000000	0.079908
1051.000000	0.080044
1050.000000	0.080142
1049.000000	0.080230
1048.000000	0.080362
1047.000000	0.080333
1046.000000	0.080616
1045.000000	0.080547
1044.000000	0.080834
1043.000000	0.080875
1042.000000	0.080993
1041.000000	0.081096
1040.000000	0.081141
1039.000000	0.081294
1038.000000	0.081440
1037.000000	0.081613
1036.000000	0.081604
1035.000000	0.081794
1034.000000	0.081833
1033.000000	0.081955
1032.000000	0.082003
1031.000000	0.082133
1030.000000	0.082284
1029.000000	0.082409
1028.000000	0.082608
1027.000000	0.082542
1026.000000	0.082690
1025.000000	0.082786
1024.000000	0.082841
1023.000000	0.082963
1022.000000	0.082976
1021.000000	0.083035
1020.000000	0.083153
1019.000000	0.083259
1018.000000	0.083347
1017.000000	0.083517
1016.000000	0.083548
1015.000000	0.083695
1014.000000	0.083610
1013.000000	0.083774
1012.000000	0.083832
1011.000000	0.084014
1010.000000	0.084096
1009.000000	0.084142
1008.000000	0.084303
1007.000000	0.084383
1006.000000	0.084390
1005.000000	0.084376
1004.000000	0.084509
1003.000000	0.084589
1002.000000	0.084680
1001.000000	0.084872
1000.000000	0.084898
999.000000	0.084958
998.000000	0.085021
997.000000	0.085211
996.000000	0.085247
995.000000	0.085335
994.000000	0.085454
993.000000	0.085646
992.000000	0.085536
991.000000	0.085627
990.000000	0.085707
989.000000	0.085784
988.000000	0.085997
987.000000	0.086014
986.000000	0.086045
985.000000	0.086169
984.000000	0.086105
983.000000	0.086162
982.000000	0.086351
981.000000	0.086497
980.000000	0.086567
979.000000	0.086569
978.000000	0.086572
977.000000	0.086649
976.000000	0.086819
975.000000	0.086937
974.000000	0.087086
973.000000	0.087180
972.000000	0.087185
971.000000	0.087237
970.000000	0.087402
969.000000	0.087418
968.000000	0.087529
967.000000	0.087740
966.000000	0.087812
965.000000	0.087856
964.000000	0.087904
963.000000	0.087952
962.000000	0.088005
961.000000	0.088096
960.000000	0.088131
959.000000	0.088218
958.000000	0.088351
957.000000	0.088389
956.000000	0.088540
955.000000	0.088527
954.000000	0.088625
953.000000	0.088763
952.000000	0.088877
951.000000	0.088948
950.000000	0.088969
949.000000	0.089077
948.000000	0.089253
947.000000	0.089284
946.000000	0.089332
945.000000	0.089372
944.000000	0.089505
943.000000	0.089608
942.000000	0.089758
941.000000	0.089894
940.000000	0.090098
939.000000	0.090217
938.000000	0.090291
937.000000	0.090398
936.000000	0.090428
935.000000	0.090603
934.000000	0.090772
933.000000	0.090825
932.000000	0.090850
931.000000	0.090924
930.000000	0.091055
929.000000	0.091340
928.000000	0.091302
927.000000	0.091496
926.000000	0.091680
925.000000	0.091861
924.000000	0.092031
923.000000	0.092207
922.000000	0.092257
921.000000	0.092273
920.000000	0.092371
919.000000	0.092630
918.000000	0.092751
917.000000	0.092760
916.000000	0.092771
915.000000	0.092989
914.000000	0.093330
913.000000	0.093476
912.000000	0.093285
911.000000	0.093477
910.000000	0.093612
909.000000	0.093696
908.000000	0.093900
907.000000	0.094100
906.000000	0.094329
905.000000	0.094352
904.000000	0.094796
903.000000	0.094934
902.000000	0.094487
901.000000	0.094579
900.000000	0.094621
899.000000	0.094978
898.000000	0.095322
897.000000	0.095117
896.000000	0.095450
895.000000	0.095215
894.000000	0.095421
893.000000	0.095644
892.000000	0.095962
891.000000	0.096083
890.000000	0.095936
889.000000	0.096218
888.000000	0.095945
887.000000	0.096043
886.000000	0.096206
885.000000	0.096403
884.000000	0.097036
883.000000	0.097128
882.000000	0.097275
881.000000	0.097659
880.000000	0.097086
879.000000	0.097681
878.000000	0.097641
877.000000	0.098019
876.000000	0.097659
875.000000	0.097912
874.000000	0.098317
873.000000	0.098262
872.000000	0.098382
871.000000	0.098128
870.000000	0.098261
869.000000	0.098965
868.000000	0.099002
867.000000	0.099587
866.000000	0.099875
865.000000	0.099270
864.000000	0.099736
863.000000	0.099045
862.000000	0.099633
861.000000	0.100633
860.000000	0.099987
859.000000	0.096332
858.000000	0.096181
857.000000	0.096397
856.000000	0.093762
855.000000	0.097929
854.000000	0.093210
853.000000	0.096785
852.000000	0.096740
851.000000	0.097282
850.000000	0.097726
849.000000	0.099108
848.000000	0.096882
847.000000	0.097576
846.000000	0.097997
845.000000	0.097930
844.000000	0.098056
843.000000	0.098295
842.000000	0.097696
841.000000	0.099002
840.000000	0.099639
839.000000	0.098608
838.000000	0.098726
837.000000	0.098742
836.000000	0.099761
835.000000	0.099501
834.000000	0.101097
833.000000	0.100355
832.000000	0.100942
831.000000	0.101512
830.000000	0.101941
829.000000	0.102236
828.000000	0.101481
827.000000	0.102263
826.000000	0.102586
825.000000	0.103076
824.000000	0.102263
823.000000	0.103366
822.000000	0.103408
821.000000	0.103659
820.000000	0.103431
819.000000	0.104112
818.000000	0.103515
817.000000	0.104414
816.000000	0.104479
815.000000	0.105066
814.000000	0.104140
813.000000	0.105726
812.000000	0.105016
811.000000	0.105237
810.000000	0.106888
809.000000	0.104785
808.000000	0.106330
807.000000	0.104606
806.000000	0.105735
805.000000	0.107042
804.000000	0.106556
803.000000	0.106659
802.000000	0.107194
801.000000	0.107148
800.000000	0.106654
799.000000	0.107606
798.000000	0.107996
797.000000	0.109043
796.000000	0.108246
795.000000	0.108130
794.000000	0.109279
793.000000	0.109173
792.000000	0.110048
791.000000	0.109353
790.000000	0.109880
789.000000	0.110880
788.000000	0.110456
787.000000	0.110436
786.000000	0.110958
785.000000	0.111228
784.000000	0.111779
783.000000	0.111738
782.000000	0.111585
781.000000	0.112114
780.000000	0.112402
779.000000	0.113163
778.000000	0.113224
777.000000	0.113153
776.000000	0.113497
775.000000	0.114160
774.000000	0.114549
773.000000	0.114691
772.000000	0.115436
771.000000	0.114950
770.000000	0.115426
769.000000	0.115477
768.000000	0.115786
767.000000	0.116073
766.000000	0.116689
765.000000	0.116893
764.000000	0.117314
763.000000	0.117983
762.000000	0.118170
761.000000	0.118640
760.000000	0.118847
759.000000	0.119238
758.000000	0.119663
757.000000	0.120134
756.000000	0.119938
755.000000	0.120236
754.000000	0.120286
753.000000	0.120604
752.000000	0.121693
751.000000	0.122051
750.000000	0.122322
749.000000	0.122347
748.000000	0.122643
747.000000	0.123614
746.000000	0.124296
745.000000	0.124410
744.000000	0.124349
743.000000	0.124428
742.000000	0.124818
741.000000	0.125185
740.000000	0.125339
739.000000	0.126464
738.000000	0.126324
737.000000	0.126611
736.000000	0.127395
735.000000	0.128237
734.000000	0.128498
733.000000	0.128337
732.000000	0.128769
731.000000	0.129162
730.000000	0.129620
729.000000	0.130217
728.000000	0.130581
727.000000	0.130598
726.000000	0.130871
725.000000	0.131631
724.000000	0.132271
723.000000	0.133010
722.000000	0.133077
721.000000	0.133042
720.000000	0.133603
719.000000	0.134241
718.000000	0.134922
717.000000	0.135525
716.000000	0.135599
715.000000	0.135950
714.000000	0.136573
713.000000	0.137076
712.000000	0.137616
711.000000	0.137870
710.000000	0.138284
709.000000	0.138788
708.000000	0.139542
707.000000	0.139982
706.000000	0.140364
705.000000	0.140812
704.000000	0.141406
703.000000	0.141929
702.000000	0.142502
701.000000	0.143217
700.000000	0.143744
699.000000	0.144221
698.000000	0.144821
697.000000	0.145311
696.000000	0.145543
695.000000	0.146458
694.000000	0.147096
693.000000	0.147364
692.000000	0.148162
691.000000	0.148723
690.000000	0.149311
689.000000	0.150130
688.000000	0.150971
687.000000	0.151904
686.000000	0.152809
685.000000	0.153183
684.000000	0.153889
683.000000	0.154333
682.000000	0.155181
681.000000	0.156002
680.000000	0.156323
679.000000	0.156737
678.000000	0.157227
677.000000	0.157995
676.000000	0.158644
675.000000	0.159399
674.000000	0.159902
673.000000	0.160359
672.000000	0.161124
671.000000	0.161949
670.000000	0.162686
669.000000	0.163193
668.000000	0.164114
667.000000	0.164710
666.000000	0.165066
665.000000	0.165891
664.000000	0.167235
663.000000	0.167851
662.000000	0.168240
661.000000	0.168920
660.000000	0.169303
659.000000	0.170090
658.000000	0.171238
657.000000	0.171810
656.000000	0.172305
655.000000	0.173288
654.000000	0.173820
653.000000	0.174561
652.000000	0.175160
651.000000	0.176039
650.000000	0.177001
649.000000	0.177321
648.000000	0.178037
647.000000	0.178760
646.000000	0.179402
645.000000	0.180429
644.000000	0.181457
643.000000	0.182602
642.000000	0.183180
641.000000	0.183570
640.000000	0.184529
639.000000	0.185164
638.000000	0.186082
637.000000	0.186904
636.000000	0.187644
635.000000	0.188407
634.000000	0.189428
633.000000	0.190020
632.000000	0.190746
631.000000	0.191742
630.000000	0.192413
629.000000	0.193019
628.000000	0.194301
627.000000	0.194982
626.000000	0.195840
625.000000	0.196575
624.000000	0.197338
623.000000	0.198604
622.000000	0.199566
621.000000	0.200657
620.000000	0.201128
619.000000	0.201862
618.000000	0.203137
617.000000	0.203806
616.000000	0.205139
615.000000	0.206095
614.000000	0.206807
613.000000	0.207545
612.000000	0.208427
611.000000	0.209668
610.000000	0.210884
609.000000	0.211145
608.000000	0.212698
607.000000	0.213918
606.000000	0.214813
605.000000	0.215908
604.000000	0.216736
603.000000	0.217833
602.000000	0.218713
601.000000	0.220137
600.000000	0.221306
599.000000	0.222035
598.000000	0.223736
597.000000	0.224261
596.000000	0.225487
595.000000	0.226758
594.000000	0.227623
593.000000	0.228895
592.000000	0.229520
591.000000	0.230841
590.000000	0.232149
589.000000	0.233266
588.000000	0.234736
587.000000	0.235622
586.000000	0.236784
585.000000	0.238152
584.000000	0.239073
583.000000	0.240276
582.000000	0.241510
581.000000	0.242578
580.000000	0.244249
579.000000	0.245087
578.000000	0.246667
577.000000	0.248035
576.000000	0.248663
575.000000	0.250303
574.000000	0.251843
573.000000	0.252699
572.000000	0.254299
571.000000	0.256004
570.000000	0.256910
569.000000	0.258239
568.000000	0.259950
567.000000	0.261093
566.000000	0.262575
565.000000	0.264082
564.000000	0.265336
563.000000	0.266446
562.000000	0.268295
561.000000	0.269191
560.000000	0.270395
559.000000	0.271732
558.000000	0.273470
557.000000	0.275044
556.000000	0.276418
555.000000	0.278272
554.000000	0.279564
553.000000	0.280964
552.000000	0.282768
551.000000	0.284146
550.000000	0.285528
549.000000	0.287321
548.000000	0.289004
547.000000	0.290319
546.000000	0.292326
545.000000	0.293651
544.000000	0.295033
543.000000	0.296828
542.000000	0.298524
541.000000	0.300281
540.000000	0.302031
539.000000	0.303796
538.000000	0.305205
537.000000	0.307104
536.000000	0.308975
535.000000	0.310715
534.000000	0.312541
533.000000	0.314034
532.000000	0.315932
531.000000	0.317399
530.000000	0.319735
529.000000	0.321386
528.000000	0.322994
527.000000	0.324738
526.000000	0.326778
525.000000	0.328859
524.000000	0.330933
523.000000	0.332706
522.000000	0.334339
521.000000	0.336003
520.000000	0.338160
519.000000	0.340273
518.000000	0.342447
517.000000	0.344434
516.000000	0.346453
515.000000	0.348247
514.000000	0.349988
513.000000	0.351988
512.000000	0.353823
511.000000	0.355610
510.000000	0.357863
509.000000	0.359758
508.000000	0.361831
507.000000	0.363919
506.000000	0.365988
505.000000	0.367935
504.000000	0.370120
503.000000	0.371639
502.000000	0.373832
501.000000	0.376091
500.000000	0.377980
499.000000	0.379827
498.000000	0.382002
497.000000	0.383962
496.000000	0.386218
495.000000	0.388551
494.000000	0.390387
493.000000	0.392158
492.000000	0.394215
491.000000	0.396596
490.000000	0.398826
489.000000	0.401202
488.000000	0.403921
487.000000	0.405570
486.000000	0.407586
485.000000	0.409471
484.000000	0.411426
483.000000	0.413288
482.000000	0.415554
481.000000	0.418095
480.000000	0.420334
479.000000	0.422544
478.000000	0.424902
477.000000	0.426977
476.000000	0.429351
475.000000	0.431363
474.000000	0.433208
473.000000	0.435710
472.000000	0.437861
471.000000	0.439955
470.000000	0.442111
469.000000	0.444446
468.000000	0.446706
467.000000	0.449028
466.000000	0.451187
465.000000	0.453253
464.000000	0.455710
463.000000	0.458144
462.000000	0.460221
461.000000	0.462739
460.000000	0.465548
459.000000	0.467891
458.000000	0.470312
457.000000	0.472750
456.000000	0.475347
455.000000	0.478223
454.000000	0.480794
453.000000	0.483302
452.000000	0.485816
451.000000	0.488848
450.000000	0.491440
449.000000	0.493745
448.000000	0.496765
447.000000	0.500120
446.000000	0.502962
445.000000	0.504919
444.000000	0.507911
443.000000	0.510979
442.000000	0.514448
441.000000	0.517600
440.000000	0.520513
439.000000	0.524165
438.000000	0.527586
437.000000	0.530317
436.000000	0.533292
435.000000	0.536468
434.000000	0.540107
433.000000	0.543288
432.000000	0.546428
431.000000	0.550052
430.000000	0.553632
429.000000	0.557283
428.000000	0.560432
427.000000	0.563344
426.000000	0.566738
425.000000	0.570486
424.000000	0.573869
423.000000	0.577581
422.000000	0.581170
421.000000	0.584422
420.000000	0.587919
419.000000	0.591521
418.000000	0.595376
417.000000	0.599106
416.000000	0.602407
415.000000	0.605981
414.000000	0.609652
413.000000	0.613241
412.000000	0.617010
411.000000	0.620568
410.000000	0.624417
409.000000	0.627924
408.000000	0.631814
407.000000	0.635432
406.000000	0.639103
405.000000	0.642632
404.000000	0.646622
403.000000	0.650222
402.000000	0.654103
401.000000	0.658056
400.000000	0.662189
399.000000	0.666413
398.000000	0.670196
397.000000	0.673390
396.000000	0.677031
395.000000	0.681376
394.000000	0.685817
393.000000	0.688989
392.000000	0.693639
391.000000	0.697440
390.000000	0.701161
389.000000	0.705300
388.000000	0.709489
387.000000	0.713907
386.000000	0.717767
385.000000	0.723098
384.000000	0.726742
383.000000	0.731157
382.000000	0.734558
381.000000	0.739451
380.000000	0.744057
379.000000	0.747575
378.000000	0.752744
377.000000	0.755943
376.000000	0.760457
375.000000	0.763579
374.000000	0.768672
373.000000	0.772779
372.000000	0.777222
371.000000	0.781817
370.000000	0.785809
369.000000	0.790432
368.000000	0.792309
367.000000	0.795993
366.000000	0.802812
365.000000	0.805018
364.000000	0.807942
363.000000	0.812240
362.000000	0.816387
361.000000	0.820506
360.000000	0.823696
359.000000	0.828522
358.000000	0.831213
357.000000	0.835918
356.000000	0.839480
355.000000	0.841508
354.000000	0.844341
353.000000	0.848539
352.000000	0.852511
351.000000	0.858863
350.000000	0.859895
349.000000	0.865848
348.000000	0.869161
347.000000	0.867936
346.000000	0.876185
345.000000	0.877563
344.000000	0.882823
343.000000	0.884468
342.000000	0.889094
341.000000	0.892483
340.000000	0.892738
339.000000	0.899431
338.000000	0.904021
337.000000	0.906929
336.000000	0.912010
335.000000	0.915110
334.000000	0.915031
333.000000	0.922326
332.000000	0.923291
331.000000	0.921954
330.000000	0.927630
329.000000	0.935156
328.000000	0.937848
327.000000	0.937688
326.000000	0.940523
325.000000	0.944541
324.000000	0.947089
323.000000	0.952627
322.000000	0.948861
321.000000	0.954324
320.000000	0.955053
319.000000	0.954811
318.000000	0.953532
317.000000	0.956928
316.000000	0.952802
315.000000	0.956042
314.000000	0.962625
313.000000	0.959498
312.000000	0.961080
311.000000	0.966875
310.000000	0.968359
309.000000	0.967927
308.000000	0.969343
307.000000	0.968712
306.000000	0.973925
305.000000	0.973787
304.000000	0.974602
303.000000	0.973243
302.000000	0.975417
301.000000	0.980245
300.000000	0.979783
299.000000	0.978865
298.000000	0.979838
297.000000	0.984704
296.000000	0.983909
295.000000	0.987051
294.000000	0.987230
293.000000	0.990196
292.000000	0.989733
291.000000	0.991309
290.000000	0.993065
289.000000	0.994112
288.000000	0.994882
287.000000	0.997798
286.000000	0.998121
285.000000	0.999278
284.000000	0.999191
283.000000	0.998331
282.000000	0.996818
281.000000	0.998953
280.000000	0.998552
279.000000	0.998642
278.000000	0.995950
277.000000	0.995304
276.000000	0.992962
275.000000	0.992804
274.000000	0.989738
273.000000	0.986972
272.000000	0.988459
271.000000	0.987746
270.000000	0.986317
269.000000	0.982488
268.000000	0.981236
267.000000	0.979650
266.000000	0.975516
265.000000	0.972865
264.000000	0.971720
263.000000	0.968875
262.000000	0.965023
261.000000	0.965095
260.000000	0.961994
259.000000	0.957677
258.000000	0.956600
257.000000	0.951360
256.000000	0.946230
255.000000	0.943272
254.000000	0.941096
253.000000	0.938231
252.000000	0.933621
251.000000	0.930001
250.000000	0.927089
249.000000	0.923149
248.000000	0.917401
247.000000	0.914813
246.000000	0.914190
245.000000	0.911135
244.000000	0.907857
243.000000	0.905997
242.000000	0.904925
241.000000	0.905475
240.000000	0.905731
239.000000	0.905332
238.000000	0.905410
237.000000	0.907526
236.000000	0.906151
235.000000	0.905910
234.000000	0.908307
233.000000	0.907904
232.000000	0.907385
231.000000	0.907306
230.000000	0.906875
229.000000	0.907394
228.000000	0.912019
227.000000	0.914532
226.000000	0.912784
225.000000	0.912292
224.000000	0.907873
223.000000	0.905356
222.000000	0.905479
221.000000	0.904877
220.000000	0.901935
219.000000	0.901742
218.000000	0.900592
217.000000	0.891869
216.000000	0.888487
215.000000	0.888010
214.000000	0.887287
213.000000	0.882393
212.000000	0.875613
211.000000	0.870909
210.000000	0.863404
209.000000	0.859854
208.000000	0.854523
207.000000	0.842875
206.000000	0.832525
205.000000	0.821145
204.000000	0.809070
203.000000	0.798608
202.000000	0.790809
201.000000	0.772657
200.000000	0.755263
