PE UV       SUBTECH     SPECTRUM    ASCII       PEDS        4.00        
   -1
Ams1240122.Sample.asc
18/03/23
16:32:38.00
18/03/23
16:32:38.00
Administrator

200.000000
1
Lambda 750
750N8071901
PerkinElmer UV WinLab 6.0.4.0738 / 1.61.00 Lambda 900

0
0
3350/servo 860.8/2
0
0
UV/VIS
1
1
1
CommonBeamDepol,150mm sphere / downward view
0
0
0
0
Program
Program
3350/servo 860.8/2
3350/0.2 860.8/0.2
3350/0.2 860.8/0.2
0
1
 
 
 
0
 
860.8
319.2
860.8
Front
100
on
 
 
0
0
0
 
0
 
 
 
0
 
 
0
0
0
0
0
 
 
 
 
0
0


0
0
#HDR
-1
-1
#GR
nm
A
1.0
0.0
2350.000000
-1.000000
2151
8
1.005492
0.039752
#DATA
2350.000000	0.256475
2349.000000	0.258865
2348.000000	0.259466
2347.000000	0.257348
2346.000000	0.260759
2345.000000	0.261740
2344.000000	0.259634
2343.000000	0.261029
2342.000000	0.260028
2341.000000	0.258173
2340.000000	0.257930
2339.000000	0.254496
2338.000000	0.255731
2337.000000	0.256097
2336.000000	0.254176
2335.000000	0.251306
2334.000000	0.250454
2333.000000	0.251537
2332.000000	0.251602
2331.000000	0.252203
2330.000000	0.253492
2329.000000	0.254736
2328.000000	0.253048
2327.000000	0.254814
2326.000000	0.253981
2325.000000	0.255439
2324.000000	0.255597
2323.000000	0.252471
2322.000000	0.255242
2321.000000	0.257593
2320.000000	0.258690
2319.000000	0.256892
2318.000000	0.257195
2317.000000	0.258018
2316.000000	0.258647
2315.000000	0.260986
2314.000000	0.265576
2313.000000	0.263722
2312.000000	0.265056
2311.000000	0.264609
2310.000000	0.264308
2309.000000	0.264114
2308.000000	0.265812
2307.000000	0.268469
2306.000000	0.270608
2305.000000	0.270007
2304.000000	0.269360
2303.000000	0.271333
2302.000000	0.271735
2301.000000	0.272629
2300.000000	0.275904
2299.000000	0.275193
2298.000000	0.276026
2297.000000	0.278573
2296.000000	0.277916
2295.000000	0.278256
2294.000000	0.278102
2293.000000	0.281532
2292.000000	0.282255
2291.000000	0.282051
2290.000000	0.282139
2289.000000	0.284501
2288.000000	0.284260
2287.000000	0.283898
2286.000000	0.284837
2285.000000	0.283687
2284.000000	0.285157
2283.000000	0.287664
2282.000000	0.286697
2281.000000	0.284190
2280.000000	0.285226
2279.000000	0.285811
2278.000000	0.283745
2277.000000	0.285813
2276.000000	0.286751
2275.000000	0.285346
2274.000000	0.285126
2273.000000	0.284960
2272.000000	0.282524
2271.000000	0.279875
2270.000000	0.280114
2269.000000	0.279373
2268.000000	0.279731
2267.000000	0.277727
2266.000000	0.275859
2265.000000	0.275617
2264.000000	0.274039
2263.000000	0.271895
2262.000000	0.269894
2261.000000	0.268216
2260.000000	0.264812
2259.000000	0.262279
2258.000000	0.261435
2257.000000	0.259597
2256.000000	0.258132
2255.000000	0.256235
2254.000000	0.253747
2253.000000	0.251133
2252.000000	0.248905
2251.000000	0.245371
2250.000000	0.242583
2249.000000	0.241111
2248.000000	0.238931
2247.000000	0.236316
2246.000000	0.234100
2245.000000	0.231495
2244.000000	0.229064
2243.000000	0.227389
2242.000000	0.225899
2241.000000	0.225348
2240.000000	0.222812
2239.000000	0.219720
2238.000000	0.218518
2237.000000	0.216936
2236.000000	0.215164
2235.000000	0.214413
2234.000000	0.214460
2233.000000	0.215316
2232.000000	0.214663
2231.000000	0.212703
2230.000000	0.211748
2229.000000	0.211350
2228.000000	0.210909
2227.000000	0.210016
2226.000000	0.211807
2225.000000	0.212059
2224.000000	0.211302
2223.000000	0.212474
2222.000000	0.212764
2221.000000	0.212333
2220.000000	0.212595
2219.000000	0.213021
2218.000000	0.213669
2217.000000	0.214595
2216.000000	0.215045
2215.000000	0.215244
2214.000000	0.215601
2213.000000	0.215981
2212.000000	0.216596
2211.000000	0.217412
2210.000000	0.217642
2209.000000	0.218359
2208.000000	0.219178
2207.000000	0.219525
2206.000000	0.221073
2205.000000	0.222410
2204.000000	0.222847
2203.000000	0.223151
2202.000000	0.224522
2201.000000	0.224899
2200.000000	0.225409
2199.000000	0.226764
2198.000000	0.227255
2197.000000	0.228557
2196.000000	0.229451
2195.000000	0.230071
2194.000000	0.230767
2193.000000	0.232302
2192.000000	0.232386
2191.000000	0.233096
2190.000000	0.234136
2189.000000	0.235697
2188.000000	0.237081
2187.000000	0.236428
2186.000000	0.236897
2185.000000	0.236671
2184.000000	0.237340
2183.000000	0.237192
2182.000000	0.239612
2181.000000	0.240053
2180.000000	0.240338
2179.000000	0.240977
2178.000000	0.242230
2177.000000	0.239723
2176.000000	0.239449
2175.000000	0.239322
2174.000000	0.239450
2173.000000	0.239948
2172.000000	0.241214
2171.000000	0.238593
2170.000000	0.237451
2169.000000	0.239065
2168.000000	0.237119
2167.000000	0.235165
2166.000000	0.234532
2165.000000	0.233555
2164.000000	0.233629
2163.000000	0.231867
2162.000000	0.230242
2161.000000	0.227796
2160.000000	0.227493
2159.000000	0.225833
2158.000000	0.224745
2157.000000	0.223807
2156.000000	0.223433
2155.000000	0.219123
2154.000000	0.217379
2153.000000	0.216539
2152.000000	0.215789
2151.000000	0.214537
2150.000000	0.211924
2149.000000	0.212436
2148.000000	0.211222
2147.000000	0.209108
2146.000000	0.206889
2145.000000	0.205300
2144.000000	0.203515
2143.000000	0.203158
2142.000000	0.202334
2141.000000	0.199714
2140.000000	0.198823
2139.000000	0.197296
2138.000000	0.195268
2137.000000	0.196430
2136.000000	0.194470
2135.000000	0.194539
2134.000000	0.192320
2133.000000	0.191642
2132.000000	0.189723
2131.000000	0.190352
2130.000000	0.188562
2129.000000	0.188715
2128.000000	0.187404
2127.000000	0.186639
2126.000000	0.186982
2125.000000	0.185084
2124.000000	0.185739
2123.000000	0.184775
2122.000000	0.185450
2121.000000	0.183658
2120.000000	0.184080
2119.000000	0.184346
2118.000000	0.182970
2117.000000	0.183378
2116.000000	0.182417
2115.000000	0.180884
2114.000000	0.182789
2113.000000	0.183109
2112.000000	0.181570
2111.000000	0.182075
2110.000000	0.182418
2109.000000	0.181488
2108.000000	0.181656
2107.000000	0.180425
2106.000000	0.181046
2105.000000	0.181334
2104.000000	0.180107
2103.000000	0.181447
2102.000000	0.181751
2101.000000	0.180935
2100.000000	0.180483
2099.000000	0.180478
2098.000000	0.181640
2097.000000	0.181507
2096.000000	0.180399
2095.000000	0.181490
2094.000000	0.181148
2093.000000	0.180578
2092.000000	0.182093
2091.000000	0.182201
2090.000000	0.182588
2089.000000	0.182522
2088.000000	0.182591
2087.000000	0.182684
2086.000000	0.183213
2085.000000	0.183172
2084.000000	0.184650
2083.000000	0.185297
2082.000000	0.186158
2081.000000	0.185819
2080.000000	0.186454
2079.000000	0.187472
2078.000000	0.188370
2077.000000	0.189940
2076.000000	0.190516
2075.000000	0.191617
2074.000000	0.193504
2073.000000	0.194584
2072.000000	0.195145
2071.000000	0.195476
2070.000000	0.197124
2069.000000	0.198849
2068.000000	0.199880
2067.000000	0.200990
2066.000000	0.202519
2065.000000	0.203874
2064.000000	0.205124
2063.000000	0.206660
2062.000000	0.208706
2061.000000	0.209997
2060.000000	0.212007
2059.000000	0.213669
2058.000000	0.215084
2057.000000	0.216784
2056.000000	0.218175
2055.000000	0.219611
2054.000000	0.221525
2053.000000	0.222648
2052.000000	0.223925
2051.000000	0.225465
2050.000000	0.226412
2049.000000	0.227714
2048.000000	0.228530
2047.000000	0.229168
2046.000000	0.230374
2045.000000	0.231441
2044.000000	0.231610
2043.000000	0.232065
2042.000000	0.232248
2041.000000	0.231784
2040.000000	0.231852
2039.000000	0.231733
2038.000000	0.230752
2037.000000	0.229927
2036.000000	0.229580
2035.000000	0.228857
2034.000000	0.227840
2033.000000	0.227038
2032.000000	0.226088
2031.000000	0.224944
2030.000000	0.224038
2029.000000	0.223100
2028.000000	0.221958
2027.000000	0.220809
2026.000000	0.219591
2025.000000	0.218955
2024.000000	0.218464
2023.000000	0.218075
2022.000000	0.217372
2021.000000	0.216684
2020.000000	0.216293
2019.000000	0.216134
2018.000000	0.215934
2017.000000	0.215913
2016.000000	0.216202
2015.000000	0.216637
2014.000000	0.216632
2013.000000	0.217004
2012.000000	0.217831
2011.000000	0.218248
2010.000000	0.218626
2009.000000	0.219809
2008.000000	0.220862
2007.000000	0.221758
2006.000000	0.222984
2005.000000	0.223733
2004.000000	0.224505
2003.000000	0.226054
2002.000000	0.227395
2001.000000	0.228774
2000.000000	0.229882
1999.000000	0.230709
1998.000000	0.231474
1997.000000	0.233352
1996.000000	0.234497
1995.000000	0.235993
1994.000000	0.237463
1993.000000	0.238668
1992.000000	0.239957
1991.000000	0.241426
1990.000000	0.242821
1989.000000	0.244457
1988.000000	0.245776
1987.000000	0.247249
1986.000000	0.248649
1985.000000	0.250048
1984.000000	0.251447
1983.000000	0.253156
1982.000000	0.254463
1981.000000	0.255463
1980.000000	0.257139
1979.000000	0.258850
1978.000000	0.260443
1977.000000	0.261943
1976.000000	0.263361
1975.000000	0.265031
1974.000000	0.266168
1973.000000	0.267622
1972.000000	0.269165
1971.000000	0.270750
1970.000000	0.272101
1969.000000	0.273643
1968.000000	0.274853
1967.000000	0.276112
1966.000000	0.277912
1965.000000	0.279391
1964.000000	0.281067
1963.000000	0.282061
1962.000000	0.283652
1961.000000	0.284336
1960.000000	0.286068
1959.000000	0.287905
1958.000000	0.288969
1957.000000	0.289936
1956.000000	0.291623
1955.000000	0.292622
1954.000000	0.293342
1953.000000	0.294301
1952.000000	0.295717
1951.000000	0.296725
1950.000000	0.297065
1949.000000	0.297960
1948.000000	0.298425
1947.000000	0.298815
1946.000000	0.299406
1945.000000	0.300092
1944.000000	0.300170
1943.000000	0.300227
1942.000000	0.299614
1941.000000	0.300469
1940.000000	0.300022
1939.000000	0.298534
1938.000000	0.298313
1937.000000	0.297114
1936.000000	0.296200
1935.000000	0.296005
1934.000000	0.293684
1933.000000	0.292914
1932.000000	0.290656
1931.000000	0.288847
1930.000000	0.287408
1929.000000	0.284832
1928.000000	0.282941
1927.000000	0.279671
1926.000000	0.277434
1925.000000	0.273422
1924.000000	0.271094
1923.000000	0.267788
1922.000000	0.265032
1921.000000	0.261776
1920.000000	0.258399
1919.000000	0.254512
1918.000000	0.250706
1917.000000	0.246213
1916.000000	0.243601
1915.000000	0.239143
1914.000000	0.234699
1913.000000	0.230137
1912.000000	0.225828
1911.000000	0.221874
1910.000000	0.216998
1909.000000	0.212139
1908.000000	0.207779
1907.000000	0.202671
1906.000000	0.198098
1905.000000	0.193447
1904.000000	0.188024
1903.000000	0.184130
1902.000000	0.178801
1901.000000	0.173848
1900.000000	0.169117
1899.000000	0.164914
1898.000000	0.159517
1897.000000	0.155248
1896.000000	0.150788
1895.000000	0.146945
1894.000000	0.142733
1893.000000	0.138358
1892.000000	0.134327
1891.000000	0.130983
1890.000000	0.126908
1889.000000	0.123468
1888.000000	0.120223
1887.000000	0.117154
1886.000000	0.114491
1885.000000	0.111506
1884.000000	0.108890
1883.000000	0.106022
1882.000000	0.103847
1881.000000	0.101078
1880.000000	0.098696
1879.000000	0.096838
1878.000000	0.094353
1877.000000	0.091870
1876.000000	0.090537
1875.000000	0.088890
1874.000000	0.087586
1873.000000	0.086172
1872.000000	0.084416
1871.000000	0.083227
1870.000000	0.082267
1869.000000	0.080904
1868.000000	0.080183
1867.000000	0.079107
1866.000000	0.078785
1865.000000	0.077927
1864.000000	0.077296
1863.000000	0.076798
1862.000000	0.076373
1861.000000	0.076155
1860.000000	0.075712
1859.000000	0.075130
1858.000000	0.074968
1857.000000	0.074845
1856.000000	0.074596
1855.000000	0.074240
1854.000000	0.073929
1853.000000	0.073853
1852.000000	0.073983
1851.000000	0.073969
1850.000000	0.073907
1849.000000	0.073944
1848.000000	0.073630
1847.000000	0.073329
1846.000000	0.073530
1845.000000	0.073706
1844.000000	0.074072
1843.000000	0.074316
1842.000000	0.074308
1841.000000	0.074201
1840.000000	0.074539
1839.000000	0.074644
1838.000000	0.074758
1837.000000	0.075168
1836.000000	0.075447
1835.000000	0.075636
1834.000000	0.076056
1833.000000	0.076149
1832.000000	0.076570
1831.000000	0.076828
1830.000000	0.076948
1829.000000	0.077374
1828.000000	0.077675
1827.000000	0.077897
1826.000000	0.078128
1825.000000	0.078419
1824.000000	0.078546
1823.000000	0.078657
1822.000000	0.079083
1821.000000	0.079343
1820.000000	0.079501
1819.000000	0.079935
1818.000000	0.080164
1817.000000	0.080381
1816.000000	0.080504
1815.000000	0.080737
1814.000000	0.081182
1813.000000	0.081503
1812.000000	0.081679
1811.000000	0.081996
1810.000000	0.082192
1809.000000	0.082126
1808.000000	0.082363
1807.000000	0.082838
1806.000000	0.083001
1805.000000	0.083142
1804.000000	0.083406
1803.000000	0.083754
1802.000000	0.084124
1801.000000	0.084332
1800.000000	0.084364
1799.000000	0.084572
1798.000000	0.084946
1797.000000	0.085200
1796.000000	0.085425
1795.000000	0.085481
1794.000000	0.085479
1793.000000	0.085779
1792.000000	0.086096
1791.000000	0.086154
1790.000000	0.086274
1789.000000	0.086546
1788.000000	0.086690
1787.000000	0.086795
1786.000000	0.086930
1785.000000	0.087206
1784.000000	0.087612
1783.000000	0.087867
1782.000000	0.087897
1781.000000	0.088163
1780.000000	0.088421
1779.000000	0.088499
1778.000000	0.088880
1777.000000	0.089261
1776.000000	0.089594
1775.000000	0.090077
1774.000000	0.090406
1773.000000	0.090583
1772.000000	0.090947
1771.000000	0.091273
1770.000000	0.091522
1769.000000	0.091927
1768.000000	0.092284
1767.000000	0.092691
1766.000000	0.092899
1765.000000	0.093260
1764.000000	0.093600
1763.000000	0.093919
1762.000000	0.094219
1761.000000	0.094545
1760.000000	0.095007
1759.000000	0.095127
1758.000000	0.095331
1757.000000	0.095598
1756.000000	0.096004
1755.000000	0.096380
1754.000000	0.096797
1753.000000	0.097305
1752.000000	0.097379
1751.000000	0.097764
1750.000000	0.097997
1749.000000	0.098441
1748.000000	0.098793
1747.000000	0.099249
1746.000000	0.099639
1745.000000	0.100039
1744.000000	0.100469
1743.000000	0.100745
1742.000000	0.101338
1741.000000	0.101807
1740.000000	0.101996
1739.000000	0.102389
1738.000000	0.102359
1737.000000	0.102798
1736.000000	0.103080
1735.000000	0.102996
1734.000000	0.103185
1733.000000	0.103288
1732.000000	0.103579
1731.000000	0.103213
1730.000000	0.103227
1729.000000	0.102955
1728.000000	0.102751
1727.000000	0.102496
1726.000000	0.102248
1725.000000	0.101494
1724.000000	0.101239
1723.000000	0.100932
1722.000000	0.100261
1721.000000	0.099699
1720.000000	0.098774
1719.000000	0.098223
1718.000000	0.097684
1717.000000	0.096915
1716.000000	0.096559
1715.000000	0.095946
1714.000000	0.095372
1713.000000	0.094579
1712.000000	0.094226
1711.000000	0.093760
1710.000000	0.093346
1709.000000	0.092933
1708.000000	0.092614
1707.000000	0.092454
1706.000000	0.091740
1705.000000	0.091851
1704.000000	0.091506
1703.000000	0.091392
1702.000000	0.091107
1701.000000	0.091250
1700.000000	0.091242
1699.000000	0.091096
1698.000000	0.090902
1697.000000	0.090543
1696.000000	0.090117
1695.000000	0.090497
1694.000000	0.089962
1693.000000	0.089777
1692.000000	0.089484
1691.000000	0.089183
1690.000000	0.088918
1689.000000	0.088325
1688.000000	0.087808
1687.000000	0.087323
1686.000000	0.086565
1685.000000	0.086038
1684.000000	0.085283
1683.000000	0.084248
1682.000000	0.083580
1681.000000	0.082673
1680.000000	0.081672
1679.000000	0.081030
1678.000000	0.080000
1677.000000	0.079193
1676.000000	0.078270
1675.000000	0.077490
1674.000000	0.076404
1673.000000	0.075561
1672.000000	0.074795
1671.000000	0.073872
1670.000000	0.073091
1669.000000	0.072421
1668.000000	0.071759
1667.000000	0.071197
1666.000000	0.070426
1665.000000	0.070055
1664.000000	0.069398
1663.000000	0.069088
1662.000000	0.068708
1661.000000	0.068317
1660.000000	0.068056
1659.000000	0.067794
1658.000000	0.067493
1657.000000	0.067364
1656.000000	0.067302
1655.000000	0.067030
1654.000000	0.066943
1653.000000	0.066652
1652.000000	0.066689
1651.000000	0.066950
1650.000000	0.066650
1649.000000	0.066807
1648.000000	0.066791
1647.000000	0.066789
1646.000000	0.066753
1645.000000	0.067075
1644.000000	0.067266
1643.000000	0.067172
1642.000000	0.067321
1641.000000	0.067379
1640.000000	0.067542
1639.000000	0.067785
1638.000000	0.067827
1637.000000	0.068011
1636.000000	0.068252
1635.000000	0.068440
1634.000000	0.068625
1633.000000	0.068819
1632.000000	0.068971
1631.000000	0.069180
1630.000000	0.069432
1629.000000	0.069592
1628.000000	0.069899
1627.000000	0.070230
1626.000000	0.070455
1625.000000	0.070673
1624.000000	0.070934
1623.000000	0.071106
1622.000000	0.071391
1621.000000	0.071723
1620.000000	0.071929
1619.000000	0.072263
1618.000000	0.072669
1617.000000	0.072951
1616.000000	0.073209
1615.000000	0.073451
1614.000000	0.073768
1613.000000	0.074131
1612.000000	0.074524
1611.000000	0.074890
1610.000000	0.075129
1609.000000	0.075456
1608.000000	0.075862
1607.000000	0.076126
1606.000000	0.076555
1605.000000	0.076993
1604.000000	0.077210
1603.000000	0.077517
1602.000000	0.078002
1601.000000	0.078372
1600.000000	0.078693
1599.000000	0.079117
1598.000000	0.079335
1597.000000	0.079697
1596.000000	0.080134
1595.000000	0.080516
1594.000000	0.080767
1593.000000	0.081007
1592.000000	0.081315
1591.000000	0.081629
1590.000000	0.081925
1589.000000	0.082225
1588.000000	0.082618
1587.000000	0.082979
1586.000000	0.083169
1585.000000	0.083445
1584.000000	0.083800
1583.000000	0.083970
1582.000000	0.084296
1581.000000	0.084587
1580.000000	0.084949
1579.000000	0.085298
1578.000000	0.085367
1577.000000	0.085653
1576.000000	0.085965
1575.000000	0.086208
1574.000000	0.086685
1573.000000	0.086967
1572.000000	0.087092
1571.000000	0.087310
1570.000000	0.087649
1569.000000	0.087876
1568.000000	0.088110
1567.000000	0.088415
1566.000000	0.088648
1565.000000	0.088874
1564.000000	0.089038
1563.000000	0.089188
1562.000000	0.089432
1561.000000	0.089516
1560.000000	0.089707
1559.000000	0.090028
1558.000000	0.090070
1557.000000	0.090179
1556.000000	0.090320
1555.000000	0.090583
1554.000000	0.090805
1553.000000	0.090937
1552.000000	0.091193
1551.000000	0.091379
1550.000000	0.091666
1549.000000	0.091981
1548.000000	0.092190
1547.000000	0.092492
1546.000000	0.092753
1545.000000	0.093136
1544.000000	0.093601
1543.000000	0.094041
1542.000000	0.094372
1541.000000	0.094817
1540.000000	0.095340
1539.000000	0.095870
1538.000000	0.096505
1537.000000	0.097050
1536.000000	0.097580
1535.000000	0.097987
1534.000000	0.098541
1533.000000	0.098963
1532.000000	0.099651
1531.000000	0.100180
1530.000000	0.100681
1529.000000	0.101214
1528.000000	0.101809
1527.000000	0.102183
1526.000000	0.102711
1525.000000	0.103133
1524.000000	0.103450
1523.000000	0.103795
1522.000000	0.104204
1521.000000	0.104547
1520.000000	0.105026
1519.000000	0.105300
1518.000000	0.105558
1517.000000	0.105774
1516.000000	0.106093
1515.000000	0.106435
1514.000000	0.106653
1513.000000	0.106894
1512.000000	0.106943
1511.000000	0.107201
1510.000000	0.107459
1509.000000	0.107711
1508.000000	0.107802
1507.000000	0.107952
1506.000000	0.108111
1505.000000	0.108178
1504.000000	0.108344
1503.000000	0.108318
1502.000000	0.108492
1501.000000	0.108523
1500.000000	0.108698
1499.000000	0.108642
1498.000000	0.108783
1497.000000	0.108837
1496.000000	0.108676
1495.000000	0.108660
1494.000000	0.108681
1493.000000	0.108601
1492.000000	0.108634
1491.000000	0.108375
1490.000000	0.108177
1489.000000	0.108215
1488.000000	0.107862
1487.000000	0.107831
1486.000000	0.107618
1485.000000	0.107385
1484.000000	0.107347
1483.000000	0.106937
1482.000000	0.106711
1481.000000	0.106517
1480.000000	0.106259
1479.000000	0.106091
1478.000000	0.105899
1477.000000	0.105656
1476.000000	0.105566
1475.000000	0.105169
1474.000000	0.104972
1473.000000	0.104856
1472.000000	0.104568
1471.000000	0.104327
1470.000000	0.104224
1469.000000	0.103933
1468.000000	0.103830
1467.000000	0.103684
1466.000000	0.103415
1465.000000	0.103238
1464.000000	0.102939
1463.000000	0.102796
1462.000000	0.102502
1461.000000	0.102497
1460.000000	0.102164
1459.000000	0.101896
1458.000000	0.101714
1457.000000	0.101400
1456.000000	0.101088
1455.000000	0.100771
1454.000000	0.100537
1453.000000	0.100244
1452.000000	0.099939
1451.000000	0.099556
1450.000000	0.099275
1449.000000	0.098961
1448.000000	0.098517
1447.000000	0.098143
1446.000000	0.097793
1445.000000	0.097364
1444.000000	0.096835
1443.000000	0.096463
1442.000000	0.096078
1441.000000	0.095415
1440.000000	0.095004
1439.000000	0.094668
1438.000000	0.094058
1437.000000	0.093595
1436.000000	0.092946
1435.000000	0.092380
1434.000000	0.091769
1433.000000	0.091225
1432.000000	0.090439
1431.000000	0.089797
1430.000000	0.089160
1429.000000	0.088463
1428.000000	0.087699
1427.000000	0.086927
1426.000000	0.086206
1425.000000	0.085427
1424.000000	0.084542
1423.000000	0.083680
1422.000000	0.082797
1421.000000	0.081924
1420.000000	0.081025
1419.000000	0.080062
1418.000000	0.079066
1417.000000	0.078168
1416.000000	0.077238
1415.000000	0.076211
1414.000000	0.075157
1413.000000	0.074106
1412.000000	0.073146
1411.000000	0.072181
1410.000000	0.071227
1409.000000	0.070233
1408.000000	0.069167
1407.000000	0.068201
1406.000000	0.067132
1405.000000	0.066246
1404.000000	0.065314
1403.000000	0.064309
1402.000000	0.063436
1401.000000	0.062701
1400.000000	0.061833
1399.000000	0.060906
1398.000000	0.060093
1397.000000	0.059327
1396.000000	0.058505
1395.000000	0.057777
1394.000000	0.057186
1393.000000	0.056426
1392.000000	0.055631
1391.000000	0.054905
1390.000000	0.054406
1389.000000	0.053892
1388.000000	0.053275
1387.000000	0.052738
1386.000000	0.052273
1385.000000	0.051764
1384.000000	0.051253
1383.000000	0.050804
1382.000000	0.050379
1381.000000	0.050020
1380.000000	0.049777
1379.000000	0.049368
1378.000000	0.049023
1377.000000	0.048702
1376.000000	0.048369
1375.000000	0.048160
1374.000000	0.047981
1373.000000	0.047723
1372.000000	0.047362
1371.000000	0.047145
1370.000000	0.046980
1369.000000	0.046734
1368.000000	0.046536
1367.000000	0.046432
1366.000000	0.046256
1365.000000	0.046035
1364.000000	0.045846
1363.000000	0.045717
1362.000000	0.045493
1361.000000	0.045263
1360.000000	0.045212
1359.000000	0.045073
1358.000000	0.044792
1357.000000	0.044695
1356.000000	0.044541
1355.000000	0.044363
1354.000000	0.044377
1353.000000	0.044196
1352.000000	0.044035
1351.000000	0.043901
1350.000000	0.043622
1349.000000	0.043386
1348.000000	0.043264
1347.000000	0.043160
1346.000000	0.042943
1345.000000	0.042696
1344.000000	0.042593
1343.000000	0.042501
1342.000000	0.042354
1341.000000	0.042130
1340.000000	0.042000
1339.000000	0.041973
1338.000000	0.041859
1337.000000	0.041664
1336.000000	0.041444
1335.000000	0.041516
1334.000000	0.041382
1333.000000	0.041235
1332.000000	0.041066
1331.000000	0.040824
1330.000000	0.040890
1329.000000	0.040823
1328.000000	0.040780
1327.000000	0.040539
1326.000000	0.040664
1325.000000	0.040602
1324.000000	0.040518
1323.000000	0.040411
1322.000000	0.040401
1321.000000	0.040291
1320.000000	0.040347
1319.000000	0.040207
1318.000000	0.040109
1317.000000	0.040160
1316.000000	0.040140
1315.000000	0.040095
1314.000000	0.040206
1313.000000	0.040223
1312.000000	0.039901
1311.000000	0.039979
1310.000000	0.039957
1309.000000	0.039752
1308.000000	0.040000
1307.000000	0.039905
1306.000000	0.039916
1305.000000	0.039957
1304.000000	0.039920
1303.000000	0.039800
1302.000000	0.039882
1301.000000	0.039931
1300.000000	0.039885
1299.000000	0.039840
1298.000000	0.039827
1297.000000	0.039933
1296.000000	0.039870
1295.000000	0.039927
1294.000000	0.039912
1293.000000	0.040030
1292.000000	0.040030
1291.000000	0.040100
1290.000000	0.040093
1289.000000	0.040124
1288.000000	0.040246
1287.000000	0.040299
1286.000000	0.040258
1285.000000	0.040356
1284.000000	0.040333
1283.000000	0.040401
1282.000000	0.040410
1281.000000	0.040486
1280.000000	0.040507
1279.000000	0.040693
1278.000000	0.040624
1277.000000	0.040760
1276.000000	0.040595
1275.000000	0.040762
1274.000000	0.040770
1273.000000	0.040832
1272.000000	0.040879
1271.000000	0.040890
1270.000000	0.040903
1269.000000	0.040915
1268.000000	0.040853
1267.000000	0.040818
1266.000000	0.041274
1265.000000	0.040991
1264.000000	0.040907
1263.000000	0.041078
1262.000000	0.041120
1261.000000	0.041036
1260.000000	0.040959
1259.000000	0.041206
1258.000000	0.041148
1257.000000	0.041110
1256.000000	0.041015
1255.000000	0.041117
1254.000000	0.041175
1253.000000	0.041262
1252.000000	0.041164
1251.000000	0.041124
1250.000000	0.041221
1249.000000	0.041223
1248.000000	0.041228
1247.000000	0.041422
1246.000000	0.041501
1245.000000	0.041560
1244.000000	0.041619
1243.000000	0.041712
1242.000000	0.041846
1241.000000	0.041851
1240.000000	0.041981
1239.000000	0.042039
1238.000000	0.042252
1237.000000	0.042333
1236.000000	0.042462
1235.000000	0.042528
1234.000000	0.042743
1233.000000	0.042813
1232.000000	0.042869
1231.000000	0.043007
1230.000000	0.043097
1229.000000	0.043246
1228.000000	0.043368
1227.000000	0.043550
1226.000000	0.043554
1225.000000	0.043655
1224.000000	0.043872
1223.000000	0.043977
1222.000000	0.044140
1221.000000	0.044336
1220.000000	0.044473
1219.000000	0.044592
1218.000000	0.044645
1217.000000	0.044810
1216.000000	0.044901
1215.000000	0.044952
1214.000000	0.045238
1213.000000	0.045436
1212.000000	0.045369
1211.000000	0.045532
1210.000000	0.045879
1209.000000	0.045972
1208.000000	0.046122
1207.000000	0.046272
1206.000000	0.046533
1205.000000	0.046397
1204.000000	0.046655
1203.000000	0.046943
1202.000000	0.047033
1201.000000	0.047202
1200.000000	0.047290
1199.000000	0.047459
1198.000000	0.047679
1197.000000	0.047740
1196.000000	0.047748
1195.000000	0.047875
1194.000000	0.048099
1193.000000	0.048184
1192.000000	0.048283
1191.000000	0.048322
1190.000000	0.048454
1189.000000	0.048580
1188.000000	0.048641
1187.000000	0.048726
1186.000000	0.048751
1185.000000	0.048782
1184.000000	0.048893
1183.000000	0.048844
1182.000000	0.048794
1181.000000	0.048812
1180.000000	0.048714
1179.000000	0.048634
1178.000000	0.048547
1177.000000	0.048534
1176.000000	0.048463
1175.000000	0.048226
1174.000000	0.048054
1173.000000	0.048050
1172.000000	0.047906
1171.000000	0.047696
1170.000000	0.047491
1169.000000	0.047318
1168.000000	0.047147
1167.000000	0.046924
1166.000000	0.046712
1165.000000	0.046587
1164.000000	0.046419
1163.000000	0.046141
1162.000000	0.046024
1161.000000	0.045895
1160.000000	0.045652
1159.000000	0.045417
1158.000000	0.045205
1157.000000	0.045036
1156.000000	0.044842
1155.000000	0.044600
1154.000000	0.044480
1153.000000	0.044349
1152.000000	0.044148
1151.000000	0.043995
1150.000000	0.043864
1149.000000	0.043772
1148.000000	0.043642
1147.000000	0.043517
1146.000000	0.043415
1145.000000	0.043319
1144.000000	0.043283
1143.000000	0.043087
1142.000000	0.042892
1141.000000	0.042861
1140.000000	0.042752
1139.000000	0.042646
1138.000000	0.042593
1137.000000	0.042569
1136.000000	0.042474
1135.000000	0.042356
1134.000000	0.042286
1133.000000	0.042188
1132.000000	0.042160
1131.000000	0.042141
1130.000000	0.042051
1129.000000	0.041994
1128.000000	0.041996
1127.000000	0.042002
1126.000000	0.041906
1125.000000	0.041900
1124.000000	0.041910
1123.000000	0.041986
1122.000000	0.041971
1121.000000	0.041989
1120.000000	0.041911
1119.000000	0.041950
1118.000000	0.042002
1117.000000	0.042042
1116.000000	0.042058
1115.000000	0.042076
1114.000000	0.042103
1113.000000	0.042196
1112.000000	0.042208
1111.000000	0.042325
1110.000000	0.042359
1109.000000	0.042347
1108.000000	0.042441
1107.000000	0.042491
1106.000000	0.042622
1105.000000	0.042623
1104.000000	0.042619
1103.000000	0.042598
1102.000000	0.042676
1101.000000	0.042759
1100.000000	0.042751
1099.000000	0.042789
1098.000000	0.042894
1097.000000	0.042998
1096.000000	0.043012
1095.000000	0.042979
1094.000000	0.043082
1093.000000	0.043136
1092.000000	0.043215
1091.000000	0.043228
1090.000000	0.043420
1089.000000	0.043428
1088.000000	0.043397
1087.000000	0.043479
1086.000000	0.043588
1085.000000	0.043588
1084.000000	0.043757
1083.000000	0.043726
1082.000000	0.043878
1081.000000	0.043834
1080.000000	0.043880
1079.000000	0.043953
1078.000000	0.044012
1077.000000	0.044147
1076.000000	0.044284
1075.000000	0.044306
1074.000000	0.044438
1073.000000	0.044418
1072.000000	0.044487
1071.000000	0.044606
1070.000000	0.044656
1069.000000	0.044705
1068.000000	0.044913
1067.000000	0.044971
1066.000000	0.045104
1065.000000	0.045053
1064.000000	0.045128
1063.000000	0.045148
1062.000000	0.045317
1061.000000	0.045334
1060.000000	0.045404
1059.000000	0.045482
1058.000000	0.045626
1057.000000	0.045700
1056.000000	0.045716
1055.000000	0.045883
1054.000000	0.045892
1053.000000	0.045869
1052.000000	0.046170
1051.000000	0.046178
1050.000000	0.046385
1049.000000	0.046356
1048.000000	0.046460
1047.000000	0.046448
1046.000000	0.046691
1045.000000	0.046635
1044.000000	0.046702
1043.000000	0.046894
1042.000000	0.046924
1041.000000	0.046976
1040.000000	0.047010
1039.000000	0.047029
1038.000000	0.047217
1037.000000	0.047329
1036.000000	0.047307
1035.000000	0.047476
1034.000000	0.047529
1033.000000	0.047622
1032.000000	0.047634
1031.000000	0.047794
1030.000000	0.047871
1029.000000	0.047991
1028.000000	0.048039
1027.000000	0.048029
1026.000000	0.048049
1025.000000	0.048281
1024.000000	0.048266
1023.000000	0.048371
1022.000000	0.048480
1021.000000	0.048426
1020.000000	0.048526
1019.000000	0.048604
1018.000000	0.048641
1017.000000	0.048721
1016.000000	0.048923
1015.000000	0.048958
1014.000000	0.048885
1013.000000	0.048951
1012.000000	0.049064
1011.000000	0.049288
1010.000000	0.049336
1009.000000	0.049336
1008.000000	0.049411
1007.000000	0.049409
1006.000000	0.049409
1005.000000	0.049332
1004.000000	0.049537
1003.000000	0.049633
1002.000000	0.049625
1001.000000	0.049707
1000.000000	0.049829
999.000000	0.049866
998.000000	0.049886
997.000000	0.050009
996.000000	0.050152
995.000000	0.050142
994.000000	0.050254
993.000000	0.050427
992.000000	0.050324
991.000000	0.050392
990.000000	0.050405
989.000000	0.050443
988.000000	0.050521
987.000000	0.050682
986.000000	0.050770
985.000000	0.050846
984.000000	0.050755
983.000000	0.050788
982.000000	0.050973
981.000000	0.051010
980.000000	0.051076
979.000000	0.051092
978.000000	0.051218
977.000000	0.051217
976.000000	0.051242
975.000000	0.051411
974.000000	0.051541
973.000000	0.051593
972.000000	0.051591
971.000000	0.051613
970.000000	0.051683
969.000000	0.051732
968.000000	0.051766
967.000000	0.051809
966.000000	0.052032
965.000000	0.052134
964.000000	0.052094
963.000000	0.052225
962.000000	0.052160
961.000000	0.052132
960.000000	0.052140
959.000000	0.052311
958.000000	0.052275
957.000000	0.052375
956.000000	0.052458
955.000000	0.052416
954.000000	0.052575
953.000000	0.052702
952.000000	0.052827
951.000000	0.052894
950.000000	0.052928
949.000000	0.053066
948.000000	0.053127
947.000000	0.053091
946.000000	0.053177
945.000000	0.053090
944.000000	0.053252
943.000000	0.053378
942.000000	0.053359
941.000000	0.053488
940.000000	0.053517
939.000000	0.053608
938.000000	0.053762
937.000000	0.053869
936.000000	0.053964
935.000000	0.054038
934.000000	0.054134
933.000000	0.054283
932.000000	0.054260
931.000000	0.054201
930.000000	0.054359
929.000000	0.054554
928.000000	0.054651
927.000000	0.054764
926.000000	0.054932
925.000000	0.055084
924.000000	0.055108
923.000000	0.055360
922.000000	0.055386
921.000000	0.055398
920.000000	0.055619
919.000000	0.055838
918.000000	0.055850
917.000000	0.055710
916.000000	0.055746
915.000000	0.055861
914.000000	0.056168
913.000000	0.056398
912.000000	0.056372
911.000000	0.056429
910.000000	0.056676
909.000000	0.056888
908.000000	0.056898
907.000000	0.057155
906.000000	0.057260
905.000000	0.057330
904.000000	0.057406
903.000000	0.057339
902.000000	0.057366
901.000000	0.057540
900.000000	0.057818
899.000000	0.058011
898.000000	0.057724
897.000000	0.058007
896.000000	0.058311
895.000000	0.058089
894.000000	0.058531
893.000000	0.058697
892.000000	0.058796
891.000000	0.059063
890.000000	0.059111
889.000000	0.059278
888.000000	0.059339
887.000000	0.059354
886.000000	0.059281
885.000000	0.059441
884.000000	0.059601
883.000000	0.059459
882.000000	0.059588
881.000000	0.060145
880.000000	0.060293
879.000000	0.060479
878.000000	0.060567
877.000000	0.060817
876.000000	0.060814
875.000000	0.060995
874.000000	0.061537
873.000000	0.061559
872.000000	0.060883
871.000000	0.061014
870.000000	0.060934
869.000000	0.062054
868.000000	0.062028
867.000000	0.062645
866.000000	0.062573
865.000000	0.061821
864.000000	0.062627
863.000000	0.061983
862.000000	0.063254
861.000000	0.063213
860.000000	0.063162
859.000000	0.063894
858.000000	0.062339
857.000000	0.064532
856.000000	0.062083
855.000000	0.066190
854.000000	0.061892
853.000000	0.064498
852.000000	0.064241
851.000000	0.062958
850.000000	0.065104
849.000000	0.064477
848.000000	0.063489
847.000000	0.065645
846.000000	0.065007
845.000000	0.064347
844.000000	0.065359
843.000000	0.065960
842.000000	0.066755
841.000000	0.068354
840.000000	0.066239
839.000000	0.067780
838.000000	0.066669
837.000000	0.067682
836.000000	0.067339
835.000000	0.067198
834.000000	0.067493
833.000000	0.067063
832.000000	0.069579
831.000000	0.068677
830.000000	0.069629
829.000000	0.069303
828.000000	0.069820
827.000000	0.070017
826.000000	0.070077
825.000000	0.071492
824.000000	0.069763
823.000000	0.071070
822.000000	0.071728
821.000000	0.072560
820.000000	0.071710
819.000000	0.072435
818.000000	0.072452
817.000000	0.073417
816.000000	0.072097
815.000000	0.073195
814.000000	0.072413
813.000000	0.075191
812.000000	0.074218
811.000000	0.073200
810.000000	0.074486
809.000000	0.074798
808.000000	0.075401
807.000000	0.074206
806.000000	0.074523
805.000000	0.075501
804.000000	0.076040
803.000000	0.076176
802.000000	0.077415
801.000000	0.076716
800.000000	0.077328
799.000000	0.077219
798.000000	0.077164
797.000000	0.078194
796.000000	0.078165
795.000000	0.078901
794.000000	0.080676
793.000000	0.079725
792.000000	0.079626
791.000000	0.079571
790.000000	0.080867
789.000000	0.081697
788.000000	0.080929
787.000000	0.080868
786.000000	0.081188
785.000000	0.082233
784.000000	0.082737
783.000000	0.082669
782.000000	0.083327
781.000000	0.083245
780.000000	0.083852
779.000000	0.084460
778.000000	0.084605
777.000000	0.084377
776.000000	0.084541
775.000000	0.085185
774.000000	0.085766
773.000000	0.086706
772.000000	0.086918
771.000000	0.086312
770.000000	0.087273
769.000000	0.087822
768.000000	0.088200
767.000000	0.088499
766.000000	0.088823
765.000000	0.089500
764.000000	0.089960
763.000000	0.090364
762.000000	0.091360
761.000000	0.091331
760.000000	0.091643
759.000000	0.092193
758.000000	0.092464
757.000000	0.092510
756.000000	0.093226
755.000000	0.093831
754.000000	0.094273
753.000000	0.094112
752.000000	0.095222
751.000000	0.096435
750.000000	0.096401
749.000000	0.096618
748.000000	0.097266
747.000000	0.098349
746.000000	0.098503
745.000000	0.098947
744.000000	0.099471
743.000000	0.099611
742.000000	0.100204
741.000000	0.100503
740.000000	0.101085
739.000000	0.102131
738.000000	0.101953
737.000000	0.101839
736.000000	0.102997
735.000000	0.104091
734.000000	0.104529
733.000000	0.105109
732.000000	0.105450
731.000000	0.105562
730.000000	0.106292
729.000000	0.107041
728.000000	0.107528
727.000000	0.107883
726.000000	0.108266
725.000000	0.109480
724.000000	0.110097
723.000000	0.110370
722.000000	0.111064
721.000000	0.111408
720.000000	0.111858
719.000000	0.112770
718.000000	0.113519
717.000000	0.114343
716.000000	0.114986
715.000000	0.115128
714.000000	0.115592
713.000000	0.116594
712.000000	0.117519
711.000000	0.117958
710.000000	0.118522
709.000000	0.119042
708.000000	0.119726
707.000000	0.120626
706.000000	0.121196
705.000000	0.121724
704.000000	0.122564
703.000000	0.123225
702.000000	0.123744
701.000000	0.124408
700.000000	0.125346
699.000000	0.125958
698.000000	0.126238
697.000000	0.126939
696.000000	0.127827
695.000000	0.128636
694.000000	0.129266
693.000000	0.129745
692.000000	0.130534
691.000000	0.131575
690.000000	0.132054
689.000000	0.132861
688.000000	0.133980
687.000000	0.135208
686.000000	0.136082
685.000000	0.136375
684.000000	0.137213
683.000000	0.138148
682.000000	0.139253
681.000000	0.140191
680.000000	0.140609
679.000000	0.141311
678.000000	0.142351
677.000000	0.143242
676.000000	0.143635
675.000000	0.144514
674.000000	0.145643
673.000000	0.146080
672.000000	0.146943
671.000000	0.147917
670.000000	0.148655
669.000000	0.149637
668.000000	0.150752
667.000000	0.151615
666.000000	0.152063
665.000000	0.153171
664.000000	0.154240
663.000000	0.154712
662.000000	0.155588
661.000000	0.156712
660.000000	0.157483
659.000000	0.158502
658.000000	0.159553
657.000000	0.160434
656.000000	0.161106
655.000000	0.162204
654.000000	0.162906
653.000000	0.163857
652.000000	0.165036
651.000000	0.165997
650.000000	0.166885
649.000000	0.167634
648.000000	0.168411
647.000000	0.169689
646.000000	0.170531
645.000000	0.171281
644.000000	0.172976
643.000000	0.173906
642.000000	0.174420
641.000000	0.175079
640.000000	0.176565
639.000000	0.177620
638.000000	0.178646
637.000000	0.179832
636.000000	0.180637
635.000000	0.181644
634.000000	0.183138
633.000000	0.183828
632.000000	0.184647
631.000000	0.185786
630.000000	0.186569
629.000000	0.187441
628.000000	0.189021
627.000000	0.189779
626.000000	0.190805
625.000000	0.191934
624.000000	0.193273
623.000000	0.194258
622.000000	0.195676
621.000000	0.196733
620.000000	0.197336
619.000000	0.198697
618.000000	0.199550
617.000000	0.200849
616.000000	0.202048
615.000000	0.203113
614.000000	0.204223
613.000000	0.205300
612.000000	0.206389
611.000000	0.207885
610.000000	0.208888
609.000000	0.210136
608.000000	0.211581
607.000000	0.212968
606.000000	0.214057
605.000000	0.214976
604.000000	0.216570
603.000000	0.217136
602.000000	0.218046
601.000000	0.219444
600.000000	0.220912
599.000000	0.222100
598.000000	0.223821
597.000000	0.224442
596.000000	0.225857
595.000000	0.227570
594.000000	0.228316
593.000000	0.229461
592.000000	0.230852
591.000000	0.232105
590.000000	0.233505
589.000000	0.234960
588.000000	0.236139
587.000000	0.237581
586.000000	0.238852
585.000000	0.240297
584.000000	0.241172
583.000000	0.242679
582.000000	0.244145
581.000000	0.245453
580.000000	0.246965
579.000000	0.248076
578.000000	0.249468
577.000000	0.251143
576.000000	0.252413
575.000000	0.253498
574.000000	0.255285
573.000000	0.256233
572.000000	0.258040
571.000000	0.259526
570.000000	0.260598
569.000000	0.262298
568.000000	0.263445
567.000000	0.264882
566.000000	0.266713
565.000000	0.268151
564.000000	0.269250
563.000000	0.270935
562.000000	0.273197
561.000000	0.274435
560.000000	0.275806
559.000000	0.276935
558.000000	0.278612
557.000000	0.280569
556.000000	0.282104
555.000000	0.283926
554.000000	0.285361
553.000000	0.286948
552.000000	0.288655
551.000000	0.290194
550.000000	0.291669
549.000000	0.293710
548.000000	0.295359
547.000000	0.296475
546.000000	0.298556
545.000000	0.300186
544.000000	0.301749
543.000000	0.303507
542.000000	0.305498
541.000000	0.307095
540.000000	0.309242
539.000000	0.311182
538.000000	0.312774
537.000000	0.314277
536.000000	0.316408
535.000000	0.318005
534.000000	0.320103
533.000000	0.321847
532.000000	0.323843
531.000000	0.325650
530.000000	0.327751
529.000000	0.329305
528.000000	0.331127
527.000000	0.333154
526.000000	0.335151
525.000000	0.337317
524.000000	0.339296
523.000000	0.340964
522.000000	0.342931
521.000000	0.345050
520.000000	0.346680
519.000000	0.349033
518.000000	0.351607
517.000000	0.353601
516.000000	0.355557
515.000000	0.357540
514.000000	0.359596
513.000000	0.361497
512.000000	0.363481
511.000000	0.365595
510.000000	0.367908
509.000000	0.369937
508.000000	0.372277
507.000000	0.374582
506.000000	0.376965
505.000000	0.379143
504.000000	0.381444
503.000000	0.383633
502.000000	0.385824
501.000000	0.388099
500.000000	0.390255
499.000000	0.392666
498.000000	0.394772
497.000000	0.397133
496.000000	0.399899
495.000000	0.402165
494.000000	0.404350
493.000000	0.407046
492.000000	0.409588
491.000000	0.411533
490.000000	0.413699
489.000000	0.416689
488.000000	0.419668
487.000000	0.421939
486.000000	0.424273
485.000000	0.426507
484.000000	0.429095
483.000000	0.431445
482.000000	0.433818
481.000000	0.436796
480.000000	0.439153
479.000000	0.441424
478.000000	0.444337
477.000000	0.447138
476.000000	0.449879
475.000000	0.452433
474.000000	0.454871
473.000000	0.457968
472.000000	0.460604
471.000000	0.463259
470.000000	0.466097
469.000000	0.469044
468.000000	0.471820
467.000000	0.474197
466.000000	0.476651
465.000000	0.479535
464.000000	0.482771
463.000000	0.485793
462.000000	0.488502
461.000000	0.491728
460.000000	0.494730
459.000000	0.497473
458.000000	0.500535
457.000000	0.503608
456.000000	0.506744
455.000000	0.510014
454.000000	0.513510
453.000000	0.517070
452.000000	0.519830
451.000000	0.522780
450.000000	0.526406
449.000000	0.529252
448.000000	0.532534
447.000000	0.536163
446.000000	0.539661
445.000000	0.542946
444.000000	0.546313
443.000000	0.549841
442.000000	0.552957
441.000000	0.556284
440.000000	0.559374
439.000000	0.563171
438.000000	0.566979
437.000000	0.570057
436.000000	0.573200
435.000000	0.576995
434.000000	0.580813
433.000000	0.583544
432.000000	0.587123
431.000000	0.591472
430.000000	0.594935
429.000000	0.597937
428.000000	0.601964
427.000000	0.605710
426.000000	0.609070
425.000000	0.612548
424.000000	0.615731
423.000000	0.620097
422.000000	0.624177
421.000000	0.627583
420.000000	0.631452
419.000000	0.634796
418.000000	0.638158
417.000000	0.642500
416.000000	0.646417
415.000000	0.649870
414.000000	0.654128
413.000000	0.657540
412.000000	0.661433
411.000000	0.665390
410.000000	0.669174
409.000000	0.672703
408.000000	0.676455
407.000000	0.680549
406.000000	0.684807
405.000000	0.688842
404.000000	0.692610
403.000000	0.695730
402.000000	0.699552
401.000000	0.703654
400.000000	0.707885
399.000000	0.711997
398.000000	0.715680
397.000000	0.719345
396.000000	0.722608
395.000000	0.727002
394.000000	0.731164
393.000000	0.734787
392.000000	0.739391
391.000000	0.742507
390.000000	0.746381
389.000000	0.751036
388.000000	0.754451
387.000000	0.758125
386.000000	0.762233
385.000000	0.765767
384.000000	0.770854
383.000000	0.774478
382.000000	0.777246
381.000000	0.782744
380.000000	0.785426
379.000000	0.790121
378.000000	0.794710
377.000000	0.796135
376.000000	0.799414
375.000000	0.804247
374.000000	0.807179
373.000000	0.810268
372.000000	0.813263
371.000000	0.819498
370.000000	0.822055
369.000000	0.825915
368.000000	0.827053
367.000000	0.831028
366.000000	0.835691
365.000000	0.837046
364.000000	0.843058
363.000000	0.845417
362.000000	0.847678
361.000000	0.854344
360.000000	0.856460
359.000000	0.858466
358.000000	0.862472
357.000000	0.865845
356.000000	0.867578
355.000000	0.870247
354.000000	0.873741
353.000000	0.876552
352.000000	0.881670
351.000000	0.885390
350.000000	0.887191
349.000000	0.890369
348.000000	0.891008
347.000000	0.892491
346.000000	0.896685
345.000000	0.902574
344.000000	0.903520
343.000000	0.906831
342.000000	0.910186
341.000000	0.911928
340.000000	0.913525
339.000000	0.918457
338.000000	0.919654
337.000000	0.925399
336.000000	0.927994
335.000000	0.929658
334.000000	0.935467
333.000000	0.934638
332.000000	0.938830
331.000000	0.941900
330.000000	0.944665
329.000000	0.946395
328.000000	0.947036
327.000000	0.948559
326.000000	0.955110
325.000000	0.953267
324.000000	0.955075
323.000000	0.962564
322.000000	0.961334
321.000000	0.962312
320.000000	0.964995
319.000000	0.967642
318.000000	0.972130
317.000000	0.977085
316.000000	0.974385
315.000000	0.977897
314.000000	0.979581
313.000000	0.982413
312.000000	0.982022
311.000000	0.982789
310.000000	0.989334
309.000000	0.985205
308.000000	0.989585
307.000000	0.989988
306.000000	0.992862
305.000000	0.991398
304.000000	0.989732
303.000000	0.995347
302.000000	0.995089
301.000000	0.994508
300.000000	0.996793
299.000000	0.995876
298.000000	1.000241
297.000000	0.999456
296.000000	0.996684
295.000000	0.998529
294.000000	0.999547
293.000000	1.002695
292.000000	1.001586
291.000000	1.001075
290.000000	1.002327
289.000000	1.005492
288.000000	1.002961
287.000000	1.004083
286.000000	1.004809
285.000000	1.002697
284.000000	1.004260
283.000000	1.003420
282.000000	1.002196
281.000000	1.002530
280.000000	1.000217
279.000000	0.999340
278.000000	0.997151
277.000000	0.994851
276.000000	0.994529
275.000000	0.994631
274.000000	0.990586
273.000000	0.988529
272.000000	0.987965
271.000000	0.985293
270.000000	0.980726
269.000000	0.980851
268.000000	0.978909
267.000000	0.978287
266.000000	0.973538
265.000000	0.970358
264.000000	0.968240
263.000000	0.964461
262.000000	0.960813
261.000000	0.956124
260.000000	0.952908
259.000000	0.949591
258.000000	0.946194
257.000000	0.940688
256.000000	0.936184
255.000000	0.930954
254.000000	0.929176
253.000000	0.926141
252.000000	0.920514
251.000000	0.915244
250.000000	0.909455
249.000000	0.905569
248.000000	0.901298
247.000000	0.896011
246.000000	0.893751
245.000000	0.889215
244.000000	0.883677
243.000000	0.880093
242.000000	0.879147
241.000000	0.878521
240.000000	0.874402
239.000000	0.871020
238.000000	0.868925
237.000000	0.867027
236.000000	0.866366
235.000000	0.865180
234.000000	0.863680
233.000000	0.865728
232.000000	0.861783
231.000000	0.860771
230.000000	0.862150
229.000000	0.862877
228.000000	0.863558
227.000000	0.860891
226.000000	0.859271
225.000000	0.858382
224.000000	0.854510
223.000000	0.851913
222.000000	0.850022
221.000000	0.848958
220.000000	0.848946
219.000000	0.844028
218.000000	0.842031
217.000000	0.837676
216.000000	0.831666
215.000000	0.830638
214.000000	0.827900
213.000000	0.819648
212.000000	0.810582
211.000000	0.804295
210.000000	0.799488
209.000000	0.791234
208.000000	0.778464
207.000000	0.769644
206.000000	0.760304
205.000000	0.746671
204.000000	0.740213
203.000000	0.726593
202.000000	0.714022
201.000000	0.704401
200.000000	0.692956
