PE UV       SUBTECH     SPECTRUM    ASCII       PEDS        4.00        
   -1
Ams148362.Sample.asc
18/03/23
14:51:42.00
18/03/23
14:51:42.00
Administrator

200.000000
1
Lambda 750
750N8071901
PerkinElmer UV WinLab 6.0.4.0738 / 1.61.00 Lambda 900

0
0
3350/servo 860.8/2
0
0
UV/VIS
1
1
1
CommonBeamDepol,150mm sphere / downward view
0
0
0
0
Program
Program
3350/servo 860.8/2
3350/0.2 860.8/0.2
3350/0.2 860.8/0.2
0
1
 
 
 
0
 
860.8
319.2
860.8
Front
100
on
 
 
0
0
0
 
0
 
 
 
0
 
 
0
0
0
0
0
 
 
 
 
0
0


0
0
#HDR
-1
-1
#GR
nm
A
1.0
0.0
2350.000000
-1.000000
2151
8
1.068832
0.047788
#DATA
2350.000000	0.294018
2349.000000	0.295692
2348.000000	0.293501
2347.000000	0.288811
2346.000000	0.294325
2345.000000	0.294758
2344.000000	0.294750
2343.000000	0.296558
2342.000000	0.294345
2341.000000	0.291853
2340.000000	0.291902
2339.000000	0.289058
2338.000000	0.289384
2337.000000	0.286425
2336.000000	0.286597
2335.000000	0.283719
2334.000000	0.284207
2333.000000	0.283143
2332.000000	0.286160
2331.000000	0.284381
2330.000000	0.284773
2329.000000	0.289971
2328.000000	0.286876
2327.000000	0.289018
2326.000000	0.289189
2325.000000	0.290232
2324.000000	0.290993
2323.000000	0.290352
2322.000000	0.289903
2321.000000	0.290376
2320.000000	0.291782
2319.000000	0.293694
2318.000000	0.292455
2317.000000	0.296244
2316.000000	0.299355
2315.000000	0.298655
2314.000000	0.299516
2313.000000	0.300897
2312.000000	0.302778
2311.000000	0.303115
2310.000000	0.303833
2309.000000	0.302765
2308.000000	0.303042
2307.000000	0.307554
2306.000000	0.305953
2305.000000	0.306918
2304.000000	0.304202
2303.000000	0.306811
2302.000000	0.307409
2301.000000	0.309286
2300.000000	0.309100
2299.000000	0.309293
2298.000000	0.309885
2297.000000	0.309976
2296.000000	0.312394
2295.000000	0.314282
2294.000000	0.314914
2293.000000	0.314851
2292.000000	0.315347
2291.000000	0.316938
2290.000000	0.317885
2289.000000	0.317604
2288.000000	0.315987
2287.000000	0.315533
2286.000000	0.315543
2285.000000	0.314417
2284.000000	0.315009
2283.000000	0.318058
2282.000000	0.316938
2281.000000	0.316668
2280.000000	0.318285
2279.000000	0.318110
2278.000000	0.316658
2277.000000	0.315812
2276.000000	0.314507
2275.000000	0.316243
2274.000000	0.314726
2273.000000	0.312888
2272.000000	0.311673
2271.000000	0.312296
2270.000000	0.309631
2269.000000	0.309997
2268.000000	0.310479
2267.000000	0.307330
2266.000000	0.305151
2265.000000	0.303583
2264.000000	0.301999
2263.000000	0.301589
2262.000000	0.299953
2261.000000	0.297538
2260.000000	0.295800
2259.000000	0.294162
2258.000000	0.290638
2257.000000	0.288016
2256.000000	0.286876
2255.000000	0.284392
2254.000000	0.282204
2253.000000	0.279987
2252.000000	0.277318
2251.000000	0.273837
2250.000000	0.270463
2249.000000	0.267606
2248.000000	0.266856
2247.000000	0.263337
2246.000000	0.260100
2245.000000	0.257895
2244.000000	0.255737
2243.000000	0.254379
2242.000000	0.252152
2241.000000	0.251673
2240.000000	0.250294
2239.000000	0.248206
2238.000000	0.246890
2237.000000	0.244329
2236.000000	0.241329
2235.000000	0.240571
2234.000000	0.240309
2233.000000	0.241133
2232.000000	0.240641
2231.000000	0.238984
2230.000000	0.239468
2229.000000	0.238263
2228.000000	0.236277
2227.000000	0.235815
2226.000000	0.236746
2225.000000	0.237067
2224.000000	0.237829
2223.000000	0.237987
2222.000000	0.237254
2221.000000	0.237586
2220.000000	0.235937
2219.000000	0.236731
2218.000000	0.239912
2217.000000	0.240843
2216.000000	0.239898
2215.000000	0.240565
2214.000000	0.241208
2213.000000	0.242031
2212.000000	0.242467
2211.000000	0.242971
2210.000000	0.244761
2209.000000	0.244848
2208.000000	0.246013
2207.000000	0.246138
2206.000000	0.246769
2205.000000	0.247599
2204.000000	0.248620
2203.000000	0.248698
2202.000000	0.251150
2201.000000	0.250870
2200.000000	0.252208
2199.000000	0.252881
2198.000000	0.251989
2197.000000	0.254243
2196.000000	0.255750
2195.000000	0.256555
2194.000000	0.257992
2193.000000	0.258710
2192.000000	0.258448
2191.000000	0.259956
2190.000000	0.260959
2189.000000	0.261549
2188.000000	0.262499
2187.000000	0.263312
2186.000000	0.263858
2185.000000	0.265294
2184.000000	0.265842
2183.000000	0.264497
2182.000000	0.265397
2181.000000	0.266463
2180.000000	0.266730
2179.000000	0.267073
2178.000000	0.268050
2177.000000	0.267137
2176.000000	0.268179
2175.000000	0.267424
2174.000000	0.266444
2173.000000	0.266815
2172.000000	0.266233
2171.000000	0.265917
2170.000000	0.266387
2169.000000	0.264799
2168.000000	0.264234
2167.000000	0.262413
2166.000000	0.262840
2165.000000	0.261007
2164.000000	0.261390
2163.000000	0.259726
2162.000000	0.258249
2161.000000	0.257246
2160.000000	0.255502
2159.000000	0.252994
2158.000000	0.252985
2157.000000	0.250739
2156.000000	0.250774
2155.000000	0.246833
2154.000000	0.245009
2153.000000	0.242725
2152.000000	0.241119
2151.000000	0.241669
2150.000000	0.239877
2149.000000	0.239045
2148.000000	0.237658
2147.000000	0.235883
2146.000000	0.234620
2145.000000	0.234277
2144.000000	0.230735
2143.000000	0.230785
2142.000000	0.227706
2141.000000	0.226323
2140.000000	0.225020
2139.000000	0.224527
2138.000000	0.222010
2137.000000	0.221115
2136.000000	0.220967
2135.000000	0.219904
2134.000000	0.218305
2133.000000	0.218800
2132.000000	0.217505
2131.000000	0.216914
2130.000000	0.215403
2129.000000	0.214744
2128.000000	0.214282
2127.000000	0.213197
2126.000000	0.213916
2125.000000	0.212557
2124.000000	0.212288
2123.000000	0.210858
2122.000000	0.209720
2121.000000	0.209316
2120.000000	0.209913
2119.000000	0.209624
2118.000000	0.210209
2117.000000	0.209381
2116.000000	0.209755
2115.000000	0.208689
2114.000000	0.208566
2113.000000	0.209103
2112.000000	0.208672
2111.000000	0.208409
2110.000000	0.209195
2109.000000	0.208302
2108.000000	0.207965
2107.000000	0.206221
2106.000000	0.207085
2105.000000	0.205786
2104.000000	0.206673
2103.000000	0.207932
2102.000000	0.206782
2101.000000	0.206691
2100.000000	0.205959
2099.000000	0.207187
2098.000000	0.208313
2097.000000	0.208380
2096.000000	0.207389
2095.000000	0.207930
2094.000000	0.207445
2093.000000	0.207560
2092.000000	0.207710
2091.000000	0.207589
2090.000000	0.208532
2089.000000	0.207953
2088.000000	0.208598
2087.000000	0.208220
2086.000000	0.208601
2085.000000	0.209447
2084.000000	0.210891
2083.000000	0.211556
2082.000000	0.212184
2081.000000	0.212466
2080.000000	0.213958
2079.000000	0.214471
2078.000000	0.215161
2077.000000	0.216304
2076.000000	0.216378
2075.000000	0.217971
2074.000000	0.219625
2073.000000	0.221074
2072.000000	0.221770
2071.000000	0.222489
2070.000000	0.223226
2069.000000	0.225443
2068.000000	0.227599
2067.000000	0.228185
2066.000000	0.229578
2065.000000	0.231780
2064.000000	0.232403
2063.000000	0.233720
2062.000000	0.235903
2061.000000	0.238066
2060.000000	0.239495
2059.000000	0.241005
2058.000000	0.242965
2057.000000	0.244216
2056.000000	0.246212
2055.000000	0.247530
2054.000000	0.249314
2053.000000	0.250899
2052.000000	0.251904
2051.000000	0.253599
2050.000000	0.254851
2049.000000	0.255816
2048.000000	0.256822
2047.000000	0.257810
2046.000000	0.258517
2045.000000	0.259641
2044.000000	0.260406
2043.000000	0.260291
2042.000000	0.260153
2041.000000	0.259894
2040.000000	0.260051
2039.000000	0.260002
2038.000000	0.259611
2037.000000	0.259192
2036.000000	0.258051
2035.000000	0.257182
2034.000000	0.256296
2033.000000	0.255270
2032.000000	0.253994
2031.000000	0.252817
2030.000000	0.252053
2029.000000	0.250849
2028.000000	0.249558
2027.000000	0.248685
2026.000000	0.247671
2025.000000	0.246629
2024.000000	0.245977
2023.000000	0.245138
2022.000000	0.244065
2021.000000	0.243610
2020.000000	0.243332
2019.000000	0.243031
2018.000000	0.242848
2017.000000	0.242747
2016.000000	0.243071
2015.000000	0.243238
2014.000000	0.243406
2013.000000	0.244100
2012.000000	0.244559
2011.000000	0.244697
2010.000000	0.245269
2009.000000	0.246139
2008.000000	0.247145
2007.000000	0.248118
2006.000000	0.248919
2005.000000	0.249850
2004.000000	0.250929
2003.000000	0.252056
2002.000000	0.253062
2001.000000	0.254728
2000.000000	0.256161
1999.000000	0.257067
1998.000000	0.257961
1997.000000	0.259285
1996.000000	0.260354
1995.000000	0.261894
1994.000000	0.263297
1993.000000	0.264562
1992.000000	0.266002
1991.000000	0.267737
1990.000000	0.268925
1989.000000	0.270188
1988.000000	0.271647
1987.000000	0.273091
1986.000000	0.274920
1985.000000	0.276526
1984.000000	0.277849
1983.000000	0.279132
1982.000000	0.280668
1981.000000	0.282002
1980.000000	0.283018
1979.000000	0.284352
1978.000000	0.285944
1977.000000	0.287229
1976.000000	0.289019
1975.000000	0.290551
1974.000000	0.292051
1973.000000	0.293648
1972.000000	0.294675
1971.000000	0.296233
1970.000000	0.297789
1969.000000	0.299186
1968.000000	0.300435
1967.000000	0.302191
1966.000000	0.303076
1965.000000	0.304756
1964.000000	0.306372
1963.000000	0.307403
1962.000000	0.309100
1961.000000	0.310849
1960.000000	0.311262
1959.000000	0.313103
1958.000000	0.313859
1957.000000	0.315250
1956.000000	0.316897
1955.000000	0.318004
1954.000000	0.318285
1953.000000	0.319385
1952.000000	0.320304
1951.000000	0.320735
1950.000000	0.321826
1949.000000	0.322985
1948.000000	0.323418
1947.000000	0.323591
1946.000000	0.324143
1945.000000	0.324359
1944.000000	0.323936
1943.000000	0.324213
1942.000000	0.324245
1941.000000	0.324516
1940.000000	0.323987
1939.000000	0.322128
1938.000000	0.322485
1937.000000	0.321960
1936.000000	0.320037
1935.000000	0.319245
1934.000000	0.317499
1933.000000	0.316022
1932.000000	0.314982
1931.000000	0.312567
1930.000000	0.309912
1929.000000	0.307446
1928.000000	0.305404
1927.000000	0.301434
1926.000000	0.299632
1925.000000	0.296046
1924.000000	0.293625
1923.000000	0.289791
1922.000000	0.287259
1921.000000	0.283039
1920.000000	0.279883
1919.000000	0.276080
1918.000000	0.272877
1917.000000	0.268202
1916.000000	0.265416
1915.000000	0.259724
1914.000000	0.255191
1913.000000	0.251490
1912.000000	0.247106
1911.000000	0.242179
1910.000000	0.237354
1909.000000	0.233256
1908.000000	0.228563
1907.000000	0.222926
1906.000000	0.219143
1905.000000	0.213976
1904.000000	0.208853
1903.000000	0.204020
1902.000000	0.198227
1901.000000	0.194213
1900.000000	0.189444
1899.000000	0.184024
1898.000000	0.178290
1897.000000	0.174589
1896.000000	0.169724
1895.000000	0.165319
1894.000000	0.161200
1893.000000	0.156908
1892.000000	0.152906
1891.000000	0.149163
1890.000000	0.144756
1889.000000	0.141135
1888.000000	0.137910
1887.000000	0.134563
1886.000000	0.131306
1885.000000	0.128226
1884.000000	0.125624
1883.000000	0.122595
1882.000000	0.119830
1881.000000	0.117139
1880.000000	0.114661
1879.000000	0.112724
1878.000000	0.110276
1877.000000	0.107465
1876.000000	0.106049
1875.000000	0.104323
1874.000000	0.102531
1873.000000	0.100900
1872.000000	0.099463
1871.000000	0.098098
1870.000000	0.097142
1869.000000	0.096045
1868.000000	0.095020
1867.000000	0.094206
1866.000000	0.093341
1865.000000	0.092688
1864.000000	0.091962
1863.000000	0.091454
1862.000000	0.090819
1861.000000	0.090673
1860.000000	0.090112
1859.000000	0.089494
1858.000000	0.089109
1857.000000	0.089066
1856.000000	0.088803
1855.000000	0.088498
1854.000000	0.088517
1853.000000	0.088551
1852.000000	0.088360
1851.000000	0.088161
1850.000000	0.088249
1849.000000	0.088327
1848.000000	0.088133
1847.000000	0.087997
1846.000000	0.088211
1845.000000	0.088312
1844.000000	0.088786
1843.000000	0.089256
1842.000000	0.089135
1841.000000	0.089055
1840.000000	0.089417
1839.000000	0.089586
1838.000000	0.089748
1837.000000	0.089956
1836.000000	0.090301
1835.000000	0.090725
1834.000000	0.090956
1833.000000	0.091056
1832.000000	0.091381
1831.000000	0.091900
1830.000000	0.092204
1829.000000	0.092518
1828.000000	0.092742
1827.000000	0.092849
1826.000000	0.093211
1825.000000	0.093531
1824.000000	0.093675
1823.000000	0.093989
1822.000000	0.094364
1821.000000	0.094506
1820.000000	0.094717
1819.000000	0.095205
1818.000000	0.095607
1817.000000	0.095700
1816.000000	0.095952
1815.000000	0.096298
1814.000000	0.096527
1813.000000	0.096700
1812.000000	0.096910
1811.000000	0.097256
1810.000000	0.097602
1809.000000	0.097687
1808.000000	0.098018
1807.000000	0.098458
1806.000000	0.098473
1805.000000	0.098625
1804.000000	0.099143
1803.000000	0.099428
1802.000000	0.099581
1801.000000	0.099835
1800.000000	0.100026
1799.000000	0.100376
1798.000000	0.100809
1797.000000	0.100999
1796.000000	0.101205
1795.000000	0.101496
1794.000000	0.101391
1793.000000	0.101602
1792.000000	0.102082
1791.000000	0.102172
1790.000000	0.102361
1789.000000	0.102540
1788.000000	0.102585
1787.000000	0.102906
1786.000000	0.103209
1785.000000	0.103455
1784.000000	0.103839
1783.000000	0.104195
1782.000000	0.104539
1781.000000	0.104832
1780.000000	0.105087
1779.000000	0.105375
1778.000000	0.105985
1777.000000	0.106292
1776.000000	0.106512
1775.000000	0.107222
1774.000000	0.107721
1773.000000	0.108020
1772.000000	0.108682
1771.000000	0.109117
1770.000000	0.109384
1769.000000	0.109885
1768.000000	0.110299
1767.000000	0.110718
1766.000000	0.111000
1765.000000	0.111500
1764.000000	0.111819
1763.000000	0.112266
1762.000000	0.112618
1761.000000	0.113094
1760.000000	0.113527
1759.000000	0.113730
1758.000000	0.114013
1757.000000	0.114220
1756.000000	0.114577
1755.000000	0.114789
1754.000000	0.115306
1753.000000	0.115883
1752.000000	0.116271
1751.000000	0.116633
1750.000000	0.117195
1749.000000	0.117396
1748.000000	0.117870
1747.000000	0.118417
1746.000000	0.118812
1745.000000	0.119458
1744.000000	0.119865
1743.000000	0.120251
1742.000000	0.120927
1741.000000	0.121636
1740.000000	0.121873
1739.000000	0.122385
1738.000000	0.122760
1737.000000	0.123178
1736.000000	0.123546
1735.000000	0.123647
1734.000000	0.123866
1733.000000	0.124087
1732.000000	0.124160
1731.000000	0.124154
1730.000000	0.124026
1729.000000	0.123888
1728.000000	0.123644
1727.000000	0.123315
1726.000000	0.122911
1725.000000	0.122155
1724.000000	0.121882
1723.000000	0.121490
1722.000000	0.120646
1721.000000	0.119854
1720.000000	0.119065
1719.000000	0.118235
1718.000000	0.117612
1717.000000	0.116683
1716.000000	0.116110
1715.000000	0.115514
1714.000000	0.114521
1713.000000	0.113876
1712.000000	0.113323
1711.000000	0.112720
1710.000000	0.112088
1709.000000	0.111549
1708.000000	0.111194
1707.000000	0.110842
1706.000000	0.110206
1705.000000	0.110149
1704.000000	0.109783
1703.000000	0.109375
1702.000000	0.109355
1701.000000	0.109163
1700.000000	0.108961
1699.000000	0.108918
1698.000000	0.108473
1697.000000	0.108301
1696.000000	0.107781
1695.000000	0.107681
1694.000000	0.107289
1693.000000	0.106852
1692.000000	0.106813
1691.000000	0.106077
1690.000000	0.105472
1689.000000	0.104928
1688.000000	0.104177
1687.000000	0.103513
1686.000000	0.102706
1685.000000	0.102036
1684.000000	0.100833
1683.000000	0.100264
1682.000000	0.099218
1681.000000	0.098026
1680.000000	0.096827
1679.000000	0.095952
1678.000000	0.094899
1677.000000	0.093967
1676.000000	0.092878
1675.000000	0.091767
1674.000000	0.090578
1673.000000	0.089697
1672.000000	0.088683
1671.000000	0.087830
1670.000000	0.086937
1669.000000	0.085930
1668.000000	0.085154
1667.000000	0.084333
1666.000000	0.083700
1665.000000	0.083081
1664.000000	0.082600
1663.000000	0.082210
1662.000000	0.081732
1661.000000	0.081223
1660.000000	0.080929
1659.000000	0.080506
1658.000000	0.080329
1657.000000	0.080212
1656.000000	0.080132
1655.000000	0.079755
1654.000000	0.079708
1653.000000	0.079528
1652.000000	0.079359
1651.000000	0.079509
1650.000000	0.079404
1649.000000	0.079482
1648.000000	0.079508
1647.000000	0.079591
1646.000000	0.079532
1645.000000	0.079803
1644.000000	0.079903
1643.000000	0.079917
1642.000000	0.080189
1641.000000	0.080302
1640.000000	0.080350
1639.000000	0.080487
1638.000000	0.080642
1637.000000	0.080983
1636.000000	0.081284
1635.000000	0.081566
1634.000000	0.081633
1633.000000	0.081831
1632.000000	0.082060
1631.000000	0.082263
1630.000000	0.082587
1629.000000	0.082691
1628.000000	0.082981
1627.000000	0.083449
1626.000000	0.083726
1625.000000	0.083942
1624.000000	0.084078
1623.000000	0.084451
1622.000000	0.084821
1621.000000	0.085218
1620.000000	0.085512
1619.000000	0.085881
1618.000000	0.086267
1617.000000	0.086549
1616.000000	0.086783
1615.000000	0.087055
1614.000000	0.087556
1613.000000	0.088025
1612.000000	0.088323
1611.000000	0.088689
1610.000000	0.089085
1609.000000	0.089447
1608.000000	0.089771
1607.000000	0.090075
1606.000000	0.090597
1605.000000	0.091100
1604.000000	0.091505
1603.000000	0.091863
1602.000000	0.092346
1601.000000	0.092757
1600.000000	0.093069
1599.000000	0.093441
1598.000000	0.093907
1597.000000	0.094393
1596.000000	0.094753
1595.000000	0.095102
1594.000000	0.095426
1593.000000	0.095737
1592.000000	0.096110
1591.000000	0.096570
1590.000000	0.096900
1589.000000	0.097258
1588.000000	0.097753
1587.000000	0.098028
1586.000000	0.098362
1585.000000	0.098729
1584.000000	0.099014
1583.000000	0.099252
1582.000000	0.099706
1581.000000	0.100073
1580.000000	0.100343
1579.000000	0.100698
1578.000000	0.100936
1577.000000	0.101277
1576.000000	0.101646
1575.000000	0.101961
1574.000000	0.102349
1573.000000	0.102653
1572.000000	0.102917
1571.000000	0.103141
1570.000000	0.103461
1569.000000	0.103815
1568.000000	0.104115
1567.000000	0.104456
1566.000000	0.104672
1565.000000	0.104948
1564.000000	0.105198
1563.000000	0.105378
1562.000000	0.105506
1561.000000	0.105804
1560.000000	0.105913
1559.000000	0.106110
1558.000000	0.106185
1557.000000	0.106323
1556.000000	0.106522
1555.000000	0.106765
1554.000000	0.107095
1553.000000	0.107106
1552.000000	0.107477
1551.000000	0.107694
1550.000000	0.107895
1549.000000	0.108237
1548.000000	0.108457
1547.000000	0.108885
1546.000000	0.109276
1545.000000	0.109697
1544.000000	0.110198
1543.000000	0.110608
1542.000000	0.111137
1541.000000	0.111739
1540.000000	0.112288
1539.000000	0.112828
1538.000000	0.113477
1537.000000	0.114122
1536.000000	0.114788
1535.000000	0.115290
1534.000000	0.116045
1533.000000	0.116542
1532.000000	0.117214
1531.000000	0.117740
1530.000000	0.118299
1529.000000	0.119057
1528.000000	0.119591
1527.000000	0.119970
1526.000000	0.120544
1525.000000	0.121100
1524.000000	0.121408
1523.000000	0.121957
1522.000000	0.122447
1521.000000	0.122922
1520.000000	0.123306
1519.000000	0.123546
1518.000000	0.123788
1517.000000	0.124138
1516.000000	0.124554
1515.000000	0.124916
1514.000000	0.125090
1513.000000	0.125366
1512.000000	0.125585
1511.000000	0.125623
1510.000000	0.126081
1509.000000	0.126243
1508.000000	0.126409
1507.000000	0.126848
1506.000000	0.126792
1505.000000	0.126973
1504.000000	0.127115
1503.000000	0.127193
1502.000000	0.127370
1501.000000	0.127487
1500.000000	0.127619
1499.000000	0.127557
1498.000000	0.127662
1497.000000	0.127751
1496.000000	0.127730
1495.000000	0.127628
1494.000000	0.127710
1493.000000	0.127543
1492.000000	0.127547
1491.000000	0.127296
1490.000000	0.127216
1489.000000	0.127165
1488.000000	0.126841
1487.000000	0.126672
1486.000000	0.126509
1485.000000	0.126103
1484.000000	0.126047
1483.000000	0.125665
1482.000000	0.125399
1481.000000	0.125158
1480.000000	0.124805
1479.000000	0.124565
1478.000000	0.124305
1477.000000	0.124032
1476.000000	0.123835
1475.000000	0.123372
1474.000000	0.123214
1473.000000	0.122946
1472.000000	0.122690
1471.000000	0.122347
1470.000000	0.122387
1469.000000	0.121985
1468.000000	0.121821
1467.000000	0.121435
1466.000000	0.121101
1465.000000	0.120842
1464.000000	0.120583
1463.000000	0.120324
1462.000000	0.120101
1461.000000	0.120004
1460.000000	0.119622
1459.000000	0.119277
1458.000000	0.119048
1457.000000	0.118788
1456.000000	0.118493
1455.000000	0.118028
1454.000000	0.117774
1453.000000	0.117415
1452.000000	0.117052
1451.000000	0.116622
1450.000000	0.116176
1449.000000	0.115688
1448.000000	0.115354
1447.000000	0.114925
1446.000000	0.114442
1445.000000	0.113944
1444.000000	0.113439
1443.000000	0.112795
1442.000000	0.112408
1441.000000	0.111773
1440.000000	0.111245
1439.000000	0.110741
1438.000000	0.110082
1437.000000	0.109485
1436.000000	0.108858
1435.000000	0.108125
1434.000000	0.107538
1433.000000	0.106851
1432.000000	0.106190
1431.000000	0.105347
1430.000000	0.104539
1429.000000	0.103698
1428.000000	0.102842
1427.000000	0.102124
1426.000000	0.101330
1425.000000	0.100428
1424.000000	0.099418
1423.000000	0.098442
1422.000000	0.097420
1421.000000	0.096513
1420.000000	0.095477
1419.000000	0.094466
1418.000000	0.093259
1417.000000	0.092292
1416.000000	0.091271
1415.000000	0.090120
1414.000000	0.088926
1413.000000	0.087818
1412.000000	0.086798
1411.000000	0.085673
1410.000000	0.084502
1409.000000	0.083405
1408.000000	0.082183
1407.000000	0.081089
1406.000000	0.079989
1405.000000	0.079010
1404.000000	0.077983
1403.000000	0.076865
1402.000000	0.075835
1401.000000	0.074946
1400.000000	0.073982
1399.000000	0.072971
1398.000000	0.071964
1397.000000	0.071140
1396.000000	0.070291
1395.000000	0.069518
1394.000000	0.068746
1393.000000	0.067821
1392.000000	0.066966
1391.000000	0.066136
1390.000000	0.065513
1389.000000	0.064971
1388.000000	0.064269
1387.000000	0.063608
1386.000000	0.063062
1385.000000	0.062466
1384.000000	0.061934
1383.000000	0.061417
1382.000000	0.060910
1381.000000	0.060512
1380.000000	0.060102
1379.000000	0.059570
1378.000000	0.059223
1377.000000	0.058932
1376.000000	0.058527
1375.000000	0.058302
1374.000000	0.058094
1373.000000	0.057774
1372.000000	0.057411
1371.000000	0.057125
1370.000000	0.056909
1369.000000	0.056569
1368.000000	0.056367
1367.000000	0.056293
1366.000000	0.056007
1365.000000	0.055728
1364.000000	0.055470
1363.000000	0.055269
1362.000000	0.055095
1361.000000	0.054874
1360.000000	0.054686
1359.000000	0.054480
1358.000000	0.054276
1357.000000	0.054129
1356.000000	0.053917
1355.000000	0.053688
1354.000000	0.053550
1353.000000	0.053268
1352.000000	0.053037
1351.000000	0.052735
1350.000000	0.052359
1349.000000	0.052140
1348.000000	0.052003
1347.000000	0.051970
1346.000000	0.051725
1345.000000	0.051426
1344.000000	0.051446
1343.000000	0.051265
1342.000000	0.050983
1341.000000	0.050767
1340.000000	0.050652
1339.000000	0.050435
1338.000000	0.050266
1337.000000	0.050115
1336.000000	0.049830
1335.000000	0.049876
1334.000000	0.049759
1333.000000	0.049547
1332.000000	0.049452
1331.000000	0.049247
1330.000000	0.049214
1329.000000	0.049117
1328.000000	0.049037
1327.000000	0.048766
1326.000000	0.048861
1325.000000	0.048833
1324.000000	0.048693
1323.000000	0.048577
1322.000000	0.048490
1321.000000	0.048337
1320.000000	0.048409
1319.000000	0.048335
1318.000000	0.048171
1317.000000	0.048308
1316.000000	0.048317
1315.000000	0.048228
1314.000000	0.048199
1313.000000	0.048144
1312.000000	0.047971
1311.000000	0.048118
1310.000000	0.047904
1309.000000	0.047897
1308.000000	0.048019
1307.000000	0.047947
1306.000000	0.047871
1305.000000	0.047886
1304.000000	0.047788
1303.000000	0.047955
1302.000000	0.047899
1301.000000	0.047858
1300.000000	0.047869
1299.000000	0.047904
1298.000000	0.047934
1297.000000	0.048024
1296.000000	0.047964
1295.000000	0.048011
1294.000000	0.048191
1293.000000	0.048247
1292.000000	0.048129
1291.000000	0.048258
1290.000000	0.048321
1289.000000	0.048344
1288.000000	0.048473
1287.000000	0.048503
1286.000000	0.048449
1285.000000	0.048657
1284.000000	0.048664
1283.000000	0.048664
1282.000000	0.048684
1281.000000	0.048669
1280.000000	0.048896
1279.000000	0.048970
1278.000000	0.048882
1277.000000	0.048980
1276.000000	0.048977
1275.000000	0.048999
1274.000000	0.049082
1273.000000	0.049110
1272.000000	0.049223
1271.000000	0.049069
1270.000000	0.049115
1269.000000	0.049200
1268.000000	0.049152
1267.000000	0.049174
1266.000000	0.049401
1265.000000	0.049465
1264.000000	0.049230
1263.000000	0.049304
1262.000000	0.049371
1261.000000	0.049359
1260.000000	0.049220
1259.000000	0.049413
1258.000000	0.049401
1257.000000	0.049345
1256.000000	0.049377
1255.000000	0.049403
1254.000000	0.049501
1253.000000	0.049651
1252.000000	0.049475
1251.000000	0.049590
1250.000000	0.049673
1249.000000	0.049701
1248.000000	0.049704
1247.000000	0.049950
1246.000000	0.049908
1245.000000	0.050045
1244.000000	0.050241
1243.000000	0.050363
1242.000000	0.050502
1241.000000	0.050588
1240.000000	0.050770
1239.000000	0.050783
1238.000000	0.051004
1237.000000	0.051186
1236.000000	0.051374
1235.000000	0.051525
1234.000000	0.051705
1233.000000	0.051896
1232.000000	0.052009
1231.000000	0.052189
1230.000000	0.052309
1229.000000	0.052460
1228.000000	0.052617
1227.000000	0.052880
1226.000000	0.052999
1225.000000	0.053136
1224.000000	0.053363
1223.000000	0.053508
1222.000000	0.053647
1221.000000	0.053918
1220.000000	0.054135
1219.000000	0.054230
1218.000000	0.054309
1217.000000	0.054436
1216.000000	0.054577
1215.000000	0.054750
1214.000000	0.055017
1213.000000	0.055191
1212.000000	0.055230
1211.000000	0.055501
1210.000000	0.055779
1209.000000	0.055794
1208.000000	0.055936
1207.000000	0.056069
1206.000000	0.056334
1205.000000	0.056283
1204.000000	0.056562
1203.000000	0.056709
1202.000000	0.056996
1201.000000	0.057082
1200.000000	0.057148
1199.000000	0.057359
1198.000000	0.057544
1197.000000	0.057566
1196.000000	0.057685
1195.000000	0.057789
1194.000000	0.058009
1193.000000	0.058153
1192.000000	0.058263
1191.000000	0.058246
1190.000000	0.058450
1189.000000	0.058531
1188.000000	0.058560
1187.000000	0.058654
1186.000000	0.058641
1185.000000	0.058585
1184.000000	0.058664
1183.000000	0.058576
1182.000000	0.058454
1181.000000	0.058421
1180.000000	0.058356
1179.000000	0.058247
1178.000000	0.058134
1177.000000	0.058083
1176.000000	0.057949
1175.000000	0.057732
1174.000000	0.057553
1173.000000	0.057409
1172.000000	0.057204
1171.000000	0.056949
1170.000000	0.056735
1169.000000	0.056562
1168.000000	0.056367
1167.000000	0.056122
1166.000000	0.055893
1165.000000	0.055632
1164.000000	0.055326
1163.000000	0.055057
1162.000000	0.054856
1161.000000	0.054619
1160.000000	0.054316
1159.000000	0.054058
1158.000000	0.053840
1157.000000	0.053634
1156.000000	0.053455
1155.000000	0.053239
1154.000000	0.053039
1153.000000	0.052857
1152.000000	0.052622
1151.000000	0.052471
1150.000000	0.052327
1149.000000	0.052151
1148.000000	0.052041
1147.000000	0.051817
1146.000000	0.051648
1145.000000	0.051588
1144.000000	0.051496
1143.000000	0.051326
1142.000000	0.051216
1141.000000	0.051112
1140.000000	0.050937
1139.000000	0.050852
1138.000000	0.050834
1137.000000	0.050726
1136.000000	0.050537
1135.000000	0.050388
1134.000000	0.050293
1133.000000	0.050220
1132.000000	0.050209
1131.000000	0.050195
1130.000000	0.050070
1129.000000	0.049973
1128.000000	0.049968
1127.000000	0.050037
1126.000000	0.049917
1125.000000	0.049878
1124.000000	0.049884
1123.000000	0.049852
1122.000000	0.049852
1121.000000	0.049794
1120.000000	0.049792
1119.000000	0.049889
1118.000000	0.049875
1117.000000	0.049940
1116.000000	0.049890
1115.000000	0.049895
1114.000000	0.050038
1113.000000	0.050054
1112.000000	0.050075
1111.000000	0.050193
1110.000000	0.050255
1109.000000	0.050211
1108.000000	0.050279
1107.000000	0.050343
1106.000000	0.050406
1105.000000	0.050493
1104.000000	0.050563
1103.000000	0.050486
1102.000000	0.050606
1101.000000	0.050619
1100.000000	0.050689
1099.000000	0.050764
1098.000000	0.050742
1097.000000	0.050786
1096.000000	0.050893
1095.000000	0.050945
1094.000000	0.050956
1093.000000	0.051012
1092.000000	0.051178
1091.000000	0.051233
1090.000000	0.051277
1089.000000	0.051370
1088.000000	0.051345
1087.000000	0.051388
1086.000000	0.051523
1085.000000	0.051586
1084.000000	0.051705
1083.000000	0.051790
1082.000000	0.051820
1081.000000	0.051838
1080.000000	0.051906
1079.000000	0.051964
1078.000000	0.051974
1077.000000	0.052074
1076.000000	0.052295
1075.000000	0.052339
1074.000000	0.052445
1073.000000	0.052523
1072.000000	0.052579
1071.000000	0.052667
1070.000000	0.052733
1069.000000	0.052883
1068.000000	0.052943
1067.000000	0.053032
1066.000000	0.053257
1065.000000	0.053254
1064.000000	0.053251
1063.000000	0.053192
1062.000000	0.053601
1061.000000	0.053543
1060.000000	0.053515
1059.000000	0.053700
1058.000000	0.053729
1057.000000	0.053803
1056.000000	0.053920
1055.000000	0.054076
1054.000000	0.054103
1053.000000	0.054225
1052.000000	0.054415
1051.000000	0.054512
1050.000000	0.054672
1049.000000	0.054631
1048.000000	0.054690
1047.000000	0.054857
1046.000000	0.054928
1045.000000	0.054928
1044.000000	0.055171
1043.000000	0.055222
1042.000000	0.055271
1041.000000	0.055378
1040.000000	0.055406
1039.000000	0.055619
1038.000000	0.055663
1037.000000	0.055751
1036.000000	0.055729
1035.000000	0.055902
1034.000000	0.055963
1033.000000	0.056037
1032.000000	0.056137
1031.000000	0.056323
1030.000000	0.056268
1029.000000	0.056418
1028.000000	0.056557
1027.000000	0.056494
1026.000000	0.056547
1025.000000	0.056738
1024.000000	0.056817
1023.000000	0.056961
1022.000000	0.056937
1021.000000	0.056867
1020.000000	0.056955
1019.000000	0.057078
1018.000000	0.057094
1017.000000	0.057201
1016.000000	0.057360
1015.000000	0.057375
1014.000000	0.057432
1013.000000	0.057437
1012.000000	0.057438
1011.000000	0.057563
1010.000000	0.057606
1009.000000	0.057668
1008.000000	0.057741
1007.000000	0.057817
1006.000000	0.057897
1005.000000	0.057767
1004.000000	0.057887
1003.000000	0.057957
1002.000000	0.057970
1001.000000	0.058132
1000.000000	0.058168
999.000000	0.058195
998.000000	0.058238
997.000000	0.058304
996.000000	0.058360
995.000000	0.058436
994.000000	0.058541
993.000000	0.058648
992.000000	0.058621
991.000000	0.058666
990.000000	0.058700
989.000000	0.058743
988.000000	0.058833
987.000000	0.058857
986.000000	0.059021
985.000000	0.058999
984.000000	0.058960
983.000000	0.059044
982.000000	0.059204
981.000000	0.059333
980.000000	0.059393
979.000000	0.059319
978.000000	0.059375
977.000000	0.059402
976.000000	0.059472
975.000000	0.059610
974.000000	0.059658
973.000000	0.059644
972.000000	0.059733
971.000000	0.059840
970.000000	0.059839
969.000000	0.059792
968.000000	0.059930
967.000000	0.060010
966.000000	0.060099
965.000000	0.060135
964.000000	0.060135
963.000000	0.060323
962.000000	0.060302
961.000000	0.060253
960.000000	0.060348
959.000000	0.060501
958.000000	0.060468
957.000000	0.060563
956.000000	0.060674
955.000000	0.060628
954.000000	0.060720
953.000000	0.060743
952.000000	0.060879
951.000000	0.061052
950.000000	0.061049
949.000000	0.061108
948.000000	0.061195
947.000000	0.061409
946.000000	0.061467
945.000000	0.061429
944.000000	0.061647
943.000000	0.061660
942.000000	0.061869
941.000000	0.062013
940.000000	0.061981
939.000000	0.062175
938.000000	0.062187
937.000000	0.062184
936.000000	0.062286
935.000000	0.062412
934.000000	0.062451
933.000000	0.062643
932.000000	0.062772
931.000000	0.062728
930.000000	0.062905
929.000000	0.063017
928.000000	0.062935
927.000000	0.063230
926.000000	0.063314
925.000000	0.063385
924.000000	0.063535
923.000000	0.063719
922.000000	0.063693
921.000000	0.063832
920.000000	0.064026
919.000000	0.064251
918.000000	0.064261
917.000000	0.064216
916.000000	0.064111
915.000000	0.064282
914.000000	0.064667
913.000000	0.064824
912.000000	0.064683
911.000000	0.064703
910.000000	0.064868
909.000000	0.064900
908.000000	0.064976
907.000000	0.065256
906.000000	0.065446
905.000000	0.065543
904.000000	0.065789
903.000000	0.065752
902.000000	0.065644
901.000000	0.065885
900.000000	0.066096
899.000000	0.066013
898.000000	0.066011
897.000000	0.066304
896.000000	0.066490
895.000000	0.066141
894.000000	0.066543
893.000000	0.066698
892.000000	0.066847
891.000000	0.066799
890.000000	0.067178
889.000000	0.067135
888.000000	0.067005
887.000000	0.067007
886.000000	0.067334
885.000000	0.067262
884.000000	0.067845
883.000000	0.067584
882.000000	0.067962
881.000000	0.068425
880.000000	0.067910
879.000000	0.068227
878.000000	0.067715
877.000000	0.068283
876.000000	0.067942
875.000000	0.068727
874.000000	0.069072
873.000000	0.068705
872.000000	0.068830
871.000000	0.068261
870.000000	0.068855
869.000000	0.069423
868.000000	0.069888
867.000000	0.070093
866.000000	0.069396
865.000000	0.069702
864.000000	0.069969
863.000000	0.069726
862.000000	0.070931
861.000000	0.070466
860.000000	0.070292
859.000000	0.068742
858.000000	0.068746
857.000000	0.068165
856.000000	0.065241
855.000000	0.068771
854.000000	0.065289
853.000000	0.068736
852.000000	0.068954
851.000000	0.066471
850.000000	0.069518
849.000000	0.069303
848.000000	0.068021
847.000000	0.069544
846.000000	0.068510
845.000000	0.068882
844.000000	0.070411
843.000000	0.070440
842.000000	0.071369
841.000000	0.070390
840.000000	0.070801
839.000000	0.071559
838.000000	0.069083
837.000000	0.071285
836.000000	0.070090
835.000000	0.071974
834.000000	0.071877
833.000000	0.070635
832.000000	0.072387
831.000000	0.071251
830.000000	0.073227
829.000000	0.072911
828.000000	0.073289
827.000000	0.073937
826.000000	0.072601
825.000000	0.074354
824.000000	0.073945
823.000000	0.074038
822.000000	0.074786
821.000000	0.075121
820.000000	0.074954
819.000000	0.074531
818.000000	0.074936
817.000000	0.074918
816.000000	0.075954
815.000000	0.076150
814.000000	0.075703
813.000000	0.076284
812.000000	0.076195
811.000000	0.075420
810.000000	0.077015
809.000000	0.077253
808.000000	0.077098
807.000000	0.076858
806.000000	0.076811
805.000000	0.078412
804.000000	0.078304
803.000000	0.077611
802.000000	0.078213
801.000000	0.078178
800.000000	0.078783
799.000000	0.078407
798.000000	0.078577
797.000000	0.079804
796.000000	0.079887
795.000000	0.080009
794.000000	0.081305
793.000000	0.080171
792.000000	0.080733
791.000000	0.080746
790.000000	0.081198
789.000000	0.082275
788.000000	0.081616
787.000000	0.081999
786.000000	0.082296
785.000000	0.082644
784.000000	0.083083
783.000000	0.083325
782.000000	0.083802
781.000000	0.083643
780.000000	0.084451
779.000000	0.084755
778.000000	0.084985
777.000000	0.085410
776.000000	0.085069
775.000000	0.085986
774.000000	0.086014
773.000000	0.086335
772.000000	0.086701
771.000000	0.086238
770.000000	0.086774
769.000000	0.086911
768.000000	0.087366
767.000000	0.088461
766.000000	0.088575
765.000000	0.089226
764.000000	0.089601
763.000000	0.089400
762.000000	0.090383
761.000000	0.090896
760.000000	0.090834
759.000000	0.090754
758.000000	0.091327
757.000000	0.091944
756.000000	0.091550
755.000000	0.091775
754.000000	0.092114
753.000000	0.092626
752.000000	0.093199
751.000000	0.093601
750.000000	0.094423
749.000000	0.094568
748.000000	0.095048
747.000000	0.096278
746.000000	0.096603
745.000000	0.096749
744.000000	0.096809
743.000000	0.096770
742.000000	0.097751
741.000000	0.098076
740.000000	0.098131
739.000000	0.099376
738.000000	0.099049
737.000000	0.099067
736.000000	0.100060
735.000000	0.100910
734.000000	0.100902
733.000000	0.101521
732.000000	0.101895
731.000000	0.102071
730.000000	0.102778
729.000000	0.103594
728.000000	0.103700
727.000000	0.104106
726.000000	0.104434
725.000000	0.105182
724.000000	0.105791
723.000000	0.106167
722.000000	0.106613
721.000000	0.106466
720.000000	0.107148
719.000000	0.108232
718.000000	0.108453
717.000000	0.109154
716.000000	0.109784
715.000000	0.110263
714.000000	0.110752
713.000000	0.111296
712.000000	0.112330
711.000000	0.112525
710.000000	0.112519
709.000000	0.113062
708.000000	0.113840
707.000000	0.114517
706.000000	0.114808
705.000000	0.115462
704.000000	0.116353
703.000000	0.116875
702.000000	0.117437
701.000000	0.117916
700.000000	0.118640
699.000000	0.119422
698.000000	0.119828
697.000000	0.120077
696.000000	0.120634
695.000000	0.121654
694.000000	0.122154
693.000000	0.122558
692.000000	0.123503
691.000000	0.124354
690.000000	0.125309
689.000000	0.126016
688.000000	0.126468
687.000000	0.127109
686.000000	0.127925
685.000000	0.128216
684.000000	0.128907
683.000000	0.129703
682.000000	0.130837
681.000000	0.131642
680.000000	0.132295
679.000000	0.132829
678.000000	0.133255
677.000000	0.134342
676.000000	0.135385
675.000000	0.136079
674.000000	0.136746
673.000000	0.137366
672.000000	0.137983
671.000000	0.138896
670.000000	0.139627
669.000000	0.140738
668.000000	0.141518
667.000000	0.141923
666.000000	0.142772
665.000000	0.143889
664.000000	0.144656
663.000000	0.145338
662.000000	0.146453
661.000000	0.147509
660.000000	0.147973
659.000000	0.148950
658.000000	0.150031
657.000000	0.150806
656.000000	0.151399
655.000000	0.152415
654.000000	0.153441
653.000000	0.154006
652.000000	0.155096
651.000000	0.155815
650.000000	0.156845
649.000000	0.157781
648.000000	0.158811
647.000000	0.159751
646.000000	0.160674
645.000000	0.161590
644.000000	0.162994
643.000000	0.163768
642.000000	0.164793
641.000000	0.165513
640.000000	0.166964
639.000000	0.167676
638.000000	0.168452
637.000000	0.169462
636.000000	0.170796
635.000000	0.171853
634.000000	0.172910
633.000000	0.173842
632.000000	0.174850
631.000000	0.175854
630.000000	0.176791
629.000000	0.178030
628.000000	0.179083
627.000000	0.179949
626.000000	0.181492
625.000000	0.182402
624.000000	0.183415
623.000000	0.184572
622.000000	0.185940
621.000000	0.187477
620.000000	0.188149
619.000000	0.189173
618.000000	0.190465
617.000000	0.191458
616.000000	0.192682
615.000000	0.194032
614.000000	0.195314
613.000000	0.196156
612.000000	0.197050
611.000000	0.198915
610.000000	0.199834
609.000000	0.200924
608.000000	0.202846
607.000000	0.204200
606.000000	0.205407
605.000000	0.206380
604.000000	0.207662
603.000000	0.209173
602.000000	0.209580
601.000000	0.211678
600.000000	0.212787
599.000000	0.214254
598.000000	0.216346
597.000000	0.217307
596.000000	0.218313
595.000000	0.219797
594.000000	0.220801
593.000000	0.222355
592.000000	0.223837
591.000000	0.224938
590.000000	0.226990
589.000000	0.228164
588.000000	0.229627
587.000000	0.231243
586.000000	0.232727
585.000000	0.233703
584.000000	0.235096
583.000000	0.237078
582.000000	0.238353
581.000000	0.239506
580.000000	0.241195
579.000000	0.243371
578.000000	0.244571
577.000000	0.246113
576.000000	0.247541
575.000000	0.248981
574.000000	0.251099
573.000000	0.252186
572.000000	0.253820
571.000000	0.255853
570.000000	0.256912
569.000000	0.258974
568.000000	0.260654
567.000000	0.262115
566.000000	0.264172
565.000000	0.265279
564.000000	0.267155
563.000000	0.268698
562.000000	0.271040
561.000000	0.272670
560.000000	0.274933
559.000000	0.276098
558.000000	0.278368
557.000000	0.280117
556.000000	0.281892
555.000000	0.283913
554.000000	0.285624
553.000000	0.287286
552.000000	0.289243
551.000000	0.290920
550.000000	0.292781
549.000000	0.294567
548.000000	0.296682
547.000000	0.298125
546.000000	0.300389
545.000000	0.302350
544.000000	0.304448
543.000000	0.306273
542.000000	0.308160
541.000000	0.310052
540.000000	0.312244
539.000000	0.314234
538.000000	0.315948
537.000000	0.318041
536.000000	0.320291
535.000000	0.322191
534.000000	0.324572
533.000000	0.326310
532.000000	0.328576
531.000000	0.330611
530.000000	0.332593
529.000000	0.334756
528.000000	0.336823
527.000000	0.338707
526.000000	0.341055
525.000000	0.343155
524.000000	0.345426
523.000000	0.347398
522.000000	0.349766
521.000000	0.352009
520.000000	0.353932
519.000000	0.356592
518.000000	0.359006
517.000000	0.361291
516.000000	0.363446
515.000000	0.365482
514.000000	0.368097
513.000000	0.370110
512.000000	0.372488
511.000000	0.375011
510.000000	0.377633
509.000000	0.380034
508.000000	0.382384
507.000000	0.384992
506.000000	0.387796
505.000000	0.390195
504.000000	0.392612
503.000000	0.394809
502.000000	0.397508
501.000000	0.400203
500.000000	0.402453
499.000000	0.405088
498.000000	0.407251
497.000000	0.409903
496.000000	0.412676
495.000000	0.414896
494.000000	0.417283
493.000000	0.419568
492.000000	0.422269
491.000000	0.425120
490.000000	0.427294
489.000000	0.430252
488.000000	0.433734
487.000000	0.436272
486.000000	0.438779
485.000000	0.441230
484.000000	0.443486
483.000000	0.446263
482.000000	0.448994
481.000000	0.452093
480.000000	0.454236
479.000000	0.456939
478.000000	0.459806
477.000000	0.462806
476.000000	0.465759
475.000000	0.468311
474.000000	0.470984
473.000000	0.473919
472.000000	0.476427
471.000000	0.478996
470.000000	0.482109
469.000000	0.485467
468.000000	0.488236
467.000000	0.490845
466.000000	0.493750
465.000000	0.496694
464.000000	0.499980
463.000000	0.502989
462.000000	0.505579
461.000000	0.508548
460.000000	0.511681
459.000000	0.514993
458.000000	0.518389
457.000000	0.521311
456.000000	0.524293
455.000000	0.527107
454.000000	0.530473
453.000000	0.534513
452.000000	0.537647
451.000000	0.540658
450.000000	0.544213
449.000000	0.547644
448.000000	0.551168
447.000000	0.554625
446.000000	0.558034
445.000000	0.561217
444.000000	0.564855
443.000000	0.568550
442.000000	0.572375
441.000000	0.576271
440.000000	0.579492
439.000000	0.583663
438.000000	0.587745
437.000000	0.591372
436.000000	0.595252
435.000000	0.598700
434.000000	0.602486
433.000000	0.606267
432.000000	0.609960
431.000000	0.613984
430.000000	0.618437
429.000000	0.622286
428.000000	0.625687
427.000000	0.629245
426.000000	0.633163
425.000000	0.637752
424.000000	0.641859
423.000000	0.645599
422.000000	0.649792
421.000000	0.654230
420.000000	0.658259
419.000000	0.661893
418.000000	0.665564
417.000000	0.669931
416.000000	0.674318
415.000000	0.678454
414.000000	0.682044
413.000000	0.686210
412.000000	0.691057
411.000000	0.695743
410.000000	0.699771
409.000000	0.703465
408.000000	0.707590
407.000000	0.711584
406.000000	0.716423
405.000000	0.721183
404.000000	0.725613
403.000000	0.729056
402.000000	0.733734
401.000000	0.738262
400.000000	0.742162
399.000000	0.746246
398.000000	0.751238
397.000000	0.755302
396.000000	0.758331
395.000000	0.762962
394.000000	0.768247
393.000000	0.772501
392.000000	0.777708
391.000000	0.780521
390.000000	0.784636
389.000000	0.790276
388.000000	0.795931
387.000000	0.799575
386.000000	0.803140
385.000000	0.807636
384.000000	0.812043
383.000000	0.816689
382.000000	0.821412
381.000000	0.826822
380.000000	0.830619
379.000000	0.834771
378.000000	0.838481
377.000000	0.844010
376.000000	0.848378
375.000000	0.852129
374.000000	0.856773
373.000000	0.859590
372.000000	0.867170
371.000000	0.871369
370.000000	0.874056
369.000000	0.879662
368.000000	0.881914
367.000000	0.887438
366.000000	0.892128
365.000000	0.895854
364.000000	0.898410
363.000000	0.903944
362.000000	0.907950
361.000000	0.911560
360.000000	0.915910
359.000000	0.921033
358.000000	0.923152
357.000000	0.928236
356.000000	0.931281
355.000000	0.934818
354.000000	0.937951
353.000000	0.942560
352.000000	0.946993
351.000000	0.951681
350.000000	0.956066
349.000000	0.956922
348.000000	0.960620
347.000000	0.962151
346.000000	0.968334
345.000000	0.968807
344.000000	0.974612
343.000000	0.977037
342.000000	0.983487
341.000000	0.983705
340.000000	0.987727
339.000000	0.989911
338.000000	0.998023
337.000000	0.998325
336.000000	1.004069
335.000000	1.004692
334.000000	1.006087
333.000000	1.011050
332.000000	1.014554
331.000000	1.012083
330.000000	1.019122
329.000000	1.019890
328.000000	1.025290
327.000000	1.026337
326.000000	1.028631
325.000000	1.031071
324.000000	1.038950
323.000000	1.036693
322.000000	1.037198
321.000000	1.040016
320.000000	1.043132
319.000000	1.043470
318.000000	1.044625
317.000000	1.045352
316.000000	1.044950
315.000000	1.048200
314.000000	1.049396
313.000000	1.053337
312.000000	1.052966
311.000000	1.053908
310.000000	1.058265
309.000000	1.055536
308.000000	1.057877
307.000000	1.057249
306.000000	1.058859
305.000000	1.056888
304.000000	1.056853
303.000000	1.057014
302.000000	1.059191
301.000000	1.060214
300.000000	1.059962
299.000000	1.061251
298.000000	1.062366
297.000000	1.063454
296.000000	1.063722
295.000000	1.064673
294.000000	1.063543
293.000000	1.064719
292.000000	1.065596
291.000000	1.068832
290.000000	1.067358
289.000000	1.068154
288.000000	1.064611
287.000000	1.067379
286.000000	1.067907
285.000000	1.066990
284.000000	1.065055
283.000000	1.062024
282.000000	1.060967
281.000000	1.059702
280.000000	1.058975
279.000000	1.058950
278.000000	1.056110
277.000000	1.052911
276.000000	1.051891
275.000000	1.049762
274.000000	1.043204
273.000000	1.041259
272.000000	1.040935
271.000000	1.035640
270.000000	1.032455
269.000000	1.029280
268.000000	1.027005
267.000000	1.026124
266.000000	1.021589
265.000000	1.017135
264.000000	1.014476
263.000000	1.011871
262.000000	1.007487
261.000000	1.001248
260.000000	0.998774
259.000000	0.994102
258.000000	0.991298
257.000000	0.986616
256.000000	0.981456
255.000000	0.976973
254.000000	0.972953
253.000000	0.968197
252.000000	0.964898
251.000000	0.960127
250.000000	0.956224
249.000000	0.953821
248.000000	0.949030
247.000000	0.945381
246.000000	0.943101
245.000000	0.940286
244.000000	0.937008
243.000000	0.935291
242.000000	0.935652
241.000000	0.938854
240.000000	0.938085
239.000000	0.940346
238.000000	0.942162
237.000000	0.941914
236.000000	0.946509
235.000000	0.950517
234.000000	0.950682
233.000000	0.952823
232.000000	0.956031
231.000000	0.957067
230.000000	0.961515
229.000000	0.964652
228.000000	0.965060
227.000000	0.969182
226.000000	0.969845
225.000000	0.970690
224.000000	0.970010
223.000000	0.968894
222.000000	0.968227
221.000000	0.969533
220.000000	0.968407
219.000000	0.962079
218.000000	0.959851
217.000000	0.956790
216.000000	0.952394
215.000000	0.948536
214.000000	0.943655
213.000000	0.942028
212.000000	0.931005
211.000000	0.927193
210.000000	0.928649
209.000000	0.916145
208.000000	0.909949
207.000000	0.906692
206.000000	0.896544
205.000000	0.881978
204.000000	0.870878
203.000000	0.859201
202.000000	0.843753
201.000000	0.837944
200.000000	0.825061
