PE UV       SUBTECH     SPECTRUM    ASCII       PEDS        4.00        
   -1
Ams14835228grados.Sample.asc
18/03/23
15:09:54.00
18/03/23
15:09:54.00
Administrator

200.000000
1
Lambda 750
750N8071901
PerkinElmer UV WinLab 6.0.4.0738 / 1.61.00 Lambda 900

0
0
3350/servo 860.8/2
0
0
UV/VIS
1
1
1
CommonBeamDepol,150mm sphere / downward view
0
0
0
0
Program
Program
3350/servo 860.8/2
3350/0.2 860.8/0.2
3350/0.2 860.8/0.2
0
1
 
 
 
0
 
860.8
319.2
860.8
Front
100
on
 
 
0
0
0
 
0
 
 
 
0
 
 
0
0
0
0
0
 
 
 
 
0
0


0
0
#HDR
-1
-1
#GR
nm
A
1.0
0.0
2350.000000
-1.000000
2151
8
1.066164
0.045484
#DATA
2350.000000	0.290924
2349.000000	0.293654
2348.000000	0.297245
2347.000000	0.290284
2346.000000	0.289779
2345.000000	0.292944
2344.000000	0.289358
2343.000000	0.291476
2342.000000	0.291826
2341.000000	0.288948
2340.000000	0.286737
2339.000000	0.285408
2338.000000	0.285221
2337.000000	0.287348
2336.000000	0.286706
2335.000000	0.281178
2334.000000	0.282509
2333.000000	0.282014
2332.000000	0.281615
2331.000000	0.281984
2330.000000	0.282736
2329.000000	0.283259
2328.000000	0.285563
2327.000000	0.286085
2326.000000	0.285477
2325.000000	0.288674
2324.000000	0.286725
2323.000000	0.288365
2322.000000	0.289411
2321.000000	0.291169
2320.000000	0.292816
2319.000000	0.292231
2318.000000	0.294148
2317.000000	0.294985
2316.000000	0.296988
2315.000000	0.295876
2314.000000	0.297534
2313.000000	0.297498
2312.000000	0.298837
2311.000000	0.298270
2310.000000	0.299366
2309.000000	0.300464
2308.000000	0.301425
2307.000000	0.304313
2306.000000	0.303725
2305.000000	0.304587
2304.000000	0.304350
2303.000000	0.306880
2302.000000	0.304059
2301.000000	0.307108
2300.000000	0.309482
2299.000000	0.306676
2298.000000	0.306982
2297.000000	0.308498
2296.000000	0.309490
2295.000000	0.311820
2294.000000	0.310941
2293.000000	0.312020
2292.000000	0.312894
2291.000000	0.313235
2290.000000	0.311520
2289.000000	0.311265
2288.000000	0.313432
2287.000000	0.314490
2286.000000	0.314755
2285.000000	0.313425
2284.000000	0.315780
2283.000000	0.316404
2282.000000	0.315155
2281.000000	0.315306
2280.000000	0.313321
2279.000000	0.312752
2278.000000	0.313195
2277.000000	0.314760
2276.000000	0.313425
2275.000000	0.312520
2274.000000	0.311991
2273.000000	0.310698
2272.000000	0.310132
2271.000000	0.308680
2270.000000	0.308079
2269.000000	0.307181
2268.000000	0.306481
2267.000000	0.305841
2266.000000	0.302906
2265.000000	0.300641
2264.000000	0.299624
2263.000000	0.298750
2262.000000	0.296396
2261.000000	0.293542
2260.000000	0.291282
2259.000000	0.289160
2258.000000	0.288423
2257.000000	0.286617
2256.000000	0.283294
2255.000000	0.280315
2254.000000	0.277316
2253.000000	0.275656
2252.000000	0.273410
2251.000000	0.270567
2250.000000	0.267777
2249.000000	0.265280
2248.000000	0.263667
2247.000000	0.261428
2246.000000	0.258345
2245.000000	0.255009
2244.000000	0.252835
2243.000000	0.251043
2242.000000	0.249162
2241.000000	0.248065
2240.000000	0.246916
2239.000000	0.245712
2238.000000	0.244190
2237.000000	0.242043
2236.000000	0.240002
2235.000000	0.238788
2234.000000	0.237898
2233.000000	0.237843
2232.000000	0.238088
2231.000000	0.236901
2230.000000	0.235986
2229.000000	0.235216
2228.000000	0.234113
2227.000000	0.234287
2226.000000	0.236295
2225.000000	0.236363
2224.000000	0.235595
2223.000000	0.235641
2222.000000	0.234398
2221.000000	0.234378
2220.000000	0.235554
2219.000000	0.236041
2218.000000	0.236270
2217.000000	0.237420
2216.000000	0.237353
2215.000000	0.238337
2214.000000	0.238742
2213.000000	0.239755
2212.000000	0.240340
2211.000000	0.240855
2210.000000	0.242403
2209.000000	0.242861
2208.000000	0.242468
2207.000000	0.243289
2206.000000	0.243835
2205.000000	0.245383
2204.000000	0.245592
2203.000000	0.245584
2202.000000	0.248269
2201.000000	0.249107
2200.000000	0.249835
2199.000000	0.249141
2198.000000	0.249473
2197.000000	0.251782
2196.000000	0.252327
2195.000000	0.253986
2194.000000	0.256082
2193.000000	0.257582
2192.000000	0.256534
2191.000000	0.256866
2190.000000	0.258416
2189.000000	0.258529
2188.000000	0.260858
2187.000000	0.261444
2186.000000	0.261389
2185.000000	0.262546
2184.000000	0.263932
2183.000000	0.263256
2182.000000	0.262769
2181.000000	0.262941
2180.000000	0.264445
2179.000000	0.264842
2178.000000	0.266001
2177.000000	0.265359
2176.000000	0.264629
2175.000000	0.264104
2174.000000	0.264399
2173.000000	0.264305
2172.000000	0.264118
2171.000000	0.262302
2170.000000	0.260344
2169.000000	0.261774
2168.000000	0.260111
2167.000000	0.258493
2166.000000	0.258877
2165.000000	0.259279
2164.000000	0.259200
2163.000000	0.256996
2162.000000	0.254865
2161.000000	0.253615
2160.000000	0.252145
2159.000000	0.249646
2158.000000	0.249566
2157.000000	0.248333
2156.000000	0.246905
2155.000000	0.246395
2154.000000	0.244260
2153.000000	0.240235
2152.000000	0.239293
2151.000000	0.238609
2150.000000	0.238025
2149.000000	0.235478
2148.000000	0.235465
2147.000000	0.232285
2146.000000	0.231449
2145.000000	0.229466
2144.000000	0.227439
2143.000000	0.227632
2142.000000	0.225058
2141.000000	0.221964
2140.000000	0.222421
2139.000000	0.222106
2138.000000	0.220927
2137.000000	0.220290
2136.000000	0.217570
2135.000000	0.214339
2134.000000	0.215366
2133.000000	0.216772
2132.000000	0.213795
2131.000000	0.213158
2130.000000	0.212264
2129.000000	0.212264
2128.000000	0.211786
2127.000000	0.211698
2126.000000	0.209847
2125.000000	0.209123
2124.000000	0.209509
2123.000000	0.209430
2122.000000	0.208063
2121.000000	0.205329
2120.000000	0.207917
2119.000000	0.207242
2118.000000	0.207855
2117.000000	0.207514
2116.000000	0.206782
2115.000000	0.205333
2114.000000	0.206415
2113.000000	0.205833
2112.000000	0.205154
2111.000000	0.206745
2110.000000	0.206123
2109.000000	0.204348
2108.000000	0.204641
2107.000000	0.204427
2106.000000	0.204370
2105.000000	0.204318
2104.000000	0.204874
2103.000000	0.204799
2102.000000	0.204758
2101.000000	0.204284
2100.000000	0.203729
2099.000000	0.204921
2098.000000	0.205149
2097.000000	0.204548
2096.000000	0.204709
2095.000000	0.205575
2094.000000	0.204625
2093.000000	0.204796
2092.000000	0.205155
2091.000000	0.205084
2090.000000	0.205943
2089.000000	0.206192
2088.000000	0.206383
2087.000000	0.206088
2086.000000	0.207591
2085.000000	0.207477
2084.000000	0.208216
2083.000000	0.208660
2082.000000	0.209487
2081.000000	0.210215
2080.000000	0.210679
2079.000000	0.211863
2078.000000	0.213461
2077.000000	0.213748
2076.000000	0.213996
2075.000000	0.215184
2074.000000	0.216585
2073.000000	0.217761
2072.000000	0.219382
2071.000000	0.220238
2070.000000	0.220964
2069.000000	0.222710
2068.000000	0.224363
2067.000000	0.225741
2066.000000	0.227092
2065.000000	0.228864
2064.000000	0.229863
2063.000000	0.231125
2062.000000	0.233216
2061.000000	0.235735
2060.000000	0.238124
2059.000000	0.239362
2058.000000	0.240862
2057.000000	0.242657
2056.000000	0.244171
2055.000000	0.245447
2054.000000	0.247223
2053.000000	0.248747
2052.000000	0.249635
2051.000000	0.252021
2050.000000	0.253656
2049.000000	0.254338
2048.000000	0.255128
2047.000000	0.255184
2046.000000	0.256660
2045.000000	0.258183
2044.000000	0.257819
2043.000000	0.258087
2042.000000	0.258563
2041.000000	0.258303
2040.000000	0.258272
2039.000000	0.258185
2038.000000	0.257399
2037.000000	0.256726
2036.000000	0.256105
2035.000000	0.255187
2034.000000	0.254012
2033.000000	0.253015
2032.000000	0.251775
2031.000000	0.250624
2030.000000	0.250023
2029.000000	0.249110
2028.000000	0.247611
2027.000000	0.246285
2026.000000	0.245328
2025.000000	0.244246
2024.000000	0.243567
2023.000000	0.242844
2022.000000	0.241937
2021.000000	0.241663
2020.000000	0.240963
2019.000000	0.240375
2018.000000	0.240223
2017.000000	0.240517
2016.000000	0.240878
2015.000000	0.241000
2014.000000	0.241174
2013.000000	0.241849
2012.000000	0.242187
2011.000000	0.242252
2010.000000	0.242828
2009.000000	0.243602
2008.000000	0.244435
2007.000000	0.245926
2006.000000	0.247133
2005.000000	0.247532
2004.000000	0.248449
2003.000000	0.249732
2002.000000	0.250803
2001.000000	0.252199
2000.000000	0.253662
1999.000000	0.254602
1998.000000	0.255820
1997.000000	0.257129
1996.000000	0.257977
1995.000000	0.259456
1994.000000	0.260941
1993.000000	0.262067
1992.000000	0.263394
1991.000000	0.265266
1990.000000	0.266571
1989.000000	0.268013
1988.000000	0.269394
1987.000000	0.270666
1986.000000	0.271924
1985.000000	0.273365
1984.000000	0.274998
1983.000000	0.276560
1982.000000	0.277809
1981.000000	0.279034
1980.000000	0.280264
1979.000000	0.282079
1978.000000	0.283778
1977.000000	0.285082
1976.000000	0.286682
1975.000000	0.287979
1974.000000	0.289424
1973.000000	0.290747
1972.000000	0.291832
1971.000000	0.293297
1970.000000	0.294693
1969.000000	0.296240
1968.000000	0.297788
1967.000000	0.299122
1966.000000	0.300073
1965.000000	0.301649
1964.000000	0.303761
1963.000000	0.305016
1962.000000	0.305873
1961.000000	0.307236
1960.000000	0.308510
1959.000000	0.310183
1958.000000	0.310752
1957.000000	0.311915
1956.000000	0.313327
1955.000000	0.314264
1954.000000	0.315798
1953.000000	0.316123
1952.000000	0.317469
1951.000000	0.318018
1950.000000	0.318394
1949.000000	0.319507
1948.000000	0.320382
1947.000000	0.320367
1946.000000	0.320508
1945.000000	0.321488
1944.000000	0.321283
1943.000000	0.320957
1942.000000	0.320903
1941.000000	0.320965
1940.000000	0.320557
1939.000000	0.319140
1938.000000	0.319030
1937.000000	0.317525
1936.000000	0.316178
1935.000000	0.315255
1934.000000	0.313237
1933.000000	0.312176
1932.000000	0.310881
1931.000000	0.307985
1930.000000	0.306014
1929.000000	0.304969
1928.000000	0.302133
1927.000000	0.299187
1926.000000	0.295990
1925.000000	0.292604
1924.000000	0.289898
1923.000000	0.286789
1922.000000	0.283505
1921.000000	0.280543
1920.000000	0.276244
1919.000000	0.272215
1918.000000	0.268703
1917.000000	0.265190
1916.000000	0.261560
1915.000000	0.256987
1914.000000	0.252687
1913.000000	0.247835
1912.000000	0.243199
1911.000000	0.239903
1910.000000	0.234331
1909.000000	0.230065
1908.000000	0.225376
1907.000000	0.220248
1906.000000	0.215622
1905.000000	0.210131
1904.000000	0.205698
1903.000000	0.200961
1902.000000	0.195575
1901.000000	0.190480
1900.000000	0.185732
1899.000000	0.181207
1898.000000	0.176098
1897.000000	0.171659
1896.000000	0.166662
1895.000000	0.162083
1894.000000	0.157888
1893.000000	0.153635
1892.000000	0.149908
1891.000000	0.145847
1890.000000	0.141526
1889.000000	0.138588
1888.000000	0.135140
1887.000000	0.131606
1886.000000	0.128239
1885.000000	0.125145
1884.000000	0.122522
1883.000000	0.119404
1882.000000	0.117407
1881.000000	0.114678
1880.000000	0.111715
1879.000000	0.109885
1878.000000	0.107547
1877.000000	0.105181
1876.000000	0.103623
1875.000000	0.101790
1874.000000	0.099967
1873.000000	0.098746
1872.000000	0.097009
1871.000000	0.095768
1870.000000	0.094359
1869.000000	0.093350
1868.000000	0.092549
1867.000000	0.091668
1866.000000	0.091035
1865.000000	0.090071
1864.000000	0.089450
1863.000000	0.088957
1862.000000	0.088261
1861.000000	0.088310
1860.000000	0.087810
1859.000000	0.087199
1858.000000	0.086740
1857.000000	0.086855
1856.000000	0.086630
1855.000000	0.086258
1854.000000	0.085938
1853.000000	0.086015
1852.000000	0.086030
1851.000000	0.085825
1850.000000	0.085761
1849.000000	0.085827
1848.000000	0.085642
1847.000000	0.085499
1846.000000	0.085595
1845.000000	0.085657
1844.000000	0.086289
1843.000000	0.086651
1842.000000	0.086624
1841.000000	0.086716
1840.000000	0.086825
1839.000000	0.086982
1838.000000	0.087283
1837.000000	0.087722
1836.000000	0.088006
1835.000000	0.088220
1834.000000	0.088706
1833.000000	0.088870
1832.000000	0.089079
1831.000000	0.089443
1830.000000	0.089720
1829.000000	0.090094
1828.000000	0.090450
1827.000000	0.090519
1826.000000	0.090874
1825.000000	0.091062
1824.000000	0.091313
1823.000000	0.091794
1822.000000	0.091985
1821.000000	0.092129
1820.000000	0.092384
1819.000000	0.092674
1818.000000	0.092923
1817.000000	0.093330
1816.000000	0.093529
1815.000000	0.093805
1814.000000	0.094263
1813.000000	0.094384
1812.000000	0.094553
1811.000000	0.094869
1810.000000	0.095230
1809.000000	0.095321
1808.000000	0.095594
1807.000000	0.096013
1806.000000	0.096041
1805.000000	0.096264
1804.000000	0.096636
1803.000000	0.096931
1802.000000	0.097275
1801.000000	0.097509
1800.000000	0.097650
1799.000000	0.097984
1798.000000	0.098197
1797.000000	0.098387
1796.000000	0.098628
1795.000000	0.098844
1794.000000	0.098875
1793.000000	0.099080
1792.000000	0.099474
1791.000000	0.099730
1790.000000	0.099885
1789.000000	0.100172
1788.000000	0.100256
1787.000000	0.100462
1786.000000	0.100705
1785.000000	0.100961
1784.000000	0.101395
1783.000000	0.101684
1782.000000	0.101980
1781.000000	0.102351
1780.000000	0.102649
1779.000000	0.102841
1778.000000	0.103342
1777.000000	0.103896
1776.000000	0.104386
1775.000000	0.104841
1774.000000	0.105234
1773.000000	0.105616
1772.000000	0.106180
1771.000000	0.106518
1770.000000	0.106896
1769.000000	0.107362
1768.000000	0.107915
1767.000000	0.108239
1766.000000	0.108448
1765.000000	0.109055
1764.000000	0.109235
1763.000000	0.109564
1762.000000	0.110026
1761.000000	0.110508
1760.000000	0.110926
1759.000000	0.110997
1758.000000	0.111465
1757.000000	0.111645
1756.000000	0.112012
1755.000000	0.112277
1754.000000	0.112656
1753.000000	0.113342
1752.000000	0.113756
1751.000000	0.114335
1750.000000	0.114555
1749.000000	0.114903
1748.000000	0.115440
1747.000000	0.115969
1746.000000	0.116426
1745.000000	0.117031
1744.000000	0.117390
1743.000000	0.117926
1742.000000	0.118579
1741.000000	0.119011
1740.000000	0.119528
1739.000000	0.120100
1738.000000	0.120402
1737.000000	0.120800
1736.000000	0.120911
1735.000000	0.121348
1734.000000	0.121424
1733.000000	0.121553
1732.000000	0.121830
1731.000000	0.121693
1730.000000	0.121516
1729.000000	0.121397
1728.000000	0.121136
1727.000000	0.120964
1726.000000	0.120397
1725.000000	0.119805
1724.000000	0.119398
1723.000000	0.118690
1722.000000	0.117984
1721.000000	0.117343
1720.000000	0.116354
1719.000000	0.115667
1718.000000	0.114898
1717.000000	0.113994
1716.000000	0.113327
1715.000000	0.112879
1714.000000	0.111908
1713.000000	0.111278
1712.000000	0.110592
1711.000000	0.110124
1710.000000	0.109599
1709.000000	0.109040
1708.000000	0.108802
1707.000000	0.108293
1706.000000	0.107687
1705.000000	0.107490
1704.000000	0.107089
1703.000000	0.107001
1702.000000	0.106631
1701.000000	0.106730
1700.000000	0.106392
1699.000000	0.106337
1698.000000	0.106095
1697.000000	0.105710
1696.000000	0.105166
1695.000000	0.105215
1694.000000	0.104778
1693.000000	0.104434
1692.000000	0.103946
1691.000000	0.103346
1690.000000	0.102758
1689.000000	0.102256
1688.000000	0.101484
1687.000000	0.100952
1686.000000	0.099838
1685.000000	0.099319
1684.000000	0.098216
1683.000000	0.097269
1682.000000	0.096444
1681.000000	0.095161
1680.000000	0.094127
1679.000000	0.093216
1678.000000	0.092190
1677.000000	0.091241
1676.000000	0.090062
1675.000000	0.089083
1674.000000	0.088021
1673.000000	0.087068
1672.000000	0.086036
1671.000000	0.085103
1670.000000	0.084099
1669.000000	0.083170
1668.000000	0.082543
1667.000000	0.081634
1666.000000	0.081162
1665.000000	0.080515
1664.000000	0.079860
1663.000000	0.079535
1662.000000	0.078989
1661.000000	0.078545
1660.000000	0.078287
1659.000000	0.077956
1658.000000	0.077752
1657.000000	0.077438
1656.000000	0.077450
1655.000000	0.077189
1654.000000	0.077100
1653.000000	0.076929
1652.000000	0.076863
1651.000000	0.076990
1650.000000	0.076877
1649.000000	0.076964
1648.000000	0.076950
1647.000000	0.076988
1646.000000	0.077037
1645.000000	0.077271
1644.000000	0.077343
1643.000000	0.077391
1642.000000	0.077624
1641.000000	0.077797
1640.000000	0.077954
1639.000000	0.078029
1638.000000	0.078264
1637.000000	0.078485
1636.000000	0.078811
1635.000000	0.079043
1634.000000	0.079195
1633.000000	0.079452
1632.000000	0.079689
1631.000000	0.079918
1630.000000	0.080204
1629.000000	0.080422
1628.000000	0.080699
1627.000000	0.080959
1626.000000	0.081201
1625.000000	0.081561
1624.000000	0.081810
1623.000000	0.081989
1622.000000	0.082346
1621.000000	0.082828
1620.000000	0.083111
1619.000000	0.083376
1618.000000	0.083681
1617.000000	0.083971
1616.000000	0.084293
1615.000000	0.084708
1614.000000	0.085083
1613.000000	0.085523
1612.000000	0.085927
1611.000000	0.086290
1610.000000	0.086678
1609.000000	0.087082
1608.000000	0.087525
1607.000000	0.087801
1606.000000	0.088258
1605.000000	0.088779
1604.000000	0.089090
1603.000000	0.089422
1602.000000	0.089816
1601.000000	0.090161
1600.000000	0.090544
1599.000000	0.091025
1598.000000	0.091462
1597.000000	0.091903
1596.000000	0.092296
1595.000000	0.092716
1594.000000	0.093115
1593.000000	0.093409
1592.000000	0.093840
1591.000000	0.094225
1590.000000	0.094401
1589.000000	0.094739
1588.000000	0.095202
1587.000000	0.095480
1586.000000	0.095774
1585.000000	0.096212
1584.000000	0.096542
1583.000000	0.096761
1582.000000	0.097228
1581.000000	0.097607
1580.000000	0.097861
1579.000000	0.098168
1578.000000	0.098465
1577.000000	0.098747
1576.000000	0.099055
1575.000000	0.099476
1574.000000	0.099912
1573.000000	0.100111
1572.000000	0.100309
1571.000000	0.100648
1570.000000	0.101014
1569.000000	0.101282
1568.000000	0.101577
1567.000000	0.101865
1566.000000	0.102062
1565.000000	0.102293
1564.000000	0.102486
1563.000000	0.102818
1562.000000	0.103068
1561.000000	0.103205
1560.000000	0.103252
1559.000000	0.103502
1558.000000	0.103655
1557.000000	0.103851
1556.000000	0.104085
1555.000000	0.104304
1554.000000	0.104486
1553.000000	0.104570
1552.000000	0.104859
1551.000000	0.105104
1550.000000	0.105437
1549.000000	0.105689
1548.000000	0.105945
1547.000000	0.106455
1546.000000	0.106769
1545.000000	0.107189
1544.000000	0.107658
1543.000000	0.108191
1542.000000	0.108718
1541.000000	0.109252
1540.000000	0.109792
1539.000000	0.110270
1538.000000	0.110924
1537.000000	0.111612
1536.000000	0.112200
1535.000000	0.112725
1534.000000	0.113333
1533.000000	0.113908
1532.000000	0.114638
1531.000000	0.115172
1530.000000	0.115760
1529.000000	0.116486
1528.000000	0.117018
1527.000000	0.117534
1526.000000	0.118019
1525.000000	0.118457
1524.000000	0.118797
1523.000000	0.119324
1522.000000	0.119815
1521.000000	0.120207
1520.000000	0.120700
1519.000000	0.120999
1518.000000	0.121174
1517.000000	0.121581
1516.000000	0.121853
1515.000000	0.122164
1514.000000	0.122525
1513.000000	0.122798
1512.000000	0.122909
1511.000000	0.122972
1510.000000	0.123355
1509.000000	0.123588
1508.000000	0.123687
1507.000000	0.124048
1506.000000	0.124100
1505.000000	0.124183
1504.000000	0.124443
1503.000000	0.124411
1502.000000	0.124691
1501.000000	0.124823
1500.000000	0.124807
1499.000000	0.124843
1498.000000	0.125058
1497.000000	0.124905
1496.000000	0.124827
1495.000000	0.124854
1494.000000	0.124792
1493.000000	0.124736
1492.000000	0.124773
1491.000000	0.124547
1490.000000	0.124401
1489.000000	0.124447
1488.000000	0.124107
1487.000000	0.123791
1486.000000	0.123762
1485.000000	0.123401
1484.000000	0.123177
1483.000000	0.122873
1482.000000	0.122698
1481.000000	0.122361
1480.000000	0.122014
1479.000000	0.121954
1478.000000	0.121536
1477.000000	0.121351
1476.000000	0.121139
1475.000000	0.120500
1474.000000	0.120358
1473.000000	0.120153
1472.000000	0.119916
1471.000000	0.119541
1470.000000	0.119494
1469.000000	0.119177
1468.000000	0.119137
1467.000000	0.118616
1466.000000	0.118332
1465.000000	0.118081
1464.000000	0.117850
1463.000000	0.117564
1462.000000	0.117272
1461.000000	0.117242
1460.000000	0.116899
1459.000000	0.116475
1458.000000	0.116236
1457.000000	0.115849
1456.000000	0.115626
1455.000000	0.115155
1454.000000	0.114855
1453.000000	0.114546
1452.000000	0.114221
1451.000000	0.113765
1450.000000	0.113473
1449.000000	0.112925
1448.000000	0.112533
1447.000000	0.112171
1446.000000	0.111708
1445.000000	0.111076
1444.000000	0.110597
1443.000000	0.110150
1442.000000	0.109611
1441.000000	0.109035
1440.000000	0.108509
1439.000000	0.108014
1438.000000	0.107319
1437.000000	0.106629
1436.000000	0.106022
1435.000000	0.105354
1434.000000	0.104728
1433.000000	0.104089
1432.000000	0.103317
1431.000000	0.102613
1430.000000	0.101798
1429.000000	0.100955
1428.000000	0.100125
1427.000000	0.099339
1426.000000	0.098562
1425.000000	0.097695
1424.000000	0.096733
1423.000000	0.095762
1422.000000	0.094764
1421.000000	0.093819
1420.000000	0.092755
1419.000000	0.091765
1418.000000	0.090678
1417.000000	0.089612
1416.000000	0.088566
1415.000000	0.087320
1414.000000	0.086301
1413.000000	0.085222
1412.000000	0.084158
1411.000000	0.083011
1410.000000	0.081927
1409.000000	0.080847
1408.000000	0.079669
1407.000000	0.078543
1406.000000	0.077378
1405.000000	0.076378
1404.000000	0.075407
1403.000000	0.074299
1402.000000	0.073309
1401.000000	0.072431
1400.000000	0.071427
1399.000000	0.070438
1398.000000	0.069484
1397.000000	0.068615
1396.000000	0.067760
1395.000000	0.067013
1394.000000	0.066245
1393.000000	0.065343
1392.000000	0.064526
1391.000000	0.063734
1390.000000	0.063104
1389.000000	0.062534
1388.000000	0.061769
1387.000000	0.061083
1386.000000	0.060547
1385.000000	0.059903
1384.000000	0.059402
1383.000000	0.058958
1382.000000	0.058458
1381.000000	0.057971
1380.000000	0.057661
1379.000000	0.057234
1378.000000	0.056793
1377.000000	0.056455
1376.000000	0.056125
1375.000000	0.055880
1374.000000	0.055670
1373.000000	0.055391
1372.000000	0.054999
1371.000000	0.054654
1370.000000	0.054431
1369.000000	0.054204
1368.000000	0.053976
1367.000000	0.053848
1366.000000	0.053655
1365.000000	0.053309
1364.000000	0.053092
1363.000000	0.052962
1362.000000	0.052674
1361.000000	0.052415
1360.000000	0.052226
1359.000000	0.052049
1358.000000	0.051789
1357.000000	0.051636
1356.000000	0.051447
1355.000000	0.051224
1354.000000	0.051145
1353.000000	0.050903
1352.000000	0.050638
1351.000000	0.050433
1350.000000	0.050085
1349.000000	0.049801
1348.000000	0.049625
1347.000000	0.049477
1346.000000	0.049342
1345.000000	0.049200
1344.000000	0.048961
1343.000000	0.048768
1342.000000	0.048654
1341.000000	0.048338
1340.000000	0.048097
1339.000000	0.047988
1338.000000	0.047889
1337.000000	0.047834
1336.000000	0.047555
1335.000000	0.047440
1334.000000	0.047368
1333.000000	0.047238
1332.000000	0.047090
1331.000000	0.046812
1330.000000	0.046707
1329.000000	0.046711
1328.000000	0.046643
1327.000000	0.046426
1326.000000	0.046353
1325.000000	0.046344
1324.000000	0.046359
1323.000000	0.046223
1322.000000	0.046133
1321.000000	0.046007
1320.000000	0.045985
1319.000000	0.046016
1318.000000	0.046003
1317.000000	0.045953
1316.000000	0.045848
1315.000000	0.045723
1314.000000	0.045834
1313.000000	0.045874
1312.000000	0.045549
1311.000000	0.045651
1310.000000	0.045746
1309.000000	0.045585
1308.000000	0.045598
1307.000000	0.045538
1306.000000	0.045661
1305.000000	0.045620
1304.000000	0.045522
1303.000000	0.045484
1302.000000	0.045499
1301.000000	0.045567
1300.000000	0.045494
1299.000000	0.045569
1298.000000	0.045606
1297.000000	0.045636
1296.000000	0.045651
1295.000000	0.045789
1294.000000	0.045780
1293.000000	0.045832
1292.000000	0.045837
1291.000000	0.045954
1290.000000	0.045951
1289.000000	0.046042
1288.000000	0.046138
1287.000000	0.046161
1286.000000	0.046182
1285.000000	0.046275
1284.000000	0.046301
1283.000000	0.046244
1282.000000	0.046314
1281.000000	0.046378
1280.000000	0.046454
1279.000000	0.046701
1278.000000	0.046515
1277.000000	0.046667
1276.000000	0.046631
1275.000000	0.046640
1274.000000	0.046726
1273.000000	0.046803
1272.000000	0.046891
1271.000000	0.046792
1270.000000	0.046890
1269.000000	0.046955
1268.000000	0.046839
1267.000000	0.046775
1266.000000	0.047004
1265.000000	0.046935
1264.000000	0.046881
1263.000000	0.046937
1262.000000	0.047208
1261.000000	0.046940
1260.000000	0.046935
1259.000000	0.046993
1258.000000	0.047012
1257.000000	0.047112
1256.000000	0.047031
1255.000000	0.047162
1254.000000	0.047109
1253.000000	0.047198
1252.000000	0.047173
1251.000000	0.047267
1250.000000	0.047232
1249.000000	0.047359
1248.000000	0.047483
1247.000000	0.047568
1246.000000	0.047515
1245.000000	0.047754
1244.000000	0.048007
1243.000000	0.048094
1242.000000	0.048150
1241.000000	0.048154
1240.000000	0.048350
1239.000000	0.048383
1238.000000	0.048769
1237.000000	0.048835
1236.000000	0.049001
1235.000000	0.049147
1234.000000	0.049430
1233.000000	0.049480
1232.000000	0.049570
1231.000000	0.049793
1230.000000	0.050029
1229.000000	0.050151
1228.000000	0.050314
1227.000000	0.050448
1226.000000	0.050616
1225.000000	0.050828
1224.000000	0.051041
1223.000000	0.051250
1222.000000	0.051479
1221.000000	0.051651
1220.000000	0.051768
1219.000000	0.051942
1218.000000	0.052014
1217.000000	0.052171
1216.000000	0.052366
1215.000000	0.052325
1214.000000	0.052577
1213.000000	0.052822
1212.000000	0.052970
1211.000000	0.053090
1210.000000	0.053251
1209.000000	0.053511
1208.000000	0.053751
1207.000000	0.053703
1206.000000	0.053936
1205.000000	0.054005
1204.000000	0.054296
1203.000000	0.054367
1202.000000	0.054633
1201.000000	0.054781
1200.000000	0.054727
1199.000000	0.055004
1198.000000	0.055210
1197.000000	0.055297
1196.000000	0.055346
1195.000000	0.055425
1194.000000	0.055702
1193.000000	0.055734
1192.000000	0.055851
1191.000000	0.055925
1190.000000	0.056010
1189.000000	0.056092
1188.000000	0.056148
1187.000000	0.056203
1186.000000	0.056204
1185.000000	0.056220
1184.000000	0.056252
1183.000000	0.056195
1182.000000	0.056150
1181.000000	0.056103
1180.000000	0.055989
1179.000000	0.055912
1178.000000	0.055778
1177.000000	0.055647
1176.000000	0.055568
1175.000000	0.055371
1174.000000	0.055155
1173.000000	0.054983
1172.000000	0.054785
1171.000000	0.054599
1170.000000	0.054376
1169.000000	0.054176
1168.000000	0.053955
1167.000000	0.053654
1166.000000	0.053426
1165.000000	0.053155
1164.000000	0.052937
1163.000000	0.052688
1162.000000	0.052430
1161.000000	0.052170
1160.000000	0.051902
1159.000000	0.051642
1158.000000	0.051502
1157.000000	0.051302
1156.000000	0.051099
1155.000000	0.050886
1154.000000	0.050710
1153.000000	0.050516
1152.000000	0.050245
1151.000000	0.050031
1150.000000	0.049905
1149.000000	0.049765
1148.000000	0.049616
1147.000000	0.049420
1146.000000	0.049269
1145.000000	0.049178
1144.000000	0.049040
1143.000000	0.048911
1142.000000	0.048719
1141.000000	0.048584
1140.000000	0.048465
1139.000000	0.048397
1138.000000	0.048419
1137.000000	0.048369
1136.000000	0.048256
1135.000000	0.048071
1134.000000	0.047980
1133.000000	0.047873
1132.000000	0.047799
1131.000000	0.047783
1130.000000	0.047647
1129.000000	0.047605
1128.000000	0.047539
1127.000000	0.047546
1126.000000	0.047440
1125.000000	0.047420
1124.000000	0.047506
1123.000000	0.047518
1122.000000	0.047417
1121.000000	0.047407
1120.000000	0.047408
1119.000000	0.047497
1118.000000	0.047514
1117.000000	0.047619
1116.000000	0.047577
1115.000000	0.047528
1114.000000	0.047664
1113.000000	0.047654
1112.000000	0.047675
1111.000000	0.047755
1110.000000	0.047828
1109.000000	0.047908
1108.000000	0.047953
1107.000000	0.048011
1106.000000	0.048084
1105.000000	0.048141
1104.000000	0.048159
1103.000000	0.048070
1102.000000	0.048146
1101.000000	0.048227
1100.000000	0.048357
1099.000000	0.048304
1098.000000	0.048351
1097.000000	0.048463
1096.000000	0.048512
1095.000000	0.048534
1094.000000	0.048533
1093.000000	0.048646
1092.000000	0.048673
1091.000000	0.048755
1090.000000	0.048890
1089.000000	0.048958
1088.000000	0.049004
1087.000000	0.049069
1086.000000	0.049174
1085.000000	0.049221
1084.000000	0.049319
1083.000000	0.049290
1082.000000	0.049416
1081.000000	0.049397
1080.000000	0.049484
1079.000000	0.049521
1078.000000	0.049582
1077.000000	0.049678
1076.000000	0.049874
1075.000000	0.049928
1074.000000	0.049940
1073.000000	0.050114
1072.000000	0.050212
1071.000000	0.050327
1070.000000	0.050299
1069.000000	0.050379
1068.000000	0.050536
1067.000000	0.050594
1066.000000	0.050856
1065.000000	0.050705
1064.000000	0.050845
1063.000000	0.050925
1062.000000	0.051099
1061.000000	0.051033
1060.000000	0.051156
1059.000000	0.051301
1058.000000	0.051320
1057.000000	0.051450
1056.000000	0.051574
1055.000000	0.051691
1054.000000	0.051730
1053.000000	0.051644
1052.000000	0.051864
1051.000000	0.052054
1050.000000	0.052230
1049.000000	0.052225
1048.000000	0.052315
1047.000000	0.052390
1046.000000	0.052575
1045.000000	0.052589
1044.000000	0.052599
1043.000000	0.052843
1042.000000	0.052910
1041.000000	0.053067
1040.000000	0.052890
1039.000000	0.053076
1038.000000	0.053218
1037.000000	0.053240
1036.000000	0.053377
1035.000000	0.053550
1034.000000	0.053463
1033.000000	0.053642
1032.000000	0.053655
1031.000000	0.053784
1030.000000	0.053908
1029.000000	0.053885
1028.000000	0.054067
1027.000000	0.054038
1026.000000	0.054008
1025.000000	0.054293
1024.000000	0.054384
1023.000000	0.054395
1022.000000	0.054498
1021.000000	0.054472
1020.000000	0.054493
1019.000000	0.054654
1018.000000	0.054687
1017.000000	0.054815
1016.000000	0.054836
1015.000000	0.054920
1014.000000	0.054878
1013.000000	0.054969
1012.000000	0.055040
1011.000000	0.055170
1010.000000	0.055216
1009.000000	0.055243
1008.000000	0.055270
1007.000000	0.055346
1006.000000	0.055340
1005.000000	0.055259
1004.000000	0.055536
1003.000000	0.055547
1002.000000	0.055551
1001.000000	0.055614
1000.000000	0.055716
999.000000	0.055722
998.000000	0.055812
997.000000	0.055940
996.000000	0.055999
995.000000	0.056010
994.000000	0.056106
993.000000	0.056160
992.000000	0.056086
991.000000	0.056235
990.000000	0.056285
989.000000	0.056402
988.000000	0.056459
987.000000	0.056454
986.000000	0.056569
985.000000	0.056541
984.000000	0.056484
983.000000	0.056537
982.000000	0.056683
981.000000	0.056868
980.000000	0.056856
979.000000	0.056919
978.000000	0.056995
977.000000	0.057011
976.000000	0.056983
975.000000	0.057097
974.000000	0.057212
973.000000	0.057241
972.000000	0.057309
971.000000	0.057319
970.000000	0.057427
969.000000	0.057463
968.000000	0.057541
967.000000	0.057655
966.000000	0.057776
965.000000	0.057790
964.000000	0.057816
963.000000	0.057909
962.000000	0.057916
961.000000	0.057881
960.000000	0.057918
959.000000	0.058090
958.000000	0.058048
957.000000	0.058077
956.000000	0.058196
955.000000	0.058132
954.000000	0.058173
953.000000	0.058211
952.000000	0.058444
951.000000	0.058564
950.000000	0.058565
949.000000	0.058598
948.000000	0.058632
947.000000	0.058731
946.000000	0.058759
945.000000	0.058845
944.000000	0.059011
943.000000	0.059079
942.000000	0.059169
941.000000	0.059280
940.000000	0.059325
939.000000	0.059426
938.000000	0.059538
937.000000	0.059586
936.000000	0.059745
935.000000	0.059948
934.000000	0.060034
933.000000	0.060111
932.000000	0.060144
931.000000	0.060122
930.000000	0.060195
929.000000	0.060373
928.000000	0.060330
927.000000	0.060430
926.000000	0.060488
925.000000	0.060546
924.000000	0.060808
923.000000	0.061128
922.000000	0.061236
921.000000	0.061206
920.000000	0.061345
919.000000	0.061517
918.000000	0.061556
917.000000	0.061652
916.000000	0.061702
915.000000	0.061841
914.000000	0.061996
913.000000	0.062070
912.000000	0.062047
911.000000	0.062136
910.000000	0.062186
909.000000	0.062377
908.000000	0.062621
907.000000	0.062534
906.000000	0.062685
905.000000	0.062901
904.000000	0.063094
903.000000	0.063053
902.000000	0.062993
901.000000	0.063090
900.000000	0.063015
899.000000	0.063266
898.000000	0.063655
897.000000	0.063829
896.000000	0.064016
895.000000	0.063572
894.000000	0.064063
893.000000	0.064056
892.000000	0.064042
891.000000	0.064417
890.000000	0.064590
889.000000	0.064414
888.000000	0.064363
887.000000	0.064632
886.000000	0.065048
885.000000	0.064734
884.000000	0.065041
883.000000	0.065039
882.000000	0.065347
881.000000	0.065342
880.000000	0.065274
879.000000	0.065660
878.000000	0.065660
877.000000	0.066233
876.000000	0.065894
875.000000	0.065967
874.000000	0.066465
873.000000	0.066516
872.000000	0.066652
871.000000	0.066389
870.000000	0.066372
869.000000	0.067133
868.000000	0.066868
867.000000	0.067424
866.000000	0.067118
865.000000	0.067107
864.000000	0.067550
863.000000	0.067052
862.000000	0.068008
861.000000	0.068118
860.000000	0.068146
859.000000	0.065457
858.000000	0.066329
857.000000	0.069071
856.000000	0.064226
855.000000	0.066661
854.000000	0.063921
853.000000	0.067131
852.000000	0.068433
851.000000	0.065296
850.000000	0.067706
849.000000	0.067809
848.000000	0.066700
847.000000	0.068186
846.000000	0.068912
845.000000	0.066373
844.000000	0.067814
843.000000	0.069309
842.000000	0.069103
841.000000	0.069312
840.000000	0.068853
839.000000	0.068791
838.000000	0.068450
837.000000	0.068316
836.000000	0.069075
835.000000	0.069548
834.000000	0.069645
833.000000	0.069076
832.000000	0.070378
831.000000	0.069481
830.000000	0.071376
829.000000	0.071417
828.000000	0.071844
827.000000	0.072602
826.000000	0.070122
825.000000	0.072386
824.000000	0.072643
823.000000	0.072560
822.000000	0.073387
821.000000	0.072920
820.000000	0.072659
819.000000	0.072715
818.000000	0.073869
817.000000	0.073310
816.000000	0.073911
815.000000	0.074159
814.000000	0.073299
813.000000	0.074902
812.000000	0.074179
811.000000	0.074390
810.000000	0.074880
809.000000	0.075832
808.000000	0.074909
807.000000	0.075007
806.000000	0.075657
805.000000	0.076314
804.000000	0.076067
803.000000	0.076705
802.000000	0.076863
801.000000	0.077472
800.000000	0.077160
799.000000	0.077681
798.000000	0.077185
797.000000	0.077706
796.000000	0.078579
795.000000	0.078702
794.000000	0.078770
793.000000	0.079065
792.000000	0.080009
791.000000	0.079831
790.000000	0.079941
789.000000	0.080757
788.000000	0.079793
787.000000	0.080208
786.000000	0.081453
785.000000	0.081513
784.000000	0.081344
783.000000	0.081882
782.000000	0.081858
781.000000	0.082083
780.000000	0.082564
779.000000	0.082917
778.000000	0.083590
777.000000	0.083702
776.000000	0.083247
775.000000	0.084213
774.000000	0.084416
773.000000	0.085373
772.000000	0.085529
771.000000	0.084950
770.000000	0.085575
769.000000	0.086362
768.000000	0.086686
767.000000	0.086142
766.000000	0.086751
765.000000	0.087409
764.000000	0.087843
763.000000	0.087480
762.000000	0.088517
761.000000	0.088694
760.000000	0.089137
759.000000	0.089123
758.000000	0.089876
757.000000	0.090172
756.000000	0.090427
755.000000	0.091208
754.000000	0.091089
753.000000	0.091411
752.000000	0.092139
751.000000	0.092807
750.000000	0.092890
749.000000	0.092973
748.000000	0.092842
747.000000	0.094286
746.000000	0.094928
745.000000	0.095094
744.000000	0.095008
743.000000	0.095185
742.000000	0.096095
741.000000	0.096767
740.000000	0.096838
739.000000	0.097219
738.000000	0.096943
737.000000	0.097604
736.000000	0.098349
735.000000	0.099151
734.000000	0.099373
733.000000	0.099273
732.000000	0.099864
731.000000	0.100674
730.000000	0.101180
729.000000	0.101921
728.000000	0.102738
727.000000	0.103080
726.000000	0.103067
725.000000	0.103605
724.000000	0.104182
723.000000	0.104555
722.000000	0.104908
721.000000	0.105131
720.000000	0.105686
719.000000	0.106558
718.000000	0.106985
717.000000	0.107508
716.000000	0.107951
715.000000	0.108203
714.000000	0.108756
713.000000	0.109445
712.000000	0.110139
711.000000	0.110539
710.000000	0.111069
709.000000	0.111541
708.000000	0.112148
707.000000	0.112874
706.000000	0.113159
705.000000	0.113797
704.000000	0.114439
703.000000	0.114776
702.000000	0.115495
701.000000	0.116168
700.000000	0.116926
699.000000	0.117494
698.000000	0.118155
697.000000	0.118469
696.000000	0.118745
695.000000	0.119702
694.000000	0.120339
693.000000	0.120937
692.000000	0.121649
691.000000	0.122359
690.000000	0.123113
689.000000	0.123706
688.000000	0.124646
687.000000	0.125556
686.000000	0.126313
685.000000	0.126633
684.000000	0.127316
683.000000	0.128046
682.000000	0.129146
681.000000	0.130144
680.000000	0.130505
679.000000	0.131038
678.000000	0.131698
677.000000	0.132594
676.000000	0.133952
675.000000	0.134168
674.000000	0.134901
673.000000	0.135594
672.000000	0.136417
671.000000	0.137214
670.000000	0.137841
669.000000	0.138724
668.000000	0.139651
667.000000	0.140516
666.000000	0.141076
665.000000	0.141869
664.000000	0.142862
663.000000	0.143630
662.000000	0.144454
661.000000	0.145429
660.000000	0.145944
659.000000	0.147086
658.000000	0.147768
657.000000	0.148619
656.000000	0.149620
655.000000	0.150588
654.000000	0.151452
653.000000	0.152326
652.000000	0.153402
651.000000	0.154149
650.000000	0.155022
649.000000	0.155885
648.000000	0.156827
647.000000	0.157560
646.000000	0.158353
645.000000	0.159419
644.000000	0.160755
643.000000	0.162062
642.000000	0.162840
641.000000	0.163351
640.000000	0.164598
639.000000	0.165408
638.000000	0.166417
637.000000	0.167799
636.000000	0.168389
635.000000	0.169221
634.000000	0.170713
633.000000	0.171468
632.000000	0.172543
631.000000	0.173566
630.000000	0.174840
629.000000	0.175607
628.000000	0.176797
627.000000	0.177791
626.000000	0.179438
625.000000	0.180245
624.000000	0.180929
623.000000	0.182147
622.000000	0.183629
621.000000	0.184826
620.000000	0.185473
619.000000	0.186803
618.000000	0.187906
617.000000	0.189000
616.000000	0.190356
615.000000	0.191430
614.000000	0.192728
613.000000	0.193806
612.000000	0.194689
611.000000	0.196401
610.000000	0.197314
609.000000	0.198626
608.000000	0.200043
607.000000	0.201369
606.000000	0.202765
605.000000	0.203909
604.000000	0.205414
603.000000	0.206135
602.000000	0.207386
601.000000	0.209240
600.000000	0.210104
599.000000	0.211803
598.000000	0.213392
597.000000	0.214198
596.000000	0.215845
595.000000	0.216970
594.000000	0.218103
593.000000	0.219433
592.000000	0.221140
591.000000	0.222368
590.000000	0.224362
589.000000	0.225438
588.000000	0.227086
587.000000	0.228321
586.000000	0.229857
585.000000	0.231088
584.000000	0.232780
583.000000	0.234120
582.000000	0.235620
581.000000	0.236845
580.000000	0.238844
579.000000	0.240298
578.000000	0.241836
577.000000	0.243388
576.000000	0.244712
575.000000	0.246336
574.000000	0.247927
573.000000	0.249321
572.000000	0.251437
571.000000	0.253004
570.000000	0.254033
569.000000	0.255965
568.000000	0.257829
567.000000	0.259244
566.000000	0.261005
565.000000	0.262634
564.000000	0.264364
563.000000	0.265995
562.000000	0.268375
561.000000	0.269977
560.000000	0.271913
559.000000	0.273427
558.000000	0.275404
557.000000	0.277346
556.000000	0.278881
555.000000	0.280821
554.000000	0.282547
553.000000	0.284282
552.000000	0.286343
551.000000	0.288097
550.000000	0.289953
549.000000	0.292007
548.000000	0.293780
547.000000	0.295394
546.000000	0.297531
545.000000	0.299494
544.000000	0.301477
543.000000	0.303418
542.000000	0.305248
541.000000	0.306851
540.000000	0.309300
539.000000	0.311430
538.000000	0.313117
537.000000	0.314933
536.000000	0.317212
535.000000	0.319301
534.000000	0.321876
533.000000	0.323395
532.000000	0.325523
531.000000	0.327579
530.000000	0.330177
529.000000	0.331820
528.000000	0.333627
527.000000	0.335707
526.000000	0.337945
525.000000	0.340040
524.000000	0.342416
523.000000	0.344282
522.000000	0.346618
521.000000	0.348862
520.000000	0.350805
519.000000	0.353115
518.000000	0.355729
517.000000	0.357939
516.000000	0.360398
515.000000	0.362643
514.000000	0.364985
513.000000	0.367011
512.000000	0.369516
511.000000	0.371901
510.000000	0.374323
509.000000	0.376833
508.000000	0.379236
507.000000	0.381819
506.000000	0.384544
505.000000	0.387080
504.000000	0.389431
503.000000	0.391492
502.000000	0.394344
501.000000	0.396912
500.000000	0.399107
499.000000	0.401623
498.000000	0.403933
497.000000	0.406596
496.000000	0.409297
495.000000	0.411816
494.000000	0.414092
493.000000	0.416572
492.000000	0.419184
491.000000	0.421758
490.000000	0.424327
489.000000	0.427342
488.000000	0.430468
487.000000	0.432653
486.000000	0.434816
485.000000	0.437661
484.000000	0.440532
483.000000	0.442470
482.000000	0.444925
481.000000	0.448220
480.000000	0.450603
479.000000	0.453133
478.000000	0.456159
477.000000	0.459094
476.000000	0.461944
475.000000	0.464659
474.000000	0.467376
473.000000	0.470258
472.000000	0.472844
471.000000	0.475572
470.000000	0.478529
469.000000	0.481600
468.000000	0.484776
467.000000	0.487527
466.000000	0.490142
465.000000	0.493203
464.000000	0.496253
463.000000	0.499175
462.000000	0.502115
461.000000	0.505115
460.000000	0.508232
459.000000	0.511119
458.000000	0.514324
457.000000	0.517343
456.000000	0.520488
455.000000	0.523793
454.000000	0.527116
453.000000	0.530838
452.000000	0.533953
451.000000	0.536771
450.000000	0.540463
449.000000	0.543950
448.000000	0.547282
447.000000	0.551129
446.000000	0.554360
445.000000	0.557864
444.000000	0.561562
443.000000	0.564907
442.000000	0.568621
441.000000	0.572308
440.000000	0.575642
439.000000	0.580020
438.000000	0.583983
437.000000	0.587155
436.000000	0.591074
435.000000	0.594304
434.000000	0.598586
433.000000	0.602626
432.000000	0.605839
431.000000	0.609794
430.000000	0.614142
429.000000	0.617727
428.000000	0.621581
427.000000	0.625939
426.000000	0.629607
425.000000	0.634209
424.000000	0.637904
423.000000	0.641975
422.000000	0.646474
421.000000	0.650110
420.000000	0.653724
419.000000	0.657753
418.000000	0.662092
417.000000	0.666475
416.000000	0.671007
415.000000	0.674302
414.000000	0.678001
413.000000	0.682651
412.000000	0.687042
411.000000	0.691486
410.000000	0.696075
409.000000	0.699937
408.000000	0.703864
407.000000	0.707789
406.000000	0.712212
405.000000	0.716642
404.000000	0.721483
403.000000	0.725700
402.000000	0.730264
401.000000	0.734020
400.000000	0.737816
399.000000	0.742987
398.000000	0.746949
397.000000	0.750442
396.000000	0.753941
395.000000	0.758577
394.000000	0.763648
393.000000	0.768415
392.000000	0.772730
391.000000	0.777175
390.000000	0.781426
389.000000	0.785487
388.000000	0.790216
387.000000	0.794793
386.000000	0.799377
385.000000	0.804812
384.000000	0.809835
383.000000	0.813066
382.000000	0.816968
381.000000	0.821577
380.000000	0.827225
379.000000	0.830917
378.000000	0.835584
377.000000	0.838826
376.000000	0.843551
375.000000	0.848340
374.000000	0.852714
373.000000	0.857781
372.000000	0.860478
371.000000	0.867323
370.000000	0.870278
369.000000	0.875309
368.000000	0.877317
367.000000	0.883373
366.000000	0.887798
365.000000	0.892332
364.000000	0.894231
363.000000	0.899688
362.000000	0.902949
361.000000	0.908035
360.000000	0.914196
359.000000	0.916497
358.000000	0.921272
357.000000	0.924049
356.000000	0.930727
355.000000	0.931460
354.000000	0.935623
353.000000	0.939729
352.000000	0.943501
351.000000	0.947783
350.000000	0.948621
349.000000	0.954811
348.000000	0.956374
347.000000	0.959297
346.000000	0.964221
345.000000	0.969023
344.000000	0.971132
343.000000	0.973687
342.000000	0.977752
341.000000	0.980942
340.000000	0.984277
339.000000	0.987415
338.000000	0.989568
337.000000	0.992214
336.000000	0.996739
335.000000	1.000047
334.000000	1.002232
333.000000	1.005658
332.000000	1.009814
331.000000	1.013476
330.000000	1.012714
329.000000	1.018351
328.000000	1.022908
327.000000	1.019157
326.000000	1.023619
325.000000	1.026807
324.000000	1.029387
323.000000	1.031658
322.000000	1.032305
321.000000	1.039027
320.000000	1.034187
319.000000	1.037274
318.000000	1.042782
317.000000	1.042061
316.000000	1.043145
315.000000	1.044424
314.000000	1.049143
313.000000	1.049855
312.000000	1.047528
311.000000	1.047793
310.000000	1.051662
309.000000	1.052236
308.000000	1.054285
307.000000	1.055249
306.000000	1.051193
305.000000	1.052678
304.000000	1.056232
303.000000	1.055645
302.000000	1.056806
301.000000	1.056199
300.000000	1.059304
299.000000	1.056603
298.000000	1.056581
297.000000	1.061362
296.000000	1.057307
295.000000	1.060771
294.000000	1.062008
293.000000	1.061880
292.000000	1.061801
291.000000	1.066164
290.000000	1.062735
289.000000	1.063938
288.000000	1.062780
287.000000	1.065198
286.000000	1.065187
285.000000	1.063052
284.000000	1.063921
283.000000	1.061512
282.000000	1.060140
281.000000	1.060472
280.000000	1.056898
279.000000	1.057382
278.000000	1.053293
277.000000	1.049596
276.000000	1.048616
275.000000	1.047914
274.000000	1.043335
273.000000	1.040431
272.000000	1.037017
271.000000	1.035229
270.000000	1.033233
269.000000	1.029289
268.000000	1.027147
267.000000	1.023732
266.000000	1.020314
265.000000	1.017783
264.000000	1.016348
263.000000	1.011196
262.000000	1.006934
261.000000	1.000954
260.000000	0.998359
259.000000	0.994393
258.000000	0.986678
257.000000	0.984880
256.000000	0.982676
255.000000	0.977363
254.000000	0.973745
253.000000	0.969167
252.000000	0.965828
251.000000	0.960943
250.000000	0.956002
249.000000	0.953271
248.000000	0.948504
247.000000	0.946519
246.000000	0.942570
245.000000	0.938988
244.000000	0.939370
243.000000	0.939649
242.000000	0.938415
241.000000	0.939128
240.000000	0.940335
239.000000	0.941645
238.000000	0.941780
237.000000	0.942772
236.000000	0.944871
235.000000	0.947098
234.000000	0.950138
233.000000	0.954593
232.000000	0.956432
231.000000	0.958373
230.000000	0.960729
229.000000	0.963271
228.000000	0.969547
227.000000	0.972036
226.000000	0.972602
225.000000	0.973368
224.000000	0.973315
223.000000	0.972586
222.000000	0.970229
221.000000	0.970127
220.000000	0.968599
219.000000	0.964953
218.000000	0.964246
217.000000	0.960764
216.000000	0.955889
215.000000	0.952921
214.000000	0.948574
213.000000	0.942645
212.000000	0.937545
211.000000	0.935877
210.000000	0.932261
209.000000	0.925512
208.000000	0.919199
207.000000	0.907756
206.000000	0.897577
205.000000	0.888220
204.000000	0.878024
203.000000	0.867736
202.000000	0.858928
201.000000	0.842142
200.000000	0.818384
