PE UV       SUBTECH     SPECTRUM    ASCII       PEDS        4.00        
   -1
Ams1240112.Sample.asc
18/03/23
16:23:04.00
18/03/23
16:23:04.00
Administrator

200.000000
1
Lambda 750
750N8071901
PerkinElmer UV WinLab 6.0.4.0738 / 1.61.00 Lambda 900

0
0
3350/servo 860.8/2
0
0
UV/VIS
1
1
1
CommonBeamDepol,150mm sphere / downward view
0
0
0
0
Program
Program
3350/servo 860.8/2
3350/0.2 860.8/0.2
3350/0.2 860.8/0.2
0
1
 
 
 
0
 
860.8
319.2
860.8
Front
100
on
 
 
0
0
0
 
0
 
 
 
0
 
 
0
0
0
0
0
 
 
 
 
0
0


0
0
#HDR
-1
-1
#GR
nm
A
1.0
0.0
2350.000000
-1.000000
2151
8
0.881889
0.015100
#DATA
2350.000000	0.213406
2349.000000	0.215317
2348.000000	0.211617
2347.000000	0.208448
2346.000000	0.211900
2345.000000	0.212089
2344.000000	0.212511
2343.000000	0.209937
2342.000000	0.208865
2341.000000	0.209714
2340.000000	0.208290
2339.000000	0.209160
2338.000000	0.208069
2337.000000	0.208423
2336.000000	0.206089
2335.000000	0.205867
2334.000000	0.205350
2333.000000	0.203875
2332.000000	0.205275
2331.000000	0.205329
2330.000000	0.205657
2329.000000	0.207209
2328.000000	0.205064
2327.000000	0.206110
2326.000000	0.208714
2325.000000	0.206913
2324.000000	0.207472
2323.000000	0.208409
2322.000000	0.210748
2321.000000	0.209905
2320.000000	0.211064
2319.000000	0.211373
2318.000000	0.211176
2317.000000	0.212063
2316.000000	0.214116
2315.000000	0.214760
2314.000000	0.217211
2313.000000	0.215750
2312.000000	0.219056
2311.000000	0.217022
2310.000000	0.215764
2309.000000	0.218359
2308.000000	0.220548
2307.000000	0.222983
2306.000000	0.223944
2305.000000	0.222623
2304.000000	0.222173
2303.000000	0.224807
2302.000000	0.223551
2301.000000	0.223451
2300.000000	0.224621
2299.000000	0.226756
2298.000000	0.225318
2297.000000	0.226423
2296.000000	0.225398
2295.000000	0.226780
2294.000000	0.228137
2293.000000	0.229376
2292.000000	0.229109
2291.000000	0.230993
2290.000000	0.230715
2289.000000	0.230842
2288.000000	0.231389
2287.000000	0.231232
2286.000000	0.232663
2285.000000	0.233495
2284.000000	0.233708
2283.000000	0.233514
2282.000000	0.232241
2281.000000	0.232055
2280.000000	0.232423
2279.000000	0.233122
2278.000000	0.232079
2277.000000	0.231256
2276.000000	0.230968
2275.000000	0.231704
2274.000000	0.231754
2273.000000	0.230069
2272.000000	0.228063
2271.000000	0.228789
2270.000000	0.228692
2269.000000	0.226919
2268.000000	0.226363
2267.000000	0.225270
2266.000000	0.224845
2265.000000	0.224529
2264.000000	0.222019
2263.000000	0.219461
2262.000000	0.218270
2261.000000	0.217974
2260.000000	0.216624
2259.000000	0.213327
2258.000000	0.210084
2257.000000	0.209265
2256.000000	0.208690
2255.000000	0.205951
2254.000000	0.203404
2253.000000	0.201695
2252.000000	0.199504
2251.000000	0.197178
2250.000000	0.194940
2249.000000	0.193509
2248.000000	0.192053
2247.000000	0.189741
2246.000000	0.188019
2245.000000	0.185732
2244.000000	0.184026
2243.000000	0.183337
2242.000000	0.181382
2241.000000	0.179940
2240.000000	0.178996
2239.000000	0.177582
2238.000000	0.176815
2237.000000	0.174152
2236.000000	0.171441
2235.000000	0.171355
2234.000000	0.171658
2233.000000	0.172218
2232.000000	0.171378
2231.000000	0.169887
2230.000000	0.169230
2229.000000	0.168748
2228.000000	0.168377
2227.000000	0.168714
2226.000000	0.169986
2225.000000	0.170792
2224.000000	0.170534
2223.000000	0.169509
2222.000000	0.169656
2221.000000	0.169304
2220.000000	0.168518
2219.000000	0.168708
2218.000000	0.170117
2217.000000	0.171037
2216.000000	0.170927
2215.000000	0.171966
2214.000000	0.171447
2213.000000	0.171525
2212.000000	0.173621
2211.000000	0.174597
2210.000000	0.174950
2209.000000	0.175373
2208.000000	0.176475
2207.000000	0.175995
2206.000000	0.177217
2205.000000	0.177710
2204.000000	0.178071
2203.000000	0.179223
2202.000000	0.180836
2201.000000	0.180609
2200.000000	0.180223
2199.000000	0.181901
2198.000000	0.182508
2197.000000	0.182739
2196.000000	0.183798
2195.000000	0.184624
2194.000000	0.185705
2193.000000	0.186606
2192.000000	0.186367
2191.000000	0.187003
2190.000000	0.188607
2189.000000	0.188918
2188.000000	0.189628
2187.000000	0.190276
2186.000000	0.190332
2185.000000	0.190945
2184.000000	0.191273
2183.000000	0.190845
2182.000000	0.191488
2181.000000	0.192083
2180.000000	0.191736
2179.000000	0.191643
2178.000000	0.193408
2177.000000	0.191963
2176.000000	0.192424
2175.000000	0.192568
2174.000000	0.192400
2173.000000	0.191578
2172.000000	0.191755
2171.000000	0.190333
2170.000000	0.189225
2169.000000	0.189740
2168.000000	0.187804
2167.000000	0.187822
2166.000000	0.187821
2165.000000	0.187286
2164.000000	0.185851
2163.000000	0.184350
2162.000000	0.182548
2161.000000	0.181836
2160.000000	0.179700
2159.000000	0.178026
2158.000000	0.178582
2157.000000	0.177479
2156.000000	0.175179
2155.000000	0.172955
2154.000000	0.173286
2153.000000	0.170623
2152.000000	0.169763
2151.000000	0.168971
2150.000000	0.167199
2149.000000	0.167414
2148.000000	0.164826
2147.000000	0.163728
2146.000000	0.163483
2145.000000	0.161799
2144.000000	0.161529
2143.000000	0.158907
2142.000000	0.158321
2141.000000	0.155709
2140.000000	0.154451
2139.000000	0.153808
2138.000000	0.152153
2137.000000	0.152977
2136.000000	0.151229
2135.000000	0.151026
2134.000000	0.150051
2133.000000	0.151168
2132.000000	0.148298
2131.000000	0.148399
2130.000000	0.146878
2129.000000	0.146978
2128.000000	0.146980
2127.000000	0.145829
2126.000000	0.144770
2125.000000	0.144128
2124.000000	0.143964
2123.000000	0.144139
2122.000000	0.143618
2121.000000	0.142751
2120.000000	0.142546
2119.000000	0.142669
2118.000000	0.142246
2117.000000	0.143206
2116.000000	0.141910
2115.000000	0.141601
2114.000000	0.142283
2113.000000	0.142344
2112.000000	0.142310
2111.000000	0.141651
2110.000000	0.142314
2109.000000	0.141342
2108.000000	0.140894
2107.000000	0.140335
2106.000000	0.140462
2105.000000	0.140329
2104.000000	0.139980
2103.000000	0.140930
2102.000000	0.141077
2101.000000	0.141011
2100.000000	0.139268
2099.000000	0.141403
2098.000000	0.141439
2097.000000	0.141078
2096.000000	0.140838
2095.000000	0.141738
2094.000000	0.141502
2093.000000	0.141410
2092.000000	0.141969
2091.000000	0.141907
2090.000000	0.142645
2089.000000	0.142372
2088.000000	0.142663
2087.000000	0.142399
2086.000000	0.142621
2085.000000	0.143354
2084.000000	0.145380
2083.000000	0.145109
2082.000000	0.145626
2081.000000	0.145649
2080.000000	0.146831
2079.000000	0.147685
2078.000000	0.147921
2077.000000	0.148614
2076.000000	0.149539
2075.000000	0.150895
2074.000000	0.151888
2073.000000	0.153098
2072.000000	0.154184
2071.000000	0.154702
2070.000000	0.155885
2069.000000	0.157691
2068.000000	0.158692
2067.000000	0.159086
2066.000000	0.160097
2065.000000	0.161942
2064.000000	0.163073
2063.000000	0.164018
2062.000000	0.165339
2061.000000	0.166797
2060.000000	0.168431
2059.000000	0.170003
2058.000000	0.171326
2057.000000	0.172542
2056.000000	0.173515
2055.000000	0.174802
2054.000000	0.176323
2053.000000	0.177475
2052.000000	0.178161
2051.000000	0.179650
2050.000000	0.180896
2049.000000	0.181179
2048.000000	0.182023
2047.000000	0.182626
2046.000000	0.183393
2045.000000	0.184346
2044.000000	0.184679
2043.000000	0.184800
2042.000000	0.184809
2041.000000	0.184713
2040.000000	0.184960
2039.000000	0.184989
2038.000000	0.184635
2037.000000	0.184092
2036.000000	0.183660
2035.000000	0.183247
2034.000000	0.182421
2033.000000	0.181459
2032.000000	0.180102
2031.000000	0.179475
2030.000000	0.179273
2029.000000	0.178215
2028.000000	0.177083
2027.000000	0.176084
2026.000000	0.175091
2025.000000	0.174804
2024.000000	0.174629
2023.000000	0.174291
2022.000000	0.173731
2021.000000	0.173197
2020.000000	0.172911
2019.000000	0.172342
2018.000000	0.172283
2017.000000	0.172247
2016.000000	0.172674
2015.000000	0.173396
2014.000000	0.173819
2013.000000	0.174349
2012.000000	0.174655
2011.000000	0.174862
2010.000000	0.175068
2009.000000	0.176064
2008.000000	0.176966
2007.000000	0.177665
2006.000000	0.178641
2005.000000	0.179480
2004.000000	0.180334
2003.000000	0.181402
2002.000000	0.182150
2001.000000	0.183483
2000.000000	0.184699
1999.000000	0.185695
1998.000000	0.186751
1997.000000	0.187973
1996.000000	0.188559
1995.000000	0.189845
1994.000000	0.191359
1993.000000	0.192575
1992.000000	0.193499
1991.000000	0.194631
1990.000000	0.196130
1989.000000	0.196976
1988.000000	0.198249
1987.000000	0.199662
1986.000000	0.200784
1985.000000	0.202087
1984.000000	0.203571
1983.000000	0.205195
1982.000000	0.206265
1981.000000	0.207025
1980.000000	0.208166
1979.000000	0.209615
1978.000000	0.211097
1977.000000	0.212550
1976.000000	0.213690
1975.000000	0.215270
1974.000000	0.216507
1973.000000	0.217679
1972.000000	0.218583
1971.000000	0.219930
1970.000000	0.221329
1969.000000	0.222491
1968.000000	0.224157
1967.000000	0.225376
1966.000000	0.226101
1965.000000	0.227526
1964.000000	0.228912
1963.000000	0.229723
1962.000000	0.231375
1961.000000	0.231941
1960.000000	0.233177
1959.000000	0.234549
1958.000000	0.235897
1957.000000	0.236761
1956.000000	0.237928
1955.000000	0.238811
1954.000000	0.239659
1953.000000	0.240669
1952.000000	0.240895
1951.000000	0.241798
1950.000000	0.242116
1949.000000	0.243237
1948.000000	0.244078
1947.000000	0.244315
1946.000000	0.244498
1945.000000	0.244934
1944.000000	0.245268
1943.000000	0.245327
1942.000000	0.245471
1941.000000	0.245097
1940.000000	0.244000
1939.000000	0.243405
1938.000000	0.243085
1937.000000	0.242492
1936.000000	0.240816
1935.000000	0.240580
1934.000000	0.239367
1933.000000	0.237533
1932.000000	0.236270
1931.000000	0.234264
1930.000000	0.231667
1929.000000	0.230534
1928.000000	0.228989
1927.000000	0.226114
1926.000000	0.224478
1925.000000	0.221089
1924.000000	0.218723
1923.000000	0.215809
1922.000000	0.213248
1921.000000	0.209953
1920.000000	0.208077
1919.000000	0.204406
1918.000000	0.201024
1917.000000	0.197707
1916.000000	0.195571
1915.000000	0.191209
1914.000000	0.187662
1913.000000	0.183715
1912.000000	0.180293
1911.000000	0.176470
1910.000000	0.172143
1909.000000	0.168451
1908.000000	0.164370
1907.000000	0.160193
1906.000000	0.155948
1905.000000	0.152088
1904.000000	0.148164
1903.000000	0.144434
1902.000000	0.140308
1901.000000	0.135571
1900.000000	0.132000
1899.000000	0.127792
1898.000000	0.124403
1897.000000	0.120061
1896.000000	0.116390
1895.000000	0.112842
1894.000000	0.109095
1893.000000	0.105931
1892.000000	0.102225
1891.000000	0.099529
1890.000000	0.096249
1889.000000	0.093711
1888.000000	0.090926
1887.000000	0.088151
1886.000000	0.085449
1885.000000	0.082796
1884.000000	0.080454
1883.000000	0.078258
1882.000000	0.076174
1881.000000	0.073925
1880.000000	0.071503
1879.000000	0.070471
1878.000000	0.068316
1877.000000	0.066257
1876.000000	0.064738
1875.000000	0.063524
1874.000000	0.062110
1873.000000	0.060908
1872.000000	0.059453
1871.000000	0.058137
1870.000000	0.057413
1869.000000	0.056615
1868.000000	0.055688
1867.000000	0.055032
1866.000000	0.054728
1865.000000	0.054028
1864.000000	0.053254
1863.000000	0.052876
1862.000000	0.052392
1861.000000	0.052253
1860.000000	0.052094
1859.000000	0.051515
1858.000000	0.051363
1857.000000	0.051336
1856.000000	0.050866
1855.000000	0.050601
1854.000000	0.050406
1853.000000	0.050540
1852.000000	0.050421
1851.000000	0.050449
1850.000000	0.050467
1849.000000	0.050597
1848.000000	0.050355
1847.000000	0.049929
1846.000000	0.050340
1845.000000	0.050447
1844.000000	0.050831
1843.000000	0.051161
1842.000000	0.050995
1841.000000	0.051126
1840.000000	0.051315
1839.000000	0.051394
1838.000000	0.051592
1837.000000	0.051748
1836.000000	0.051981
1835.000000	0.052383
1834.000000	0.052631
1833.000000	0.052801
1832.000000	0.052962
1831.000000	0.053197
1830.000000	0.053529
1829.000000	0.054009
1828.000000	0.054355
1827.000000	0.054249
1826.000000	0.054289
1825.000000	0.054680
1824.000000	0.054822
1823.000000	0.055039
1822.000000	0.055322
1821.000000	0.055477
1820.000000	0.055705
1819.000000	0.056082
1818.000000	0.056217
1817.000000	0.056260
1816.000000	0.056486
1815.000000	0.056841
1814.000000	0.057326
1813.000000	0.057384
1812.000000	0.057479
1811.000000	0.057790
1810.000000	0.057981
1809.000000	0.058076
1808.000000	0.058250
1807.000000	0.058647
1806.000000	0.058746
1805.000000	0.058759
1804.000000	0.059156
1803.000000	0.059410
1802.000000	0.059676
1801.000000	0.059851
1800.000000	0.059869
1799.000000	0.060135
1798.000000	0.060472
1797.000000	0.060678
1796.000000	0.060808
1795.000000	0.061006
1794.000000	0.060991
1793.000000	0.061240
1792.000000	0.061508
1791.000000	0.061602
1790.000000	0.061709
1789.000000	0.061858
1788.000000	0.061988
1787.000000	0.062226
1786.000000	0.062515
1785.000000	0.062594
1784.000000	0.062791
1783.000000	0.063169
1782.000000	0.063371
1781.000000	0.063558
1780.000000	0.063655
1779.000000	0.063776
1778.000000	0.064361
1777.000000	0.064609
1776.000000	0.064899
1775.000000	0.065284
1774.000000	0.065614
1773.000000	0.065824
1772.000000	0.066143
1771.000000	0.066438
1770.000000	0.066695
1769.000000	0.067043
1768.000000	0.067403
1767.000000	0.067865
1766.000000	0.068028
1765.000000	0.068233
1764.000000	0.068534
1763.000000	0.068876
1762.000000	0.069159
1761.000000	0.069390
1760.000000	0.069694
1759.000000	0.069922
1758.000000	0.070041
1757.000000	0.070312
1756.000000	0.070595
1755.000000	0.070977
1754.000000	0.071360
1753.000000	0.071673
1752.000000	0.071980
1751.000000	0.072273
1750.000000	0.072506
1749.000000	0.072786
1748.000000	0.073252
1747.000000	0.073643
1746.000000	0.073886
1745.000000	0.074403
1744.000000	0.074630
1743.000000	0.074888
1742.000000	0.075349
1741.000000	0.075937
1740.000000	0.076050
1739.000000	0.076488
1738.000000	0.076484
1737.000000	0.076895
1736.000000	0.077141
1735.000000	0.077201
1734.000000	0.077433
1733.000000	0.077432
1732.000000	0.077626
1731.000000	0.077461
1730.000000	0.077218
1729.000000	0.077022
1728.000000	0.076936
1727.000000	0.076570
1726.000000	0.076498
1725.000000	0.075877
1724.000000	0.075795
1723.000000	0.075376
1722.000000	0.074550
1721.000000	0.074275
1720.000000	0.073378
1719.000000	0.072823
1718.000000	0.072327
1717.000000	0.071667
1716.000000	0.071080
1715.000000	0.070862
1714.000000	0.070124
1713.000000	0.069498
1712.000000	0.068974
1711.000000	0.068652
1710.000000	0.068262
1709.000000	0.067874
1708.000000	0.067712
1707.000000	0.067247
1706.000000	0.066826
1705.000000	0.066690
1704.000000	0.066505
1703.000000	0.066289
1702.000000	0.066098
1701.000000	0.066005
1700.000000	0.065966
1699.000000	0.065983
1698.000000	0.065632
1697.000000	0.065352
1696.000000	0.065122
1695.000000	0.065214
1694.000000	0.064835
1693.000000	0.064550
1692.000000	0.064374
1691.000000	0.063867
1690.000000	0.063414
1689.000000	0.063101
1688.000000	0.062369
1687.000000	0.061821
1686.000000	0.061325
1685.000000	0.060870
1684.000000	0.060006
1683.000000	0.059330
1682.000000	0.058559
1681.000000	0.057598
1680.000000	0.056752
1679.000000	0.056077
1678.000000	0.055390
1677.000000	0.054583
1676.000000	0.053737
1675.000000	0.052989
1674.000000	0.052105
1673.000000	0.051418
1672.000000	0.050590
1671.000000	0.049713
1670.000000	0.049150
1669.000000	0.048530
1668.000000	0.047867
1667.000000	0.047205
1666.000000	0.046618
1665.000000	0.046292
1664.000000	0.045746
1663.000000	0.045544
1662.000000	0.045130
1661.000000	0.044775
1660.000000	0.044585
1659.000000	0.044170
1658.000000	0.044050
1657.000000	0.043959
1656.000000	0.043986
1655.000000	0.043560
1654.000000	0.043555
1653.000000	0.043296
1652.000000	0.043333
1651.000000	0.043595
1650.000000	0.043388
1649.000000	0.043473
1648.000000	0.043337
1647.000000	0.043376
1646.000000	0.043380
1645.000000	0.043629
1644.000000	0.043793
1643.000000	0.043681
1642.000000	0.043818
1641.000000	0.043814
1640.000000	0.043956
1639.000000	0.044126
1638.000000	0.044232
1637.000000	0.044417
1636.000000	0.044684
1635.000000	0.044790
1634.000000	0.044943
1633.000000	0.045110
1632.000000	0.045342
1631.000000	0.045436
1630.000000	0.045634
1629.000000	0.045885
1628.000000	0.046063
1627.000000	0.046348
1626.000000	0.046451
1625.000000	0.046646
1624.000000	0.046855
1623.000000	0.047054
1622.000000	0.047337
1621.000000	0.047570
1620.000000	0.047810
1619.000000	0.048131
1618.000000	0.048361
1617.000000	0.048561
1616.000000	0.048741
1615.000000	0.049108
1614.000000	0.049489
1613.000000	0.049743
1612.000000	0.049999
1611.000000	0.050328
1610.000000	0.050618
1609.000000	0.050912
1608.000000	0.051122
1607.000000	0.051348
1606.000000	0.051765
1605.000000	0.052132
1604.000000	0.052337
1603.000000	0.052584
1602.000000	0.052965
1601.000000	0.053297
1600.000000	0.053566
1599.000000	0.053881
1598.000000	0.054177
1597.000000	0.054526
1596.000000	0.054842
1595.000000	0.055090
1594.000000	0.055316
1593.000000	0.055520
1592.000000	0.055877
1591.000000	0.056198
1590.000000	0.056345
1589.000000	0.056670
1588.000000	0.057022
1587.000000	0.057230
1586.000000	0.057469
1585.000000	0.057786
1584.000000	0.058006
1583.000000	0.058126
1582.000000	0.058530
1581.000000	0.058787
1580.000000	0.058912
1579.000000	0.059275
1578.000000	0.059449
1577.000000	0.059638
1576.000000	0.059929
1575.000000	0.060138
1574.000000	0.060415
1573.000000	0.060651
1572.000000	0.060862
1571.000000	0.061122
1570.000000	0.061356
1569.000000	0.061566
1568.000000	0.061801
1567.000000	0.062024
1566.000000	0.062255
1565.000000	0.062349
1564.000000	0.062342
1563.000000	0.062579
1562.000000	0.062810
1561.000000	0.062931
1560.000000	0.063042
1559.000000	0.063226
1558.000000	0.063276
1557.000000	0.063475
1556.000000	0.063509
1555.000000	0.063753
1554.000000	0.064042
1553.000000	0.064061
1552.000000	0.064377
1551.000000	0.064504
1550.000000	0.064652
1549.000000	0.064922
1548.000000	0.065025
1547.000000	0.065353
1546.000000	0.065662
1545.000000	0.065901
1544.000000	0.066368
1543.000000	0.066702
1542.000000	0.067132
1541.000000	0.067409
1540.000000	0.067876
1539.000000	0.068325
1538.000000	0.068861
1537.000000	0.069283
1536.000000	0.069786
1535.000000	0.070232
1534.000000	0.070767
1533.000000	0.071081
1532.000000	0.071736
1531.000000	0.072057
1530.000000	0.072459
1529.000000	0.073104
1528.000000	0.073404
1527.000000	0.073757
1526.000000	0.074188
1525.000000	0.074605
1524.000000	0.074797
1523.000000	0.075248
1522.000000	0.075571
1521.000000	0.075914
1520.000000	0.076343
1519.000000	0.076502
1518.000000	0.076676
1517.000000	0.076949
1516.000000	0.077286
1515.000000	0.077558
1514.000000	0.077725
1513.000000	0.077915
1512.000000	0.078020
1511.000000	0.078197
1510.000000	0.078421
1509.000000	0.078606
1508.000000	0.078711
1507.000000	0.079095
1506.000000	0.079062
1505.000000	0.079196
1504.000000	0.079276
1503.000000	0.079218
1502.000000	0.079511
1501.000000	0.079555
1500.000000	0.079634
1499.000000	0.079591
1498.000000	0.079641
1497.000000	0.079621
1496.000000	0.079533
1495.000000	0.079611
1494.000000	0.079425
1493.000000	0.079398
1492.000000	0.079473
1491.000000	0.079276
1490.000000	0.079060
1489.000000	0.079148
1488.000000	0.078797
1487.000000	0.078775
1486.000000	0.078561
1485.000000	0.078371
1484.000000	0.078226
1483.000000	0.077971
1482.000000	0.077688
1481.000000	0.077587
1480.000000	0.077228
1479.000000	0.077213
1478.000000	0.076859
1477.000000	0.076690
1476.000000	0.076612
1475.000000	0.076280
1474.000000	0.076060
1473.000000	0.075866
1472.000000	0.075726
1471.000000	0.075587
1470.000000	0.075378
1469.000000	0.075154
1468.000000	0.075061
1467.000000	0.074928
1466.000000	0.074596
1465.000000	0.074493
1464.000000	0.074208
1463.000000	0.073995
1462.000000	0.073845
1461.000000	0.073631
1460.000000	0.073461
1459.000000	0.073212
1458.000000	0.073087
1457.000000	0.072765
1456.000000	0.072569
1455.000000	0.072183
1454.000000	0.072033
1453.000000	0.071742
1452.000000	0.071378
1451.000000	0.071175
1450.000000	0.070740
1449.000000	0.070518
1448.000000	0.070214
1447.000000	0.069944
1446.000000	0.069586
1445.000000	0.069102
1444.000000	0.068711
1443.000000	0.068263
1442.000000	0.067944
1441.000000	0.067471
1440.000000	0.067094
1439.000000	0.066733
1438.000000	0.066231
1437.000000	0.065720
1436.000000	0.065193
1435.000000	0.064610
1434.000000	0.064041
1433.000000	0.063564
1432.000000	0.063057
1431.000000	0.062521
1430.000000	0.061821
1429.000000	0.061154
1428.000000	0.060423
1427.000000	0.059806
1426.000000	0.059216
1425.000000	0.058516
1424.000000	0.057758
1423.000000	0.057027
1422.000000	0.056226
1421.000000	0.055447
1420.000000	0.054715
1419.000000	0.053958
1418.000000	0.053029
1417.000000	0.052138
1416.000000	0.051262
1415.000000	0.050344
1414.000000	0.049424
1413.000000	0.048599
1412.000000	0.047789
1411.000000	0.046837
1410.000000	0.045912
1409.000000	0.045073
1408.000000	0.044166
1407.000000	0.043325
1406.000000	0.042417
1405.000000	0.041537
1404.000000	0.040716
1403.000000	0.039798
1402.000000	0.038999
1401.000000	0.038304
1400.000000	0.037479
1399.000000	0.036622
1398.000000	0.035865
1397.000000	0.035161
1396.000000	0.034495
1395.000000	0.033872
1394.000000	0.033229
1393.000000	0.032500
1392.000000	0.031837
1391.000000	0.031162
1390.000000	0.030685
1389.000000	0.030208
1388.000000	0.029560
1387.000000	0.029070
1386.000000	0.028605
1385.000000	0.028055
1384.000000	0.027646
1383.000000	0.027269
1382.000000	0.026884
1381.000000	0.026523
1380.000000	0.026261
1379.000000	0.025876
1378.000000	0.025503
1377.000000	0.025205
1376.000000	0.024921
1375.000000	0.024758
1374.000000	0.024586
1373.000000	0.024292
1372.000000	0.023943
1371.000000	0.023740
1370.000000	0.023574
1369.000000	0.023310
1368.000000	0.023113
1367.000000	0.023020
1366.000000	0.022849
1365.000000	0.022664
1364.000000	0.022524
1363.000000	0.022362
1362.000000	0.022121
1361.000000	0.021930
1360.000000	0.021779
1359.000000	0.021572
1358.000000	0.021392
1357.000000	0.021370
1356.000000	0.021228
1355.000000	0.021019
1354.000000	0.020932
1353.000000	0.020742
1352.000000	0.020604
1351.000000	0.020479
1350.000000	0.020165
1349.000000	0.019934
1348.000000	0.019886
1347.000000	0.019748
1346.000000	0.019644
1345.000000	0.019441
1344.000000	0.019272
1343.000000	0.019279
1342.000000	0.019110
1341.000000	0.018846
1340.000000	0.018706
1339.000000	0.018702
1338.000000	0.018632
1337.000000	0.018380
1336.000000	0.018159
1335.000000	0.018120
1334.000000	0.018069
1333.000000	0.017998
1332.000000	0.017854
1331.000000	0.017562
1330.000000	0.017514
1329.000000	0.017553
1328.000000	0.017436
1327.000000	0.017268
1326.000000	0.017241
1325.000000	0.017314
1324.000000	0.017114
1323.000000	0.017058
1322.000000	0.016985
1321.000000	0.016839
1320.000000	0.016849
1319.000000	0.016881
1318.000000	0.016764
1317.000000	0.016770
1316.000000	0.016757
1315.000000	0.016617
1314.000000	0.016756
1313.000000	0.016686
1312.000000	0.016330
1311.000000	0.016528
1310.000000	0.016519
1309.000000	0.016355
1308.000000	0.016413
1307.000000	0.016477
1306.000000	0.016378
1305.000000	0.016371
1304.000000	0.016278
1303.000000	0.016239
1302.000000	0.016377
1301.000000	0.016328
1300.000000	0.016256
1299.000000	0.016191
1298.000000	0.016303
1297.000000	0.016332
1296.000000	0.016357
1295.000000	0.016368
1294.000000	0.016456
1293.000000	0.016446
1292.000000	0.016398
1291.000000	0.016392
1290.000000	0.016543
1289.000000	0.016496
1288.000000	0.016524
1287.000000	0.016594
1286.000000	0.016621
1285.000000	0.016637
1284.000000	0.016576
1283.000000	0.016614
1282.000000	0.016693
1281.000000	0.016696
1280.000000	0.016657
1279.000000	0.016822
1278.000000	0.016743
1277.000000	0.016775
1276.000000	0.016791
1275.000000	0.016760
1274.000000	0.016796
1273.000000	0.016767
1272.000000	0.016790
1271.000000	0.016862
1270.000000	0.016742
1269.000000	0.016884
1268.000000	0.016727
1267.000000	0.016731
1266.000000	0.016995
1265.000000	0.016898
1264.000000	0.016952
1263.000000	0.016861
1262.000000	0.016885
1261.000000	0.016844
1260.000000	0.016843
1259.000000	0.016779
1258.000000	0.016794
1257.000000	0.016916
1256.000000	0.016766
1255.000000	0.016844
1254.000000	0.016928
1253.000000	0.017054
1252.000000	0.016907
1251.000000	0.016895
1250.000000	0.016928
1249.000000	0.016962
1248.000000	0.016981
1247.000000	0.017103
1246.000000	0.017072
1245.000000	0.017199
1244.000000	0.017356
1243.000000	0.017414
1242.000000	0.017511
1241.000000	0.017546
1240.000000	0.017638
1239.000000	0.017643
1238.000000	0.017917
1237.000000	0.017964
1236.000000	0.017992
1235.000000	0.018134
1234.000000	0.018308
1233.000000	0.018404
1232.000000	0.018416
1231.000000	0.018491
1230.000000	0.018648
1229.000000	0.018810
1228.000000	0.018880
1227.000000	0.019036
1226.000000	0.019046
1225.000000	0.019221
1224.000000	0.019412
1223.000000	0.019448
1222.000000	0.019502
1221.000000	0.019749
1220.000000	0.019923
1219.000000	0.019944
1218.000000	0.019963
1217.000000	0.020025
1216.000000	0.020162
1215.000000	0.020255
1214.000000	0.020479
1213.000000	0.020630
1212.000000	0.020744
1211.000000	0.020670
1210.000000	0.020946
1209.000000	0.021149
1208.000000	0.021172
1207.000000	0.021212
1206.000000	0.021437
1205.000000	0.021498
1204.000000	0.021622
1203.000000	0.021771
1202.000000	0.021994
1201.000000	0.021998
1200.000000	0.022065
1199.000000	0.022247
1198.000000	0.022368
1197.000000	0.022457
1196.000000	0.022445
1195.000000	0.022579
1194.000000	0.022733
1193.000000	0.022765
1192.000000	0.022882
1191.000000	0.022839
1190.000000	0.022919
1189.000000	0.023030
1188.000000	0.023060
1187.000000	0.023055
1186.000000	0.023096
1185.000000	0.023082
1184.000000	0.023146
1183.000000	0.023048
1182.000000	0.022903
1181.000000	0.022901
1180.000000	0.022801
1179.000000	0.022753
1178.000000	0.022664
1177.000000	0.022512
1176.000000	0.022378
1175.000000	0.022260
1174.000000	0.022168
1173.000000	0.022048
1172.000000	0.021864
1171.000000	0.021622
1170.000000	0.021417
1169.000000	0.021273
1168.000000	0.021114
1167.000000	0.020895
1166.000000	0.020666
1165.000000	0.020464
1164.000000	0.020284
1163.000000	0.020046
1162.000000	0.019852
1161.000000	0.019619
1160.000000	0.019344
1159.000000	0.019123
1158.000000	0.018996
1157.000000	0.018860
1156.000000	0.018674
1155.000000	0.018468
1154.000000	0.018314
1153.000000	0.018129
1152.000000	0.017925
1151.000000	0.017824
1150.000000	0.017715
1149.000000	0.017547
1148.000000	0.017438
1147.000000	0.017253
1146.000000	0.017076
1145.000000	0.016998
1144.000000	0.016859
1143.000000	0.016707
1142.000000	0.016611
1141.000000	0.016458
1140.000000	0.016347
1139.000000	0.016315
1138.000000	0.016259
1137.000000	0.016186
1136.000000	0.016058
1135.000000	0.015920
1134.000000	0.015793
1133.000000	0.015655
1132.000000	0.015715
1131.000000	0.015716
1130.000000	0.015563
1129.000000	0.015445
1128.000000	0.015316
1127.000000	0.015343
1126.000000	0.015288
1125.000000	0.015266
1124.000000	0.015288
1123.000000	0.015258
1122.000000	0.015253
1121.000000	0.015178
1120.000000	0.015100
1119.000000	0.015154
1118.000000	0.015221
1117.000000	0.015262
1116.000000	0.015243
1115.000000	0.015206
1114.000000	0.015244
1113.000000	0.015296
1112.000000	0.015357
1111.000000	0.015354
1110.000000	0.015362
1109.000000	0.015391
1108.000000	0.015422
1107.000000	0.015460
1106.000000	0.015566
1105.000000	0.015503
1104.000000	0.015533
1103.000000	0.015512
1102.000000	0.015535
1101.000000	0.015576
1100.000000	0.015540
1099.000000	0.015623
1098.000000	0.015661
1097.000000	0.015693
1096.000000	0.015783
1095.000000	0.015662
1094.000000	0.015676
1093.000000	0.015771
1092.000000	0.015802
1091.000000	0.015827
1090.000000	0.015921
1089.000000	0.015940
1088.000000	0.015899
1087.000000	0.015936
1086.000000	0.015981
1085.000000	0.015995
1084.000000	0.016100
1083.000000	0.016121
1082.000000	0.016158
1081.000000	0.016121
1080.000000	0.016131
1079.000000	0.016173
1078.000000	0.016167
1077.000000	0.016350
1076.000000	0.016336
1075.000000	0.016439
1074.000000	0.016389
1073.000000	0.016527
1072.000000	0.016561
1071.000000	0.016552
1070.000000	0.016655
1069.000000	0.016754
1068.000000	0.016722
1067.000000	0.016822
1066.000000	0.016931
1065.000000	0.016810
1064.000000	0.016899
1063.000000	0.016932
1062.000000	0.017003
1061.000000	0.017061
1060.000000	0.017060
1059.000000	0.017169
1058.000000	0.017213
1057.000000	0.017312
1056.000000	0.017329
1055.000000	0.017305
1054.000000	0.017302
1053.000000	0.017401
1052.000000	0.017603
1051.000000	0.017532
1050.000000	0.017682
1049.000000	0.017713
1048.000000	0.017722
1047.000000	0.017797
1046.000000	0.017923
1045.000000	0.017806
1044.000000	0.017940
1043.000000	0.017997
1042.000000	0.017922
1041.000000	0.018160
1040.000000	0.018099
1039.000000	0.018281
1038.000000	0.018243
1037.000000	0.018259
1036.000000	0.018278
1035.000000	0.018370
1034.000000	0.018312
1033.000000	0.018370
1032.000000	0.018493
1031.000000	0.018532
1030.000000	0.018629
1029.000000	0.018700
1028.000000	0.018713
1027.000000	0.018621
1026.000000	0.018672
1025.000000	0.018906
1024.000000	0.018796
1023.000000	0.018890
1022.000000	0.018910
1021.000000	0.018852
1020.000000	0.018923
1019.000000	0.019044
1018.000000	0.019016
1017.000000	0.019090
1016.000000	0.019111
1015.000000	0.019209
1014.000000	0.019156
1013.000000	0.019154
1012.000000	0.019207
1011.000000	0.019373
1010.000000	0.019357
1009.000000	0.019375
1008.000000	0.019329
1007.000000	0.019360
1006.000000	0.019383
1005.000000	0.019298
1004.000000	0.019409
1003.000000	0.019425
1002.000000	0.019343
1001.000000	0.019416
1000.000000	0.019481
999.000000	0.019507
998.000000	0.019541
997.000000	0.019606
996.000000	0.019653
995.000000	0.019650
994.000000	0.019751
993.000000	0.019841
992.000000	0.019720
991.000000	0.019767
990.000000	0.019803
989.000000	0.019795
988.000000	0.019782
987.000000	0.019813
986.000000	0.019941
985.000000	0.019913
984.000000	0.019890
983.000000	0.019942
982.000000	0.020055
981.000000	0.020092
980.000000	0.020084
979.000000	0.020045
978.000000	0.020112
977.000000	0.020115
976.000000	0.020105
975.000000	0.020158
974.000000	0.020200
973.000000	0.020235
972.000000	0.020282
971.000000	0.020214
970.000000	0.020198
969.000000	0.020299
968.000000	0.020322
967.000000	0.020207
966.000000	0.020398
965.000000	0.020496
964.000000	0.020518
963.000000	0.020503
962.000000	0.020486
961.000000	0.020464
960.000000	0.020470
959.000000	0.020515
958.000000	0.020483
957.000000	0.020552
956.000000	0.020598
955.000000	0.020524
954.000000	0.020640
953.000000	0.020679
952.000000	0.020729
951.000000	0.020735
950.000000	0.020700
949.000000	0.020773
948.000000	0.020799
947.000000	0.020772
946.000000	0.020818
945.000000	0.020787
944.000000	0.020947
943.000000	0.021007
942.000000	0.020968
941.000000	0.021084
940.000000	0.021122
939.000000	0.021059
938.000000	0.020999
937.000000	0.021030
936.000000	0.021116
935.000000	0.021190
934.000000	0.021259
933.000000	0.021289
932.000000	0.021356
931.000000	0.021340
930.000000	0.021327
929.000000	0.021464
928.000000	0.021467
927.000000	0.021520
926.000000	0.021677
925.000000	0.021746
924.000000	0.021645
923.000000	0.021890
922.000000	0.021983
921.000000	0.021893
920.000000	0.022023
919.000000	0.022156
918.000000	0.022174
917.000000	0.022150
916.000000	0.022064
915.000000	0.022194
914.000000	0.022615
913.000000	0.022627
912.000000	0.022340
911.000000	0.022431
910.000000	0.022544
909.000000	0.022553
908.000000	0.022584
907.000000	0.022832
906.000000	0.022920
905.000000	0.022987
904.000000	0.023005
903.000000	0.023019
902.000000	0.023077
901.000000	0.022986
900.000000	0.023100
899.000000	0.023059
898.000000	0.023165
897.000000	0.023200
896.000000	0.023536
895.000000	0.023376
894.000000	0.023375
893.000000	0.023391
892.000000	0.023471
891.000000	0.023864
890.000000	0.023753
889.000000	0.023637
888.000000	0.023487
887.000000	0.023617
886.000000	0.023820
885.000000	0.023740
884.000000	0.023761
883.000000	0.023982
882.000000	0.024015
881.000000	0.024207
880.000000	0.024222
879.000000	0.024294
878.000000	0.024212
877.000000	0.024411
876.000000	0.023801
875.000000	0.024504
874.000000	0.024669
873.000000	0.025076
872.000000	0.024912
871.000000	0.024994
870.000000	0.025186
869.000000	0.025309
868.000000	0.025195
867.000000	0.025300
866.000000	0.025202
865.000000	0.024858
864.000000	0.025395
863.000000	0.025583
862.000000	0.025847
861.000000	0.025733
860.000000	0.025906
859.000000	0.022635
858.000000	0.024597
857.000000	0.024880
856.000000	0.023155
855.000000	0.028471
854.000000	0.024364
853.000000	0.028244
852.000000	0.026087
851.000000	0.026697
850.000000	0.025343
849.000000	0.025772
848.000000	0.026203
847.000000	0.028596
846.000000	0.026812
845.000000	0.026499
844.000000	0.028304
843.000000	0.028940
842.000000	0.029684
841.000000	0.028811
840.000000	0.028467
839.000000	0.028349
838.000000	0.026718
837.000000	0.028274
836.000000	0.029187
835.000000	0.028375
834.000000	0.029445
833.000000	0.027312
832.000000	0.029762
831.000000	0.028284
830.000000	0.029732
829.000000	0.030461
828.000000	0.029325
827.000000	0.030535
826.000000	0.029582
825.000000	0.030263
824.000000	0.030267
823.000000	0.030363
822.000000	0.030020
821.000000	0.030424
820.000000	0.029873
819.000000	0.030097
818.000000	0.032065
817.000000	0.030916
816.000000	0.031680
815.000000	0.031158
814.000000	0.031425
813.000000	0.032156
812.000000	0.031843
811.000000	0.031284
810.000000	0.032866
809.000000	0.031279
808.000000	0.032912
807.000000	0.031617
806.000000	0.031675
805.000000	0.032315
804.000000	0.032610
803.000000	0.032609
802.000000	0.032816
801.000000	0.032596
800.000000	0.032767
799.000000	0.033334
798.000000	0.033219
797.000000	0.033453
796.000000	0.033960
795.000000	0.034177
794.000000	0.034507
793.000000	0.034339
792.000000	0.035015
791.000000	0.035104
790.000000	0.036077
789.000000	0.035337
788.000000	0.034031
787.000000	0.034432
786.000000	0.035658
785.000000	0.035873
784.000000	0.036633
783.000000	0.036551
782.000000	0.036453
781.000000	0.036436
780.000000	0.036591
779.000000	0.036864
778.000000	0.037612
777.000000	0.037163
776.000000	0.037473
775.000000	0.037523
774.000000	0.038462
773.000000	0.038526
772.000000	0.038679
771.000000	0.038412
770.000000	0.039009
769.000000	0.038994
768.000000	0.039769
767.000000	0.040005
766.000000	0.040134
765.000000	0.040371
764.000000	0.040264
763.000000	0.040452
762.000000	0.041347
761.000000	0.041639
760.000000	0.041761
759.000000	0.042162
758.000000	0.042239
757.000000	0.042579
756.000000	0.042687
755.000000	0.042711
754.000000	0.042882
753.000000	0.043118
752.000000	0.043573
751.000000	0.044447
750.000000	0.044445
749.000000	0.044083
748.000000	0.044225
747.000000	0.045731
746.000000	0.046444
745.000000	0.045582
744.000000	0.045698
743.000000	0.045729
742.000000	0.046545
741.000000	0.046875
740.000000	0.046543
739.000000	0.047674
738.000000	0.047642
737.000000	0.047877
736.000000	0.048416
735.000000	0.048828
734.000000	0.049228
733.000000	0.049329
732.000000	0.049825
731.000000	0.050180
730.000000	0.049993
729.000000	0.050619
728.000000	0.051121
727.000000	0.051380
726.000000	0.051254
725.000000	0.052046
724.000000	0.052790
723.000000	0.052889
722.000000	0.052661
721.000000	0.052894
720.000000	0.053753
719.000000	0.054417
718.000000	0.054888
717.000000	0.055297
716.000000	0.055282
715.000000	0.055551
714.000000	0.056062
713.000000	0.056617
712.000000	0.057076
711.000000	0.057083
710.000000	0.057197
709.000000	0.057825
708.000000	0.058516
707.000000	0.058700
706.000000	0.058923
705.000000	0.059665
704.000000	0.060116
703.000000	0.060097
702.000000	0.060773
701.000000	0.061217
700.000000	0.061674
699.000000	0.062371
698.000000	0.062646
697.000000	0.062677
696.000000	0.063217
695.000000	0.063787
694.000000	0.064043
693.000000	0.064479
692.000000	0.064998
691.000000	0.065984
690.000000	0.066514
689.000000	0.066848
688.000000	0.067240
687.000000	0.067851
686.000000	0.068646
685.000000	0.069025
684.000000	0.069322
683.000000	0.069834
682.000000	0.070688
681.000000	0.071374
680.000000	0.071901
679.000000	0.072185
678.000000	0.072801
677.000000	0.073337
676.000000	0.073753
675.000000	0.074314
674.000000	0.075007
673.000000	0.075106
672.000000	0.075739
671.000000	0.076335
670.000000	0.076975
669.000000	0.077745
668.000000	0.078195
667.000000	0.078739
666.000000	0.079252
665.000000	0.080124
664.000000	0.080912
663.000000	0.081426
662.000000	0.081805
661.000000	0.082661
660.000000	0.083088
659.000000	0.083739
658.000000	0.084155
657.000000	0.084682
656.000000	0.085456
655.000000	0.086153
654.000000	0.086725
653.000000	0.087315
652.000000	0.087986
651.000000	0.088414
650.000000	0.089159
649.000000	0.089965
648.000000	0.090559
647.000000	0.090939
646.000000	0.091603
645.000000	0.092479
644.000000	0.093215
643.000000	0.094124
642.000000	0.094532
641.000000	0.095333
640.000000	0.096130
639.000000	0.096500
638.000000	0.097355
637.000000	0.098336
636.000000	0.098966
635.000000	0.099723
634.000000	0.100592
633.000000	0.100879
632.000000	0.101713
631.000000	0.102481
630.000000	0.102948
629.000000	0.103702
628.000000	0.104597
627.000000	0.105455
626.000000	0.106462
625.000000	0.106939
624.000000	0.107539
623.000000	0.108269
622.000000	0.109707
621.000000	0.110452
620.000000	0.110851
619.000000	0.111357
618.000000	0.112065
617.000000	0.113122
616.000000	0.114160
615.000000	0.114948
614.000000	0.115805
613.000000	0.116329
612.000000	0.117127
611.000000	0.118297
610.000000	0.119066
609.000000	0.119815
608.000000	0.120950
607.000000	0.121727
606.000000	0.122639
605.000000	0.123584
604.000000	0.124385
603.000000	0.125063
602.000000	0.125913
601.000000	0.127000
600.000000	0.128022
599.000000	0.128814
598.000000	0.130324
597.000000	0.130901
596.000000	0.131487
595.000000	0.132446
594.000000	0.133194
593.000000	0.134237
592.000000	0.135256
591.000000	0.136234
590.000000	0.137334
589.000000	0.138436
588.000000	0.139035
587.000000	0.140359
586.000000	0.141418
585.000000	0.142391
584.000000	0.143147
583.000000	0.144028
582.000000	0.145119
581.000000	0.146284
580.000000	0.147528
579.000000	0.148347
578.000000	0.149326
577.000000	0.150256
576.000000	0.151168
575.000000	0.152556
574.000000	0.153672
573.000000	0.154652
572.000000	0.155593
571.000000	0.156874
570.000000	0.157343
569.000000	0.158649
568.000000	0.160109
567.000000	0.161101
566.000000	0.162218
565.000000	0.163247
564.000000	0.164441
563.000000	0.165717
562.000000	0.167109
561.000000	0.168306
560.000000	0.169273
559.000000	0.170259
558.000000	0.171048
557.000000	0.172699
556.000000	0.174154
555.000000	0.175474
554.000000	0.176505
553.000000	0.178044
552.000000	0.179274
551.000000	0.180229
550.000000	0.181323
549.000000	0.182513
548.000000	0.184138
547.000000	0.184752
546.000000	0.186646
545.000000	0.188313
544.000000	0.189401
543.000000	0.190698
542.000000	0.191896
541.000000	0.193271
540.000000	0.194725
539.000000	0.196168
538.000000	0.197112
537.000000	0.198638
536.000000	0.200163
535.000000	0.201872
534.000000	0.203543
533.000000	0.204624
532.000000	0.205927
531.000000	0.207408
530.000000	0.208905
529.000000	0.209925
528.000000	0.211636
527.000000	0.212966
526.000000	0.214907
525.000000	0.216327
524.000000	0.217985
523.000000	0.219366
522.000000	0.220917
521.000000	0.222339
520.000000	0.223675
519.000000	0.225530
518.000000	0.227172
517.000000	0.228676
516.000000	0.230182
515.000000	0.231902
514.000000	0.233536
513.000000	0.234936
512.000000	0.236336
511.000000	0.237823
510.000000	0.239733
509.000000	0.241594
508.000000	0.243189
507.000000	0.244509
506.000000	0.246479
505.000000	0.248213
504.000000	0.249964
503.000000	0.251219
502.000000	0.253129
501.000000	0.255058
500.000000	0.256614
499.000000	0.258391
498.000000	0.260207
497.000000	0.261990
496.000000	0.263832
495.000000	0.265426
494.000000	0.267303
493.000000	0.269264
492.000000	0.271182
491.000000	0.272935
490.000000	0.274410
489.000000	0.276745
488.000000	0.279392
487.000000	0.280975
486.000000	0.282862
485.000000	0.284354
484.000000	0.286298
483.000000	0.288102
482.000000	0.289903
481.000000	0.292195
480.000000	0.294176
479.000000	0.295946
478.000000	0.297914
477.000000	0.299835
476.000000	0.302040
475.000000	0.304402
474.000000	0.306163
473.000000	0.308001
472.000000	0.310062
471.000000	0.312056
470.000000	0.314121
469.000000	0.316685
468.000000	0.318801
467.000000	0.320844
466.000000	0.322964
465.000000	0.325043
464.000000	0.327358
463.000000	0.329626
462.000000	0.331865
461.000000	0.334432
460.000000	0.336890
459.000000	0.338926
458.000000	0.341397
457.000000	0.344075
456.000000	0.346400
455.000000	0.348917
454.000000	0.351662
453.000000	0.354445
452.000000	0.356936
451.000000	0.359187
450.000000	0.361976
449.000000	0.364752
448.000000	0.367788
447.000000	0.370642
446.000000	0.373167
445.000000	0.375853
444.000000	0.378635
443.000000	0.381470
442.000000	0.384759
441.000000	0.387728
440.000000	0.390040
439.000000	0.393495
438.000000	0.396851
437.000000	0.399571
436.000000	0.402873
435.000000	0.405752
434.000000	0.408527
433.000000	0.411876
432.000000	0.415022
431.000000	0.418319
430.000000	0.422021
429.000000	0.425499
428.000000	0.428659
427.000000	0.431420
426.000000	0.434982
425.000000	0.438533
424.000000	0.441496
423.000000	0.445247
422.000000	0.449071
421.000000	0.452294
420.000000	0.455813
419.000000	0.459369
418.000000	0.462746
417.000000	0.466862
416.000000	0.470592
415.000000	0.474409
414.000000	0.477867
413.000000	0.481501
412.000000	0.485619
411.000000	0.489149
410.000000	0.492672
409.000000	0.496521
408.000000	0.501272
407.000000	0.504369
406.000000	0.508994
405.000000	0.513291
404.000000	0.516908
403.000000	0.520942
402.000000	0.525336
401.000000	0.529131
400.000000	0.532797
399.000000	0.537387
398.000000	0.541785
397.000000	0.545970
396.000000	0.549211
395.000000	0.553200
394.000000	0.557978
393.000000	0.562793
392.000000	0.566940
391.000000	0.570654
390.000000	0.575209
389.000000	0.578809
388.000000	0.583372
387.000000	0.587379
386.000000	0.591844
385.000000	0.596723
384.000000	0.600948
383.000000	0.604819
382.000000	0.609682
381.000000	0.614098
380.000000	0.617093
379.000000	0.621932
378.000000	0.626144
377.000000	0.630477
376.000000	0.634846
375.000000	0.639155
374.000000	0.642378
373.000000	0.646556
372.000000	0.652552
371.000000	0.657427
370.000000	0.658320
369.000000	0.663896
368.000000	0.666734
367.000000	0.671439
366.000000	0.675246
365.000000	0.679084
364.000000	0.682956
363.000000	0.685624
362.000000	0.690727
361.000000	0.693583
360.000000	0.698134
359.000000	0.701159
358.000000	0.705701
357.000000	0.709992
356.000000	0.714164
355.000000	0.718279
354.000000	0.722663
353.000000	0.724285
352.000000	0.727495
351.000000	0.732567
350.000000	0.737717
349.000000	0.739728
348.000000	0.743901
347.000000	0.744517
346.000000	0.750564
345.000000	0.753865
344.000000	0.758115
343.000000	0.761366
342.000000	0.763709
341.000000	0.766947
340.000000	0.771979
339.000000	0.775275
338.000000	0.778966
337.000000	0.784416
336.000000	0.785383
335.000000	0.790864
334.000000	0.793304
333.000000	0.797871
332.000000	0.800819
331.000000	0.802526
330.000000	0.805162
329.000000	0.810353
328.000000	0.812203
327.000000	0.817618
326.000000	0.822144
325.000000	0.822483
324.000000	0.827548
323.000000	0.829099
322.000000	0.827972
321.000000	0.831437
320.000000	0.834324
319.000000	0.835478
318.000000	0.835237
317.000000	0.838543
316.000000	0.837948
315.000000	0.842678
314.000000	0.845309
313.000000	0.846951
312.000000	0.847263
311.000000	0.850033
310.000000	0.851779
309.000000	0.852781
308.000000	0.853219
307.000000	0.855199
306.000000	0.858614
305.000000	0.858081
304.000000	0.857554
303.000000	0.858006
302.000000	0.860245
301.000000	0.861223
300.000000	0.866270
299.000000	0.864568
298.000000	0.864394
297.000000	0.869914
296.000000	0.869401
295.000000	0.869959
294.000000	0.871317
293.000000	0.871056
292.000000	0.873362
291.000000	0.876956
290.000000	0.878663
289.000000	0.879184
288.000000	0.879526
287.000000	0.881196
286.000000	0.881696
285.000000	0.881170
284.000000	0.881889
283.000000	0.879195
282.000000	0.879178
281.000000	0.880119
280.000000	0.879300
279.000000	0.878698
278.000000	0.875722
277.000000	0.874840
276.000000	0.872269
275.000000	0.871228
274.000000	0.867858
273.000000	0.867437
272.000000	0.866267
271.000000	0.863173
270.000000	0.860011
269.000000	0.858688
268.000000	0.855241
267.000000	0.852263
266.000000	0.848864
265.000000	0.845728
264.000000	0.844095
263.000000	0.838202
262.000000	0.834326
261.000000	0.831365
260.000000	0.827103
259.000000	0.822926
258.000000	0.819381
257.000000	0.814115
256.000000	0.810464
255.000000	0.805985
254.000000	0.800303
253.000000	0.797616
252.000000	0.793513
251.000000	0.788874
250.000000	0.786415
249.000000	0.781412
248.000000	0.776115
247.000000	0.773129
246.000000	0.769564
245.000000	0.767129
244.000000	0.763606
243.000000	0.762252
242.000000	0.763086
241.000000	0.764350
240.000000	0.763575
239.000000	0.763216
238.000000	0.761714
237.000000	0.764431
236.000000	0.767744
235.000000	0.768597
234.000000	0.769438
233.000000	0.771928
232.000000	0.773657
231.000000	0.775483
230.000000	0.778555
229.000000	0.781818
228.000000	0.781490
227.000000	0.781264
226.000000	0.781451
225.000000	0.784338
224.000000	0.784607
223.000000	0.782953
222.000000	0.784130
221.000000	0.783820
220.000000	0.781688
219.000000	0.779455
218.000000	0.778580
217.000000	0.776481
216.000000	0.772601
215.000000	0.770880
214.000000	0.769407
213.000000	0.762298
212.000000	0.756215
211.000000	0.755133
210.000000	0.754000
209.000000	0.746297
208.000000	0.738263
207.000000	0.734221
206.000000	0.725058
205.000000	0.716526
204.000000	0.704711
203.000000	0.689505
202.000000	0.678341
201.000000	0.662914
200.000000	0.648365
