PE UV       SUBTECH     SPECTRUM    ASCII       PEDS        4.00        
   -1
Amsfkat102.Sample.asc
18/03/23
16:03:06.00
18/03/23
16:03:06.00
Administrator

200.000000
1
Lambda 750
750N8071901
PerkinElmer UV WinLab 6.0.4.0738 / 1.61.00 Lambda 900

0
0
3350/servo 860.8/2
0
0
UV/VIS
1
1
1
CommonBeamDepol,150mm sphere / downward view
0
0
0
0
Program
Program
3350/servo 860.8/2
3350/0.2 860.8/0.2
3350/0.2 860.8/0.2
0
1
 
 
 
0
 
860.8
319.2
860.8
Front
100
on
 
 
0
0
0
 
0
 
 
 
0
 
 
0
0
0
0
0
 
 
 
 
0
0


0
0
#HDR
-1
-1
#GR
nm
A
1.0
0.0
2350.000000
-1.000000
2151
8
0.960951
0.082073
#DATA
2350.000000	0.442319
2349.000000	0.443097
2348.000000	0.440703
2347.000000	0.435976
2346.000000	0.444255
2345.000000	0.437249
2344.000000	0.440484
2343.000000	0.442867
2342.000000	0.442182
2341.000000	0.436960
2340.000000	0.435337
2339.000000	0.434841
2338.000000	0.432029
2337.000000	0.430520
2336.000000	0.433046
2335.000000	0.427967
2334.000000	0.423971
2333.000000	0.426546
2332.000000	0.425402
2331.000000	0.430847
2330.000000	0.427724
2329.000000	0.426640
2328.000000	0.427966
2327.000000	0.432946
2326.000000	0.433339
2325.000000	0.431631
2324.000000	0.433112
2323.000000	0.429053
2322.000000	0.430625
2321.000000	0.431349
2320.000000	0.430948
2319.000000	0.433867
2318.000000	0.432969
2317.000000	0.434428
2316.000000	0.436927
2315.000000	0.439895
2314.000000	0.442264
2313.000000	0.443197
2312.000000	0.442822
2311.000000	0.441954
2310.000000	0.442559
2309.000000	0.445054
2308.000000	0.444424
2307.000000	0.445314
2306.000000	0.448145
2305.000000	0.449408
2304.000000	0.451971
2303.000000	0.449440
2302.000000	0.451736
2301.000000	0.455282
2300.000000	0.459010
2299.000000	0.462002
2298.000000	0.460782
2297.000000	0.462153
2296.000000	0.459336
2295.000000	0.463148
2294.000000	0.465736
2293.000000	0.465084
2292.000000	0.464821
2291.000000	0.468416
2290.000000	0.469731
2289.000000	0.470120
2288.000000	0.466960
2287.000000	0.468670
2286.000000	0.471111
2285.000000	0.470802
2284.000000	0.470611
2283.000000	0.474186
2282.000000	0.473666
2281.000000	0.473651
2280.000000	0.474179
2279.000000	0.473998
2278.000000	0.474115
2277.000000	0.475613
2276.000000	0.474890
2275.000000	0.473922
2274.000000	0.470077
2273.000000	0.470457
2272.000000	0.468179
2271.000000	0.467327
2270.000000	0.467645
2269.000000	0.465342
2268.000000	0.463884
2267.000000	0.463386
2266.000000	0.460167
2265.000000	0.459210
2264.000000	0.455620
2263.000000	0.452935
2262.000000	0.450897
2261.000000	0.449733
2260.000000	0.447615
2259.000000	0.443529
2258.000000	0.442002
2257.000000	0.438530
2256.000000	0.434875
2255.000000	0.431398
2254.000000	0.428025
2253.000000	0.427096
2252.000000	0.422835
2251.000000	0.417264
2250.000000	0.413909
2249.000000	0.410051
2248.000000	0.408214
2247.000000	0.405583
2246.000000	0.402193
2245.000000	0.398756
2244.000000	0.396016
2243.000000	0.394747
2242.000000	0.391589
2241.000000	0.389194
2240.000000	0.387722
2239.000000	0.385947
2238.000000	0.384057
2237.000000	0.381799
2236.000000	0.378882
2235.000000	0.378606
2234.000000	0.379103
2233.000000	0.377203
2232.000000	0.375911
2231.000000	0.373191
2230.000000	0.373355
2229.000000	0.373957
2228.000000	0.371571
2227.000000	0.371907
2226.000000	0.373670
2225.000000	0.373735
2224.000000	0.374524
2223.000000	0.373985
2222.000000	0.373703
2221.000000	0.373503
2220.000000	0.374009
2219.000000	0.373521
2218.000000	0.375364
2217.000000	0.377921
2216.000000	0.378413
2215.000000	0.379356
2214.000000	0.378163
2213.000000	0.378516
2212.000000	0.381680
2211.000000	0.381398
2210.000000	0.381943
2209.000000	0.384667
2208.000000	0.386692
2207.000000	0.385502
2206.000000	0.386382
2205.000000	0.388053
2204.000000	0.388742
2203.000000	0.389756
2202.000000	0.391145
2201.000000	0.391579
2200.000000	0.393344
2199.000000	0.394008
2198.000000	0.395675
2197.000000	0.396986
2196.000000	0.398234
2195.000000	0.400072
2194.000000	0.403150
2193.000000	0.404837
2192.000000	0.403680
2191.000000	0.405744
2190.000000	0.405265
2189.000000	0.407707
2188.000000	0.409442
2187.000000	0.411088
2186.000000	0.410541
2185.000000	0.411763
2184.000000	0.412598
2183.000000	0.412267
2182.000000	0.413661
2181.000000	0.414541
2180.000000	0.413831
2179.000000	0.414442
2178.000000	0.414305
2177.000000	0.414957
2176.000000	0.415319
2175.000000	0.413964
2174.000000	0.415345
2173.000000	0.414783
2172.000000	0.415796
2171.000000	0.415243
2170.000000	0.411103
2169.000000	0.411287
2168.000000	0.409234
2167.000000	0.410012
2166.000000	0.408886
2165.000000	0.407986
2164.000000	0.407741
2163.000000	0.404519
2162.000000	0.401745
2161.000000	0.399654
2160.000000	0.396694
2159.000000	0.396675
2158.000000	0.395314
2157.000000	0.393345
2156.000000	0.389988
2155.000000	0.388081
2154.000000	0.386441
2153.000000	0.381176
2152.000000	0.383541
2151.000000	0.378933
2150.000000	0.376957
2149.000000	0.377131
2148.000000	0.374777
2147.000000	0.370857
2146.000000	0.369782
2145.000000	0.368167
2144.000000	0.365904
2143.000000	0.363348
2142.000000	0.361120
2141.000000	0.357180
2140.000000	0.356565
2139.000000	0.356689
2138.000000	0.355154
2137.000000	0.351655
2136.000000	0.350164
2135.000000	0.347491
2134.000000	0.346870
2133.000000	0.348004
2132.000000	0.343927
2131.000000	0.345684
2130.000000	0.341438
2129.000000	0.342449
2128.000000	0.341354
2127.000000	0.340438
2126.000000	0.339784
2125.000000	0.338099
2124.000000	0.337425
2123.000000	0.336533
2122.000000	0.336252
2121.000000	0.336305
2120.000000	0.336522
2119.000000	0.335062
2118.000000	0.335653
2117.000000	0.333845
2116.000000	0.333150
2115.000000	0.332382
2114.000000	0.332821
2113.000000	0.333362
2112.000000	0.332251
2111.000000	0.331851
2110.000000	0.331881
2109.000000	0.330577
2108.000000	0.330078
2107.000000	0.329845
2106.000000	0.330495
2105.000000	0.330324
2104.000000	0.329301
2103.000000	0.329461
2102.000000	0.328801
2101.000000	0.328087
2100.000000	0.327179
2099.000000	0.328505
2098.000000	0.328864
2097.000000	0.328426
2096.000000	0.328956
2095.000000	0.330207
2094.000000	0.329751
2093.000000	0.329892
2092.000000	0.330340
2091.000000	0.330363
2090.000000	0.330410
2089.000000	0.329364
2088.000000	0.330793
2087.000000	0.330579
2086.000000	0.330820
2085.000000	0.331513
2084.000000	0.333543
2083.000000	0.334243
2082.000000	0.334541
2081.000000	0.335953
2080.000000	0.337348
2079.000000	0.338213
2078.000000	0.339241
2077.000000	0.340253
2076.000000	0.341118
2075.000000	0.343848
2074.000000	0.345090
2073.000000	0.345708
2072.000000	0.347863
2071.000000	0.349465
2070.000000	0.350449
2069.000000	0.353043
2068.000000	0.355760
2067.000000	0.357437
2066.000000	0.359056
2065.000000	0.361926
2064.000000	0.363630
2063.000000	0.365541
2062.000000	0.368509
2061.000000	0.370149
2060.000000	0.373281
2059.000000	0.375380
2058.000000	0.377133
2057.000000	0.379160
2056.000000	0.381573
2055.000000	0.383229
2054.000000	0.385859
2053.000000	0.387451
2052.000000	0.389432
2051.000000	0.391485
2050.000000	0.393086
2049.000000	0.394539
2048.000000	0.396211
2047.000000	0.396725
2046.000000	0.398055
2045.000000	0.399317
2044.000000	0.399351
2043.000000	0.399908
2042.000000	0.399161
2041.000000	0.398237
2040.000000	0.398995
2039.000000	0.398799
2038.000000	0.397444
2037.000000	0.396484
2036.000000	0.395677
2035.000000	0.394775
2034.000000	0.392673
2033.000000	0.390425
2032.000000	0.389076
2031.000000	0.387763
2030.000000	0.385917
2029.000000	0.383774
2028.000000	0.382462
2027.000000	0.381008
2026.000000	0.379075
2025.000000	0.377377
2024.000000	0.376217
2023.000000	0.375363
2022.000000	0.374037
2021.000000	0.372844
2020.000000	0.372210
2019.000000	0.371823
2018.000000	0.371463
2017.000000	0.371362
2016.000000	0.371509
2015.000000	0.371764
2014.000000	0.372324
2013.000000	0.372969
2012.000000	0.373332
2011.000000	0.373348
2010.000000	0.373537
2009.000000	0.374641
2008.000000	0.375963
2007.000000	0.377138
2006.000000	0.378917
2005.000000	0.380021
2004.000000	0.381221
2003.000000	0.382894
2002.000000	0.384044
2001.000000	0.385504
2000.000000	0.387296
1999.000000	0.389193
1998.000000	0.390983
1997.000000	0.392787
1996.000000	0.393899
1995.000000	0.395587
1994.000000	0.397616
1993.000000	0.399404
1992.000000	0.401730
1991.000000	0.403698
1990.000000	0.404945
1989.000000	0.406754
1988.000000	0.408483
1987.000000	0.410626
1986.000000	0.412081
1985.000000	0.414131
1984.000000	0.416020
1983.000000	0.418541
1982.000000	0.419879
1981.000000	0.421333
1980.000000	0.423055
1979.000000	0.424893
1978.000000	0.426618
1977.000000	0.429569
1976.000000	0.431287
1975.000000	0.433251
1974.000000	0.435116
1973.000000	0.437154
1972.000000	0.438287
1971.000000	0.440352
1970.000000	0.441716
1969.000000	0.444131
1968.000000	0.445959
1967.000000	0.446905
1966.000000	0.449198
1965.000000	0.451322
1964.000000	0.453220
1963.000000	0.454433
1962.000000	0.456257
1961.000000	0.457781
1960.000000	0.460142
1959.000000	0.462239
1958.000000	0.462788
1957.000000	0.464367
1956.000000	0.465722
1955.000000	0.467948
1954.000000	0.469607
1953.000000	0.470828
1952.000000	0.471161
1951.000000	0.472263
1950.000000	0.472885
1949.000000	0.474847
1948.000000	0.475881
1947.000000	0.476212
1946.000000	0.476939
1945.000000	0.476056
1944.000000	0.477282
1943.000000	0.476529
1942.000000	0.476156
1941.000000	0.476718
1940.000000	0.475444
1939.000000	0.474313
1938.000000	0.472041
1937.000000	0.471559
1936.000000	0.469766
1935.000000	0.468680
1934.000000	0.466591
1933.000000	0.464183
1932.000000	0.462383
1931.000000	0.459395
1930.000000	0.456816
1929.000000	0.454404
1928.000000	0.450674
1927.000000	0.445768
1926.000000	0.444093
1925.000000	0.438035
1924.000000	0.434610
1923.000000	0.431118
1922.000000	0.426701
1921.000000	0.421574
1920.000000	0.417291
1919.000000	0.411378
1918.000000	0.407651
1917.000000	0.402682
1916.000000	0.398459
1915.000000	0.390842
1914.000000	0.385230
1913.000000	0.379560
1912.000000	0.373708
1911.000000	0.367618
1910.000000	0.361036
1909.000000	0.355538
1908.000000	0.349118
1907.000000	0.342627
1906.000000	0.334991
1905.000000	0.328910
1904.000000	0.321830
1903.000000	0.315862
1902.000000	0.308301
1901.000000	0.300663
1900.000000	0.294443
1899.000000	0.288268
1898.000000	0.280452
1897.000000	0.274160
1896.000000	0.268385
1895.000000	0.261540
1894.000000	0.255841
1893.000000	0.249781
1892.000000	0.244404
1891.000000	0.238614
1890.000000	0.232784
1889.000000	0.228378
1888.000000	0.223675
1887.000000	0.218937
1886.000000	0.214422
1885.000000	0.210077
1884.000000	0.205562
1883.000000	0.201407
1882.000000	0.197767
1881.000000	0.193966
1880.000000	0.190249
1879.000000	0.187377
1878.000000	0.183674
1877.000000	0.180066
1876.000000	0.177968
1875.000000	0.174819
1874.000000	0.172801
1873.000000	0.170562
1872.000000	0.168173
1871.000000	0.165757
1870.000000	0.164296
1869.000000	0.162402
1868.000000	0.160503
1867.000000	0.159417
1866.000000	0.158483
1865.000000	0.157213
1864.000000	0.156258
1863.000000	0.155320
1862.000000	0.154557
1861.000000	0.154012
1860.000000	0.153284
1859.000000	0.152581
1858.000000	0.152342
1857.000000	0.151926
1856.000000	0.151578
1855.000000	0.151390
1854.000000	0.151150
1853.000000	0.151025
1852.000000	0.150830
1851.000000	0.150613
1850.000000	0.150579
1849.000000	0.150862
1848.000000	0.150791
1847.000000	0.150361
1846.000000	0.150483
1845.000000	0.150509
1844.000000	0.151165
1843.000000	0.151404
1842.000000	0.151357
1841.000000	0.151616
1840.000000	0.151962
1839.000000	0.152157
1838.000000	0.152351
1837.000000	0.152781
1836.000000	0.153214
1835.000000	0.153601
1834.000000	0.154317
1833.000000	0.154552
1832.000000	0.154896
1831.000000	0.155610
1830.000000	0.155787
1829.000000	0.156208
1828.000000	0.156774
1827.000000	0.156939
1826.000000	0.157247
1825.000000	0.157797
1824.000000	0.158200
1823.000000	0.158422
1822.000000	0.158895
1821.000000	0.159308
1820.000000	0.159705
1819.000000	0.160432
1818.000000	0.160881
1817.000000	0.161026
1816.000000	0.161519
1815.000000	0.161979
1814.000000	0.162423
1813.000000	0.162900
1812.000000	0.163101
1811.000000	0.163369
1810.000000	0.163920
1809.000000	0.164056
1808.000000	0.164397
1807.000000	0.165185
1806.000000	0.165444
1805.000000	0.165742
1804.000000	0.166340
1803.000000	0.166875
1802.000000	0.167263
1801.000000	0.167475
1800.000000	0.167696
1799.000000	0.168277
1798.000000	0.168801
1797.000000	0.168999
1796.000000	0.169408
1795.000000	0.169656
1794.000000	0.169777
1793.000000	0.170085
1792.000000	0.170568
1791.000000	0.170928
1790.000000	0.171228
1789.000000	0.171548
1788.000000	0.171672
1787.000000	0.171896
1786.000000	0.172371
1785.000000	0.172680
1784.000000	0.173250
1783.000000	0.173670
1782.000000	0.173874
1781.000000	0.174355
1780.000000	0.174808
1779.000000	0.174995
1778.000000	0.175715
1777.000000	0.176308
1776.000000	0.176775
1775.000000	0.177264
1774.000000	0.177876
1773.000000	0.178426
1772.000000	0.178938
1771.000000	0.179573
1770.000000	0.180194
1769.000000	0.180742
1768.000000	0.181444
1767.000000	0.181915
1766.000000	0.182403
1765.000000	0.183031
1764.000000	0.183491
1763.000000	0.184268
1762.000000	0.184860
1761.000000	0.185319
1760.000000	0.186069
1759.000000	0.186644
1758.000000	0.186912
1757.000000	0.187455
1756.000000	0.188250
1755.000000	0.188872
1754.000000	0.189425
1753.000000	0.190100
1752.000000	0.190515
1751.000000	0.191204
1750.000000	0.191626
1749.000000	0.192269
1748.000000	0.193192
1747.000000	0.194018
1746.000000	0.194530
1745.000000	0.195284
1744.000000	0.195610
1743.000000	0.196249
1742.000000	0.197237
1741.000000	0.197706
1740.000000	0.198358
1739.000000	0.199038
1738.000000	0.199398
1737.000000	0.199920
1736.000000	0.200199
1735.000000	0.200282
1734.000000	0.200586
1733.000000	0.200700
1732.000000	0.200776
1731.000000	0.200551
1730.000000	0.200601
1729.000000	0.200084
1728.000000	0.199706
1727.000000	0.199140
1726.000000	0.198679
1725.000000	0.197841
1724.000000	0.197422
1723.000000	0.196317
1722.000000	0.195778
1721.000000	0.194391
1720.000000	0.193471
1719.000000	0.192097
1718.000000	0.191237
1717.000000	0.190304
1716.000000	0.189084
1715.000000	0.188551
1714.000000	0.187500
1713.000000	0.186432
1712.000000	0.185548
1711.000000	0.184825
1710.000000	0.184238
1709.000000	0.183299
1708.000000	0.183127
1707.000000	0.182888
1706.000000	0.181933
1705.000000	0.181887
1704.000000	0.181716
1703.000000	0.181357
1702.000000	0.181059
1701.000000	0.180996
1700.000000	0.180741
1699.000000	0.181001
1698.000000	0.180289
1697.000000	0.180171
1696.000000	0.179432
1695.000000	0.179601
1694.000000	0.178975
1693.000000	0.178333
1692.000000	0.178084
1691.000000	0.177386
1690.000000	0.176593
1689.000000	0.175736
1688.000000	0.174790
1687.000000	0.173885
1686.000000	0.172512
1685.000000	0.171424
1684.000000	0.169851
1683.000000	0.168438
1682.000000	0.167116
1681.000000	0.165290
1680.000000	0.163733
1679.000000	0.162323
1678.000000	0.160432
1677.000000	0.158834
1676.000000	0.157158
1675.000000	0.155494
1674.000000	0.153769
1673.000000	0.152204
1672.000000	0.150652
1671.000000	0.149050
1670.000000	0.147558
1669.000000	0.146401
1668.000000	0.145208
1667.000000	0.143773
1666.000000	0.142785
1665.000000	0.141934
1664.000000	0.140987
1663.000000	0.140108
1662.000000	0.139402
1661.000000	0.138796
1660.000000	0.138170
1659.000000	0.137681
1658.000000	0.137191
1657.000000	0.136737
1656.000000	0.136667
1655.000000	0.136144
1654.000000	0.136031
1653.000000	0.135877
1652.000000	0.135728
1651.000000	0.135825
1650.000000	0.135759
1649.000000	0.135770
1648.000000	0.135711
1647.000000	0.135873
1646.000000	0.135913
1645.000000	0.136208
1644.000000	0.136440
1643.000000	0.136525
1642.000000	0.136770
1641.000000	0.136861
1640.000000	0.137086
1639.000000	0.137370
1638.000000	0.137803
1637.000000	0.138145
1636.000000	0.138465
1635.000000	0.138926
1634.000000	0.139350
1633.000000	0.139783
1632.000000	0.140082
1631.000000	0.140388
1630.000000	0.140868
1629.000000	0.141173
1628.000000	0.141634
1627.000000	0.142230
1626.000000	0.142624
1625.000000	0.143097
1624.000000	0.143433
1623.000000	0.143906
1622.000000	0.144436
1621.000000	0.144983
1620.000000	0.145593
1619.000000	0.146222
1618.000000	0.146793
1617.000000	0.147252
1616.000000	0.147797
1615.000000	0.148431
1614.000000	0.148991
1613.000000	0.149628
1612.000000	0.150306
1611.000000	0.150949
1610.000000	0.151487
1609.000000	0.152187
1608.000000	0.152862
1607.000000	0.153430
1606.000000	0.154158
1605.000000	0.154907
1604.000000	0.155470
1603.000000	0.156069
1602.000000	0.156776
1601.000000	0.157486
1600.000000	0.158175
1599.000000	0.158842
1598.000000	0.159515
1597.000000	0.160167
1596.000000	0.160832
1595.000000	0.161349
1594.000000	0.161951
1593.000000	0.162537
1592.000000	0.163139
1591.000000	0.163804
1590.000000	0.164265
1589.000000	0.164881
1588.000000	0.165512
1587.000000	0.165970
1586.000000	0.166468
1585.000000	0.167142
1584.000000	0.167639
1583.000000	0.168111
1582.000000	0.168747
1581.000000	0.169100
1580.000000	0.169563
1579.000000	0.170182
1578.000000	0.170733
1577.000000	0.171162
1576.000000	0.171656
1575.000000	0.172171
1574.000000	0.172744
1573.000000	0.173176
1572.000000	0.173649
1571.000000	0.174170
1570.000000	0.174675
1569.000000	0.175162
1568.000000	0.175463
1567.000000	0.175870
1566.000000	0.176361
1565.000000	0.176792
1564.000000	0.176993
1563.000000	0.177314
1562.000000	0.177660
1561.000000	0.177952
1560.000000	0.178220
1559.000000	0.178555
1558.000000	0.178707
1557.000000	0.178950
1556.000000	0.179219
1555.000000	0.179541
1554.000000	0.179886
1553.000000	0.180188
1552.000000	0.180644
1551.000000	0.180909
1550.000000	0.181260
1549.000000	0.181819
1548.000000	0.182161
1547.000000	0.182727
1546.000000	0.183304
1545.000000	0.184046
1544.000000	0.184750
1543.000000	0.185570
1542.000000	0.186276
1541.000000	0.187153
1540.000000	0.188049
1539.000000	0.188814
1538.000000	0.189737
1537.000000	0.190787
1536.000000	0.191778
1535.000000	0.192582
1534.000000	0.193645
1533.000000	0.194490
1532.000000	0.195640
1531.000000	0.196516
1530.000000	0.197433
1529.000000	0.198362
1528.000000	0.199126
1527.000000	0.199930
1526.000000	0.200674
1525.000000	0.201478
1524.000000	0.202126
1523.000000	0.202744
1522.000000	0.203362
1521.000000	0.203975
1520.000000	0.204565
1519.000000	0.205018
1518.000000	0.205510
1517.000000	0.205822
1516.000000	0.206149
1515.000000	0.206644
1514.000000	0.207017
1513.000000	0.207385
1512.000000	0.207635
1511.000000	0.207965
1510.000000	0.208202
1509.000000	0.208487
1508.000000	0.208724
1507.000000	0.209181
1506.000000	0.209287
1505.000000	0.209347
1504.000000	0.209671
1503.000000	0.209683
1502.000000	0.209919
1501.000000	0.209981
1500.000000	0.210169
1499.000000	0.210136
1498.000000	0.210156
1497.000000	0.210173
1496.000000	0.210160
1495.000000	0.210124
1494.000000	0.210085
1493.000000	0.209935
1492.000000	0.209802
1491.000000	0.209452
1490.000000	0.209051
1489.000000	0.209060
1488.000000	0.208582
1487.000000	0.208190
1486.000000	0.208073
1485.000000	0.207499
1484.000000	0.207197
1483.000000	0.206688
1482.000000	0.206338
1481.000000	0.205658
1480.000000	0.205185
1479.000000	0.204913
1478.000000	0.204284
1477.000000	0.203959
1476.000000	0.203594
1475.000000	0.202877
1474.000000	0.202493
1473.000000	0.202218
1472.000000	0.201652
1471.000000	0.201115
1470.000000	0.200944
1469.000000	0.200410
1468.000000	0.200076
1467.000000	0.199550
1466.000000	0.199130
1465.000000	0.198681
1464.000000	0.198288
1463.000000	0.197954
1462.000000	0.197376
1461.000000	0.197236
1460.000000	0.196821
1459.000000	0.196180
1458.000000	0.195755
1457.000000	0.195233
1456.000000	0.194651
1455.000000	0.194085
1454.000000	0.193698
1453.000000	0.193136
1452.000000	0.192590
1451.000000	0.191942
1450.000000	0.191337
1449.000000	0.190680
1448.000000	0.190133
1447.000000	0.189437
1446.000000	0.188754
1445.000000	0.187869
1444.000000	0.186971
1443.000000	0.186254
1442.000000	0.185605
1441.000000	0.184759
1440.000000	0.183870
1439.000000	0.183057
1438.000000	0.182222
1437.000000	0.181280
1436.000000	0.180170
1435.000000	0.179112
1434.000000	0.178132
1433.000000	0.177148
1432.000000	0.175954
1431.000000	0.174917
1430.000000	0.173706
1429.000000	0.172435
1428.000000	0.171245
1427.000000	0.169947
1426.000000	0.168672
1425.000000	0.167326
1424.000000	0.165826
1423.000000	0.164317
1422.000000	0.162733
1421.000000	0.161184
1420.000000	0.159579
1419.000000	0.158011
1418.000000	0.156335
1417.000000	0.154644
1416.000000	0.152976
1415.000000	0.151109
1414.000000	0.149305
1413.000000	0.147649
1412.000000	0.145985
1411.000000	0.144084
1410.000000	0.142328
1409.000000	0.140616
1408.000000	0.138756
1407.000000	0.137062
1406.000000	0.135233
1405.000000	0.133564
1404.000000	0.131938
1403.000000	0.130212
1402.000000	0.128563
1401.000000	0.127131
1400.000000	0.125674
1399.000000	0.124081
1398.000000	0.122503
1397.000000	0.121094
1396.000000	0.119695
1395.000000	0.118386
1394.000000	0.117127
1393.000000	0.115729
1392.000000	0.114390
1391.000000	0.113091
1390.000000	0.112081
1389.000000	0.111130
1388.000000	0.109928
1387.000000	0.108901
1386.000000	0.107980
1385.000000	0.107000
1384.000000	0.106198
1383.000000	0.105407
1382.000000	0.104582
1381.000000	0.103930
1380.000000	0.103373
1379.000000	0.102654
1378.000000	0.102062
1377.000000	0.101554
1376.000000	0.100970
1375.000000	0.100574
1374.000000	0.100179
1373.000000	0.099722
1372.000000	0.099184
1371.000000	0.098714
1370.000000	0.098372
1369.000000	0.097957
1368.000000	0.097563
1367.000000	0.097282
1366.000000	0.096909
1365.000000	0.096512
1364.000000	0.096151
1363.000000	0.095784
1362.000000	0.095335
1361.000000	0.094913
1360.000000	0.094604
1359.000000	0.094257
1358.000000	0.093774
1357.000000	0.093423
1356.000000	0.093053
1355.000000	0.092583
1354.000000	0.092253
1353.000000	0.091800
1352.000000	0.091423
1351.000000	0.091116
1350.000000	0.090683
1349.000000	0.090269
1348.000000	0.089994
1347.000000	0.089635
1346.000000	0.089141
1345.000000	0.088625
1344.000000	0.088271
1343.000000	0.087943
1342.000000	0.087658
1341.000000	0.087248
1340.000000	0.086949
1339.000000	0.086704
1338.000000	0.086457
1337.000000	0.086192
1336.000000	0.085823
1335.000000	0.085622
1334.000000	0.085531
1333.000000	0.085156
1332.000000	0.084838
1331.000000	0.084487
1330.000000	0.084426
1329.000000	0.084272
1328.000000	0.084063
1327.000000	0.083869
1326.000000	0.083750
1325.000000	0.083620
1324.000000	0.083503
1323.000000	0.083332
1322.000000	0.083296
1321.000000	0.083063
1320.000000	0.082972
1319.000000	0.082937
1318.000000	0.082696
1317.000000	0.082785
1316.000000	0.082773
1315.000000	0.082525
1314.000000	0.082548
1313.000000	0.082515
1312.000000	0.082468
1311.000000	0.082312
1310.000000	0.082325
1309.000000	0.082340
1308.000000	0.082259
1307.000000	0.082171
1306.000000	0.082188
1305.000000	0.082230
1304.000000	0.082172
1303.000000	0.082077
1302.000000	0.082073
1301.000000	0.082162
1300.000000	0.082145
1299.000000	0.082101
1298.000000	0.082122
1297.000000	0.082206
1296.000000	0.082227
1295.000000	0.082321
1294.000000	0.082559
1293.000000	0.082553
1292.000000	0.082508
1291.000000	0.082704
1290.000000	0.082765
1289.000000	0.082840
1288.000000	0.083020
1287.000000	0.082988
1286.000000	0.082993
1285.000000	0.083235
1284.000000	0.083222
1283.000000	0.083277
1282.000000	0.083492
1281.000000	0.083497
1280.000000	0.083567
1279.000000	0.083755
1278.000000	0.083585
1277.000000	0.083736
1276.000000	0.083701
1275.000000	0.083720
1274.000000	0.083836
1273.000000	0.083948
1272.000000	0.083930
1271.000000	0.083853
1270.000000	0.083991
1269.000000	0.083998
1268.000000	0.084057
1267.000000	0.083829
1266.000000	0.084309
1265.000000	0.084049
1264.000000	0.083952
1263.000000	0.083977
1262.000000	0.084089
1261.000000	0.083996
1260.000000	0.083949
1259.000000	0.083862
1258.000000	0.083963
1257.000000	0.084011
1256.000000	0.084093
1255.000000	0.084148
1254.000000	0.084071
1253.000000	0.084273
1252.000000	0.084197
1251.000000	0.084255
1250.000000	0.084266
1249.000000	0.084437
1248.000000	0.084544
1247.000000	0.084695
1246.000000	0.084788
1245.000000	0.084902
1244.000000	0.085122
1243.000000	0.085277
1242.000000	0.085577
1241.000000	0.085623
1240.000000	0.085795
1239.000000	0.086127
1238.000000	0.086288
1237.000000	0.086551
1236.000000	0.086831
1235.000000	0.086927
1234.000000	0.087216
1233.000000	0.087459
1232.000000	0.087589
1231.000000	0.087770
1230.000000	0.087987
1229.000000	0.088246
1228.000000	0.088433
1227.000000	0.088764
1226.000000	0.088838
1225.000000	0.088993
1224.000000	0.089363
1223.000000	0.089493
1222.000000	0.089747
1221.000000	0.089991
1220.000000	0.090215
1219.000000	0.090390
1218.000000	0.090622
1217.000000	0.090819
1216.000000	0.090982
1215.000000	0.091222
1214.000000	0.091615
1213.000000	0.091898
1212.000000	0.092045
1211.000000	0.092288
1210.000000	0.092798
1209.000000	0.092996
1208.000000	0.093308
1207.000000	0.093582
1206.000000	0.093998
1205.000000	0.094079
1204.000000	0.094581
1203.000000	0.094945
1202.000000	0.095179
1201.000000	0.095534
1200.000000	0.095807
1199.000000	0.096206
1198.000000	0.096512
1197.000000	0.096681
1196.000000	0.096870
1195.000000	0.097157
1194.000000	0.097552
1193.000000	0.097783
1192.000000	0.098025
1191.000000	0.098124
1190.000000	0.098430
1189.000000	0.098569
1188.000000	0.098648
1187.000000	0.098757
1186.000000	0.098884
1185.000000	0.098916
1184.000000	0.098930
1183.000000	0.098957
1182.000000	0.098842
1181.000000	0.098726
1180.000000	0.098629
1179.000000	0.098479
1178.000000	0.098303
1177.000000	0.098103
1176.000000	0.097895
1175.000000	0.097565
1174.000000	0.097250
1173.000000	0.097004
1172.000000	0.096645
1171.000000	0.096216
1170.000000	0.095771
1169.000000	0.095433
1168.000000	0.095046
1167.000000	0.094560
1166.000000	0.094094
1165.000000	0.093633
1164.000000	0.093232
1163.000000	0.092777
1162.000000	0.092308
1161.000000	0.091927
1160.000000	0.091461
1159.000000	0.090957
1158.000000	0.090519
1157.000000	0.090135
1156.000000	0.089783
1155.000000	0.089347
1154.000000	0.088976
1153.000000	0.088676
1152.000000	0.088327
1151.000000	0.088001
1150.000000	0.087772
1149.000000	0.087530
1148.000000	0.087194
1147.000000	0.086865
1146.000000	0.086593
1145.000000	0.086339
1144.000000	0.086147
1143.000000	0.085827
1142.000000	0.085568
1141.000000	0.085349
1140.000000	0.085127
1139.000000	0.084942
1138.000000	0.084781
1137.000000	0.084567
1136.000000	0.084401
1135.000000	0.084167
1134.000000	0.084011
1133.000000	0.083836
1132.000000	0.083723
1131.000000	0.083551
1130.000000	0.083335
1129.000000	0.083242
1128.000000	0.083151
1127.000000	0.083163
1126.000000	0.082989
1125.000000	0.082946
1124.000000	0.082906
1123.000000	0.082827
1122.000000	0.082851
1121.000000	0.082789
1120.000000	0.082622
1119.000000	0.082676
1118.000000	0.082713
1117.000000	0.082801
1116.000000	0.082798
1115.000000	0.082798
1114.000000	0.082935
1113.000000	0.082906
1112.000000	0.082980
1111.000000	0.083043
1110.000000	0.083012
1109.000000	0.083063
1108.000000	0.083075
1107.000000	0.083216
1106.000000	0.083392
1105.000000	0.083427
1104.000000	0.083492
1103.000000	0.083451
1102.000000	0.083552
1101.000000	0.083584
1100.000000	0.083631
1099.000000	0.083654
1098.000000	0.083765
1097.000000	0.083957
1096.000000	0.083981
1095.000000	0.083932
1094.000000	0.084022
1093.000000	0.084090
1092.000000	0.084241
1091.000000	0.084294
1090.000000	0.084509
1089.000000	0.084557
1088.000000	0.084577
1087.000000	0.084704
1086.000000	0.084838
1085.000000	0.084810
1084.000000	0.085027
1083.000000	0.085105
1082.000000	0.085188
1081.000000	0.085125
1080.000000	0.085299
1079.000000	0.085385
1078.000000	0.085439
1077.000000	0.085762
1076.000000	0.085762
1075.000000	0.085898
1074.000000	0.086005
1073.000000	0.086164
1072.000000	0.086237
1071.000000	0.086409
1070.000000	0.086540
1069.000000	0.086631
1068.000000	0.086761
1067.000000	0.086943
1066.000000	0.087038
1065.000000	0.087053
1064.000000	0.087238
1063.000000	0.087405
1062.000000	0.087549
1061.000000	0.087631
1060.000000	0.087703
1059.000000	0.087796
1058.000000	0.087965
1057.000000	0.088218
1056.000000	0.088254
1055.000000	0.088432
1054.000000	0.088441
1053.000000	0.088550
1052.000000	0.088953
1051.000000	0.088980
1050.000000	0.089208
1049.000000	0.089300
1048.000000	0.089414
1047.000000	0.089382
1046.000000	0.089628
1045.000000	0.089725
1044.000000	0.089973
1043.000000	0.090060
1042.000000	0.090139
1041.000000	0.090259
1040.000000	0.090340
1039.000000	0.090401
1038.000000	0.090539
1037.000000	0.090715
1036.000000	0.090789
1035.000000	0.090970
1034.000000	0.090985
1033.000000	0.091096
1032.000000	0.091299
1031.000000	0.091472
1030.000000	0.091485
1029.000000	0.091597
1028.000000	0.091693
1027.000000	0.091692
1026.000000	0.091690
1025.000000	0.091999
1024.000000	0.092055
1023.000000	0.092247
1022.000000	0.092298
1021.000000	0.092236
1020.000000	0.092358
1019.000000	0.092374
1018.000000	0.092569
1017.000000	0.092649
1016.000000	0.092743
1015.000000	0.092844
1014.000000	0.092906
1013.000000	0.092859
1012.000000	0.092892
1011.000000	0.092964
1010.000000	0.093164
1009.000000	0.093220
1008.000000	0.093306
1007.000000	0.093329
1006.000000	0.093330
1005.000000	0.093224
1004.000000	0.093465
1003.000000	0.093527
1002.000000	0.093529
1001.000000	0.093645
1000.000000	0.093646
999.000000	0.093793
998.000000	0.093840
997.000000	0.093846
996.000000	0.093939
995.000000	0.094069
994.000000	0.094112
993.000000	0.094171
992.000000	0.094262
991.000000	0.094225
990.000000	0.094359
989.000000	0.094465
988.000000	0.094499
987.000000	0.094476
986.000000	0.094574
985.000000	0.094625
984.000000	0.094486
983.000000	0.094542
982.000000	0.094706
981.000000	0.094803
980.000000	0.094954
979.000000	0.094982
978.000000	0.094980
977.000000	0.095013
976.000000	0.095017
975.000000	0.095167
974.000000	0.095322
973.000000	0.095460
972.000000	0.095377
971.000000	0.095316
970.000000	0.095370
969.000000	0.095384
968.000000	0.095464
967.000000	0.095587
966.000000	0.095654
965.000000	0.095714
964.000000	0.095704
963.000000	0.095854
962.000000	0.095881
961.000000	0.095767
960.000000	0.095807
959.000000	0.095901
958.000000	0.096030
957.000000	0.096163
956.000000	0.096126
955.000000	0.096150
954.000000	0.096203
953.000000	0.096251
952.000000	0.096305
951.000000	0.096353
950.000000	0.096476
949.000000	0.096686
948.000000	0.096765
947.000000	0.096674
946.000000	0.096807
945.000000	0.096825
944.000000	0.096981
943.000000	0.097084
942.000000	0.097090
941.000000	0.097175
940.000000	0.097303
939.000000	0.097393
938.000000	0.097542
937.000000	0.097621
936.000000	0.097786
935.000000	0.097916
934.000000	0.097927
933.000000	0.098093
932.000000	0.098218
931.000000	0.098232
930.000000	0.098377
929.000000	0.098474
928.000000	0.098506
927.000000	0.098603
926.000000	0.098692
925.000000	0.098905
924.000000	0.098996
923.000000	0.099323
922.000000	0.099344
921.000000	0.099529
920.000000	0.099670
919.000000	0.099817
918.000000	0.100183
917.000000	0.100142
916.000000	0.099984
915.000000	0.100245
914.000000	0.100684
913.000000	0.100811
912.000000	0.100617
911.000000	0.100884
910.000000	0.101123
909.000000	0.101283
908.000000	0.101318
907.000000	0.101426
906.000000	0.101675
905.000000	0.101807
904.000000	0.101989
903.000000	0.101956
902.000000	0.101915
901.000000	0.102119
900.000000	0.102281
899.000000	0.102239
898.000000	0.102481
897.000000	0.102586
896.000000	0.102519
895.000000	0.102625
894.000000	0.102783
893.000000	0.103080
892.000000	0.102769
891.000000	0.103272
890.000000	0.103409
889.000000	0.103471
888.000000	0.103321
887.000000	0.102951
886.000000	0.103607
885.000000	0.103796
884.000000	0.103887
883.000000	0.103716
882.000000	0.103687
881.000000	0.104519
880.000000	0.103997
879.000000	0.104223
878.000000	0.103878
877.000000	0.104762
876.000000	0.104393
875.000000	0.104680
874.000000	0.105235
873.000000	0.105490
872.000000	0.105375
871.000000	0.105543
870.000000	0.105392
869.000000	0.105823
868.000000	0.106431
867.000000	0.106671
866.000000	0.106528
865.000000	0.105889
864.000000	0.106379
863.000000	0.106099
862.000000	0.106743
861.000000	0.107472
860.000000	0.107362
859.000000	0.101962
858.000000	0.100604
857.000000	0.101877
856.000000	0.097206
855.000000	0.102720
854.000000	0.101830
853.000000	0.103768
852.000000	0.103068
851.000000	0.101971
850.000000	0.101855
849.000000	0.103151
848.000000	0.103391
847.000000	0.103475
846.000000	0.103775
845.000000	0.102162
844.000000	0.104212
843.000000	0.104627
842.000000	0.104376
841.000000	0.105037
840.000000	0.104628
839.000000	0.104072
838.000000	0.105220
837.000000	0.105437
836.000000	0.104641
835.000000	0.105295
834.000000	0.106911
833.000000	0.104553
832.000000	0.108021
831.000000	0.107307
830.000000	0.108068
829.000000	0.108514
828.000000	0.107572
827.000000	0.109901
826.000000	0.107827
825.000000	0.109991
824.000000	0.107850
823.000000	0.109564
822.000000	0.108521
821.000000	0.109191
820.000000	0.109091
819.000000	0.109055
818.000000	0.109654
817.000000	0.109009
816.000000	0.111018
815.000000	0.111097
814.000000	0.109998
813.000000	0.111323
812.000000	0.110083
811.000000	0.110583
810.000000	0.112541
809.000000	0.111407
808.000000	0.112123
807.000000	0.111840
806.000000	0.111798
805.000000	0.112926
804.000000	0.113138
803.000000	0.112876
802.000000	0.112997
801.000000	0.113879
800.000000	0.113121
799.000000	0.113195
798.000000	0.113976
797.000000	0.114436
796.000000	0.115160
795.000000	0.115504
794.000000	0.115907
793.000000	0.115246
792.000000	0.115949
791.000000	0.115784
790.000000	0.116340
789.000000	0.116754
788.000000	0.116499
787.000000	0.116278
786.000000	0.116811
785.000000	0.117777
784.000000	0.117757
783.000000	0.118611
782.000000	0.119157
781.000000	0.119128
780.000000	0.118727
779.000000	0.118989
778.000000	0.119252
777.000000	0.119719
776.000000	0.119481
775.000000	0.120196
774.000000	0.121105
773.000000	0.121463
772.000000	0.121836
771.000000	0.121346
770.000000	0.121863
769.000000	0.121977
768.000000	0.123115
767.000000	0.123287
766.000000	0.123023
765.000000	0.123014
764.000000	0.124058
763.000000	0.124417
762.000000	0.125298
761.000000	0.125848
760.000000	0.125728
759.000000	0.126013
758.000000	0.126355
757.000000	0.126845
756.000000	0.126881
755.000000	0.127309
754.000000	0.127500
753.000000	0.127710
752.000000	0.128694
751.000000	0.129026
750.000000	0.129087
749.000000	0.129158
748.000000	0.129623
747.000000	0.131043
746.000000	0.131629
745.000000	0.131065
744.000000	0.131420
743.000000	0.131367
742.000000	0.132189
741.000000	0.133109
740.000000	0.133204
739.000000	0.134042
738.000000	0.133725
737.000000	0.133825
736.000000	0.134790
735.000000	0.135201
734.000000	0.135692
733.000000	0.135929
732.000000	0.136091
731.000000	0.136569
730.000000	0.137102
729.000000	0.137994
728.000000	0.138447
727.000000	0.138579
726.000000	0.138607
725.000000	0.139360
724.000000	0.140294
723.000000	0.140535
722.000000	0.140515
721.000000	0.140611
720.000000	0.141145
719.000000	0.142157
718.000000	0.142797
717.000000	0.143402
716.000000	0.143492
715.000000	0.143907
714.000000	0.144357
713.000000	0.145113
712.000000	0.145728
711.000000	0.145930
710.000000	0.146085
709.000000	0.146798
708.000000	0.147378
707.000000	0.147624
706.000000	0.148460
705.000000	0.149420
704.000000	0.150151
703.000000	0.150187
702.000000	0.150624
701.000000	0.151282
700.000000	0.151891
699.000000	0.152485
698.000000	0.152903
697.000000	0.153291
696.000000	0.153944
695.000000	0.154884
694.000000	0.155524
693.000000	0.155742
692.000000	0.155923
691.000000	0.156771
690.000000	0.157612
689.000000	0.158472
688.000000	0.159489
687.000000	0.159945
686.000000	0.160633
685.000000	0.160935
684.000000	0.161721
683.000000	0.162213
682.000000	0.163357
681.000000	0.164198
680.000000	0.164449
679.000000	0.165039
678.000000	0.165585
677.000000	0.166210
676.000000	0.167215
675.000000	0.167589
674.000000	0.168396
673.000000	0.168942
672.000000	0.169471
671.000000	0.170398
670.000000	0.171028
669.000000	0.171511
668.000000	0.172254
667.000000	0.173137
666.000000	0.173882
665.000000	0.174617
664.000000	0.175482
663.000000	0.175983
662.000000	0.176792
661.000000	0.177630
660.000000	0.178169
659.000000	0.178762
658.000000	0.179688
657.000000	0.180530
656.000000	0.181356
655.000000	0.182243
654.000000	0.183008
653.000000	0.183690
652.000000	0.184559
651.000000	0.184823
650.000000	0.185574
649.000000	0.186720
648.000000	0.187675
647.000000	0.188665
646.000000	0.189218
645.000000	0.189929
644.000000	0.190795
643.000000	0.192014
642.000000	0.192706
641.000000	0.193236
640.000000	0.194472
639.000000	0.195000
638.000000	0.195937
637.000000	0.196934
636.000000	0.197722
635.000000	0.198390
634.000000	0.199655
633.000000	0.200218
632.000000	0.200968
631.000000	0.201906
630.000000	0.202412
629.000000	0.203576
628.000000	0.204486
627.000000	0.205096
626.000000	0.206339
625.000000	0.207070
624.000000	0.207814
623.000000	0.209460
622.000000	0.210305
621.000000	0.211784
620.000000	0.212251
619.000000	0.212831
618.000000	0.213745
617.000000	0.214811
616.000000	0.215934
615.000000	0.217003
614.000000	0.217848
613.000000	0.218388
612.000000	0.219307
611.000000	0.220741
610.000000	0.221940
609.000000	0.222606
608.000000	0.224143
607.000000	0.225127
606.000000	0.226386
605.000000	0.227370
604.000000	0.228306
603.000000	0.229389
602.000000	0.230183
601.000000	0.231401
600.000000	0.232376
599.000000	0.233581
598.000000	0.235094
597.000000	0.236319
596.000000	0.237102
595.000000	0.238298
594.000000	0.239235
593.000000	0.240399
592.000000	0.241280
591.000000	0.242534
590.000000	0.244058
589.000000	0.244897
588.000000	0.246236
587.000000	0.247493
586.000000	0.248932
585.000000	0.250230
584.000000	0.250630
583.000000	0.252171
582.000000	0.253591
581.000000	0.254534
580.000000	0.256174
579.000000	0.257445
578.000000	0.258681
577.000000	0.260193
576.000000	0.261509
575.000000	0.262739
574.000000	0.264166
573.000000	0.264934
572.000000	0.266527
571.000000	0.268216
570.000000	0.269313
569.000000	0.270823
568.000000	0.272010
567.000000	0.273629
566.000000	0.275094
565.000000	0.276583
564.000000	0.277650
563.000000	0.279042
562.000000	0.281158
561.000000	0.281850
560.000000	0.283600
559.000000	0.284798
558.000000	0.286652
557.000000	0.288291
556.000000	0.289784
555.000000	0.291174
554.000000	0.292940
553.000000	0.294375
552.000000	0.296246
551.000000	0.297261
550.000000	0.299107
549.000000	0.300758
548.000000	0.302299
547.000000	0.303699
546.000000	0.305705
545.000000	0.307577
544.000000	0.309089
543.000000	0.310723
542.000000	0.312224
541.000000	0.314048
540.000000	0.316055
539.000000	0.317919
538.000000	0.319032
537.000000	0.320707
536.000000	0.322540
535.000000	0.324239
534.000000	0.326596
533.000000	0.328023
532.000000	0.330139
531.000000	0.331548
530.000000	0.333759
529.000000	0.335286
528.000000	0.337267
527.000000	0.338800
526.000000	0.340591
525.000000	0.342481
524.000000	0.344482
523.000000	0.346617
522.000000	0.348367
521.000000	0.350367
520.000000	0.351996
519.000000	0.354280
518.000000	0.356332
517.000000	0.358116
516.000000	0.360106
515.000000	0.361947
514.000000	0.364069
513.000000	0.365784
512.000000	0.367791
511.000000	0.369802
510.000000	0.372089
509.000000	0.374483
508.000000	0.376278
507.000000	0.378303
506.000000	0.380593
505.000000	0.382723
504.000000	0.384956
503.000000	0.386895
502.000000	0.388775
501.000000	0.391050
500.000000	0.393222
499.000000	0.395393
498.000000	0.397363
497.000000	0.399657
496.000000	0.401966
495.000000	0.403988
494.000000	0.406202
493.000000	0.408367
492.000000	0.410585
491.000000	0.412799
490.000000	0.414639
489.000000	0.417093
488.000000	0.419912
487.000000	0.422046
486.000000	0.424140
485.000000	0.425818
484.000000	0.427918
483.000000	0.430110
482.000000	0.432236
481.000000	0.434727
480.000000	0.436738
479.000000	0.439014
478.000000	0.441512
477.000000	0.443826
476.000000	0.446498
475.000000	0.448722
474.000000	0.450694
473.000000	0.452861
472.000000	0.455224
471.000000	0.457403
470.000000	0.459875
469.000000	0.462531
468.000000	0.464704
467.000000	0.467022
466.000000	0.469480
465.000000	0.471538
464.000000	0.474106
463.000000	0.476639
462.000000	0.479041
461.000000	0.481758
460.000000	0.484447
459.000000	0.487125
458.000000	0.489637
457.000000	0.492211
456.000000	0.495037
455.000000	0.498001
454.000000	0.500923
453.000000	0.503594
452.000000	0.506094
451.000000	0.508952
450.000000	0.512071
449.000000	0.514755
448.000000	0.517518
447.000000	0.520763
446.000000	0.524277
445.000000	0.527218
444.000000	0.530204
443.000000	0.533479
442.000000	0.536760
441.000000	0.539708
440.000000	0.542488
439.000000	0.546243
438.000000	0.549901
437.000000	0.552785
436.000000	0.556138
435.000000	0.559434
434.000000	0.562707
433.000000	0.565828
432.000000	0.569289
431.000000	0.573054
430.000000	0.576558
429.000000	0.580057
428.000000	0.584077
427.000000	0.587067
426.000000	0.590271
425.000000	0.594469
424.000000	0.598284
423.000000	0.601894
422.000000	0.605702
421.000000	0.609142
420.000000	0.613178
419.000000	0.616937
418.000000	0.620562
417.000000	0.624521
416.000000	0.628664
415.000000	0.632048
414.000000	0.635368
413.000000	0.639558
412.000000	0.643722
411.000000	0.647654
410.000000	0.651687
409.000000	0.655591
408.000000	0.659474
407.000000	0.662486
406.000000	0.667496
405.000000	0.672000
404.000000	0.675821
403.000000	0.680297
402.000000	0.684123
401.000000	0.687311
400.000000	0.691608
399.000000	0.696405
398.000000	0.699883
397.000000	0.703283
396.000000	0.707193
395.000000	0.712185
394.000000	0.716066
393.000000	0.719847
392.000000	0.724257
391.000000	0.728390
390.000000	0.731528
389.000000	0.735196
388.000000	0.740010
387.000000	0.743766
386.000000	0.747088
385.000000	0.752347
384.000000	0.755438
383.000000	0.759255
382.000000	0.764275
381.000000	0.768913
380.000000	0.771400
379.000000	0.775310
378.000000	0.780047
377.000000	0.782057
376.000000	0.785814
375.000000	0.791218
374.000000	0.793417
373.000000	0.797917
372.000000	0.801709
371.000000	0.808031
370.000000	0.810729
369.000000	0.812844
368.000000	0.817636
367.000000	0.819892
366.000000	0.824013
365.000000	0.827864
364.000000	0.830577
363.000000	0.834313
362.000000	0.836911
361.000000	0.841540
360.000000	0.844298
359.000000	0.845987
358.000000	0.850539
357.000000	0.854273
356.000000	0.855970
355.000000	0.858633
354.000000	0.861617
353.000000	0.864422
352.000000	0.866123
351.000000	0.870331
350.000000	0.874477
349.000000	0.876520
348.000000	0.878154
347.000000	0.879383
346.000000	0.884563
345.000000	0.884762
344.000000	0.886879
343.000000	0.893056
342.000000	0.895469
341.000000	0.895682
340.000000	0.899409
339.000000	0.900342
338.000000	0.903828
337.000000	0.908020
336.000000	0.906819
335.000000	0.913581
334.000000	0.916585
333.000000	0.918496
332.000000	0.920663
331.000000	0.923211
330.000000	0.920882
329.000000	0.929326
328.000000	0.931004
327.000000	0.929974
326.000000	0.931992
325.000000	0.937980
324.000000	0.939731
323.000000	0.940901
322.000000	0.937455
321.000000	0.944672
320.000000	0.943051
319.000000	0.944315
318.000000	0.946834
317.000000	0.947181
316.000000	0.947984
315.000000	0.948244
314.000000	0.951647
313.000000	0.950512
312.000000	0.949726
311.000000	0.952467
310.000000	0.955764
309.000000	0.956203
308.000000	0.955956
307.000000	0.955238
306.000000	0.954891
305.000000	0.955928
304.000000	0.952678
303.000000	0.955599
302.000000	0.957235
301.000000	0.957986
300.000000	0.957665
299.000000	0.955640
298.000000	0.957702
297.000000	0.955265
296.000000	0.954315
295.000000	0.957132
294.000000	0.956337
293.000000	0.959261
292.000000	0.955463
291.000000	0.959848
290.000000	0.960523
289.000000	0.960951
288.000000	0.957342
287.000000	0.958575
286.000000	0.959607
285.000000	0.957095
284.000000	0.958908
283.000000	0.954872
282.000000	0.954512
281.000000	0.953334
280.000000	0.953800
279.000000	0.952964
278.000000	0.948955
277.000000	0.946053
276.000000	0.944880
275.000000	0.944273
274.000000	0.941831
273.000000	0.941288
272.000000	0.938978
271.000000	0.936696
270.000000	0.934773
269.000000	0.932243
268.000000	0.930594
267.000000	0.928880
266.000000	0.924126
265.000000	0.922053
264.000000	0.921128
263.000000	0.916180
262.000000	0.914744
261.000000	0.909637
260.000000	0.906211
259.000000	0.901254
258.000000	0.898130
257.000000	0.895749
256.000000	0.891721
255.000000	0.887226
254.000000	0.884287
253.000000	0.878000
252.000000	0.872557
251.000000	0.868374
250.000000	0.866755
249.000000	0.862369
248.000000	0.857625
247.000000	0.853846
246.000000	0.850758
245.000000	0.848509
244.000000	0.843954
243.000000	0.840165
242.000000	0.837447
241.000000	0.838521
240.000000	0.834341
239.000000	0.832769
238.000000	0.833231
237.000000	0.831443
236.000000	0.831888
235.000000	0.831499
234.000000	0.831427
233.000000	0.830003
232.000000	0.830925
231.000000	0.830129
230.000000	0.829512
229.000000	0.831242
228.000000	0.829626
227.000000	0.827158
226.000000	0.828579
225.000000	0.829665
224.000000	0.826090
223.000000	0.821922
222.000000	0.820299
221.000000	0.819773
220.000000	0.815616
219.000000	0.809768
218.000000	0.808244
217.000000	0.803314
216.000000	0.795614
215.000000	0.797997
214.000000	0.797298
213.000000	0.786649
212.000000	0.778050
211.000000	0.776309
210.000000	0.768649
209.000000	0.757424
208.000000	0.749146
207.000000	0.745246
206.000000	0.733691
205.000000	0.723112
204.000000	0.711373
203.000000	0.694362
202.000000	0.681233
201.000000	0.665033
200.000000	0.651107
