PE UV       SUBTECH     SPECTRUM    ASCII       PEDS        4.00        
   -1
Amsopph192.Sample.asc
18/03/23
16:47:29.00
18/03/23
16:47:29.00
Administrator

200.000000
1
Lambda 750
750N8071901
PerkinElmer UV WinLab 6.0.4.0738 / 1.61.00 Lambda 900

0
0
3350/servo 860.8/2
0
0
UV/VIS
1
1
1
CommonBeamDepol,150mm sphere / downward view
0
0
0
0
Program
Program
3350/servo 860.8/2
3350/0.2 860.8/0.2
3350/0.2 860.8/0.2
0
1
 
 
 
0
 
860.8
319.2
860.8
Front
100
on
 
 
0
0
0
 
0
 
 
 
0
 
 
0
0
0
0
0
 
 
 
 
0
0


0
0
#HDR
-1
-1
#GR
nm
A
1.0
0.0
2350.000000
-1.000000
2151
8
0.935922
0.032227
#DATA
2350.000000	0.450474
2349.000000	0.443494
2348.000000	0.441041
2347.000000	0.433235
2346.000000	0.444205
2345.000000	0.444438
2344.000000	0.452036
2343.000000	0.445034
2342.000000	0.439283
2341.000000	0.440703
2340.000000	0.442229
2339.000000	0.434099
2338.000000	0.432435
2337.000000	0.432261
2336.000000	0.429099
2335.000000	0.428613
2334.000000	0.429275
2333.000000	0.430664
2332.000000	0.427776
2331.000000	0.431138
2330.000000	0.435777
2329.000000	0.432506
2328.000000	0.435026
2327.000000	0.437885
2326.000000	0.434431
2325.000000	0.434232
2324.000000	0.433694
2323.000000	0.434277
2322.000000	0.437695
2321.000000	0.435393
2320.000000	0.432795
2319.000000	0.435040
2318.000000	0.436463
2317.000000	0.437710
2316.000000	0.438353
2315.000000	0.436505
2314.000000	0.441437
2313.000000	0.444292
2312.000000	0.442706
2311.000000	0.445177
2310.000000	0.446469
2309.000000	0.444978
2308.000000	0.444805
2307.000000	0.450661
2306.000000	0.454319
2305.000000	0.454118
2304.000000	0.453447
2303.000000	0.452667
2302.000000	0.453547
2301.000000	0.458952
2300.000000	0.459235
2299.000000	0.459962
2298.000000	0.462255
2297.000000	0.465269
2296.000000	0.464758
2295.000000	0.467857
2294.000000	0.468201
2293.000000	0.469247
2292.000000	0.473122
2291.000000	0.476752
2290.000000	0.476916
2289.000000	0.475718
2288.000000	0.473500
2287.000000	0.471421
2286.000000	0.475486
2285.000000	0.478681
2284.000000	0.477095
2283.000000	0.475382
2282.000000	0.476181
2281.000000	0.478138
2280.000000	0.477881
2279.000000	0.478911
2278.000000	0.481165
2277.000000	0.480682
2276.000000	0.480216
2275.000000	0.477534
2274.000000	0.475629
2273.000000	0.476618
2272.000000	0.475819
2271.000000	0.475234
2270.000000	0.472187
2269.000000	0.472539
2268.000000	0.474703
2267.000000	0.471787
2266.000000	0.468145
2265.000000	0.466584
2264.000000	0.464056
2263.000000	0.463389
2262.000000	0.461921
2261.000000	0.459530
2260.000000	0.456434
2259.000000	0.452710
2258.000000	0.447892
2257.000000	0.445245
2256.000000	0.444459
2255.000000	0.442182
2254.000000	0.438671
2253.000000	0.436248
2252.000000	0.432006
2251.000000	0.425239
2250.000000	0.421176
2249.000000	0.419567
2248.000000	0.417566
2247.000000	0.413278
2246.000000	0.409862
2245.000000	0.407916
2244.000000	0.405228
2243.000000	0.401594
2242.000000	0.398376
2241.000000	0.396220
2240.000000	0.393325
2239.000000	0.390053
2238.000000	0.389149
2237.000000	0.387537
2236.000000	0.385317
2235.000000	0.384035
2234.000000	0.382565
2233.000000	0.382454
2232.000000	0.380823
2231.000000	0.379740
2230.000000	0.378971
2229.000000	0.378459
2228.000000	0.376513
2227.000000	0.375171
2226.000000	0.375625
2225.000000	0.376241
2224.000000	0.375599
2223.000000	0.375891
2222.000000	0.378410
2221.000000	0.377812
2220.000000	0.377805
2219.000000	0.379377
2218.000000	0.379796
2217.000000	0.380339
2216.000000	0.380572
2215.000000	0.381537
2214.000000	0.382559
2213.000000	0.383677
2212.000000	0.385221
2211.000000	0.385819
2210.000000	0.386854
2209.000000	0.388067
2208.000000	0.388830
2207.000000	0.389197
2206.000000	0.390033
2205.000000	0.390589
2204.000000	0.392384
2203.000000	0.392123
2202.000000	0.395097
2201.000000	0.397305
2200.000000	0.397466
2199.000000	0.397730
2198.000000	0.397916
2197.000000	0.398829
2196.000000	0.400713
2195.000000	0.402888
2194.000000	0.405433
2193.000000	0.406895
2192.000000	0.407763
2191.000000	0.407397
2190.000000	0.409519
2189.000000	0.412029
2188.000000	0.413348
2187.000000	0.414971
2186.000000	0.416550
2185.000000	0.416491
2184.000000	0.418167
2183.000000	0.416510
2182.000000	0.416237
2181.000000	0.416912
2180.000000	0.418058
2179.000000	0.418982
2178.000000	0.420299
2177.000000	0.419043
2176.000000	0.418549
2175.000000	0.418854
2174.000000	0.418741
2173.000000	0.419421
2172.000000	0.418698
2171.000000	0.417310
2170.000000	0.415709
2169.000000	0.416198
2168.000000	0.413125
2167.000000	0.412664
2166.000000	0.413183
2165.000000	0.413566
2164.000000	0.410136
2163.000000	0.408937
2162.000000	0.404560
2161.000000	0.405249
2160.000000	0.401389
2159.000000	0.398747
2158.000000	0.398313
2157.000000	0.395802
2156.000000	0.394115
2155.000000	0.392551
2154.000000	0.387888
2153.000000	0.387231
2152.000000	0.384641
2151.000000	0.383700
2150.000000	0.381596
2149.000000	0.381094
2148.000000	0.378157
2147.000000	0.374883
2146.000000	0.372032
2145.000000	0.370112
2144.000000	0.367405
2143.000000	0.366050
2142.000000	0.364197
2141.000000	0.362596
2140.000000	0.359356
2139.000000	0.357731
2138.000000	0.355855
2137.000000	0.355585
2136.000000	0.354288
2135.000000	0.350466
2134.000000	0.349653
2133.000000	0.350883
2132.000000	0.347755
2131.000000	0.345120
2130.000000	0.346252
2129.000000	0.344907
2128.000000	0.345677
2127.000000	0.343526
2126.000000	0.342141
2125.000000	0.340518
2124.000000	0.340548
2123.000000	0.339386
2122.000000	0.338864
2121.000000	0.337308
2120.000000	0.338274
2119.000000	0.337718
2118.000000	0.336041
2117.000000	0.335282
2116.000000	0.335851
2115.000000	0.333782
2114.000000	0.334898
2113.000000	0.334928
2112.000000	0.334814
2111.000000	0.334341
2110.000000	0.334511
2109.000000	0.332993
2108.000000	0.334048
2107.000000	0.331753
2106.000000	0.331401
2105.000000	0.332294
2104.000000	0.331657
2103.000000	0.331374
2102.000000	0.331903
2101.000000	0.331238
2100.000000	0.330603
2099.000000	0.330626
2098.000000	0.330353
2097.000000	0.329629
2096.000000	0.329825
2095.000000	0.331891
2094.000000	0.330163
2093.000000	0.330583
2092.000000	0.330177
2091.000000	0.331071
2090.000000	0.331913
2089.000000	0.331657
2088.000000	0.332204
2087.000000	0.331829
2086.000000	0.332516
2085.000000	0.332239
2084.000000	0.334614
2083.000000	0.335073
2082.000000	0.335198
2081.000000	0.335905
2080.000000	0.336703
2079.000000	0.338629
2078.000000	0.339396
2077.000000	0.340218
2076.000000	0.341062
2075.000000	0.343562
2074.000000	0.345420
2073.000000	0.346317
2072.000000	0.348380
2071.000000	0.350032
2070.000000	0.351029
2069.000000	0.353651
2068.000000	0.355636
2067.000000	0.357233
2066.000000	0.360082
2065.000000	0.362494
2064.000000	0.364329
2063.000000	0.367036
2062.000000	0.369215
2061.000000	0.372520
2060.000000	0.374417
2059.000000	0.377077
2058.000000	0.378923
2057.000000	0.381489
2056.000000	0.383879
2055.000000	0.385514
2054.000000	0.388226
2053.000000	0.390810
2052.000000	0.392738
2051.000000	0.394976
2050.000000	0.397069
2049.000000	0.399014
2048.000000	0.400592
2047.000000	0.401794
2046.000000	0.403309
2045.000000	0.404079
2044.000000	0.404746
2043.000000	0.405565
2042.000000	0.405455
2041.000000	0.405608
2040.000000	0.405200
2039.000000	0.404353
2038.000000	0.404070
2037.000000	0.403520
2036.000000	0.402265
2035.000000	0.401251
2034.000000	0.399551
2033.000000	0.397989
2032.000000	0.396172
2031.000000	0.394158
2030.000000	0.392830
2029.000000	0.391374
2028.000000	0.389539
2027.000000	0.387516
2026.000000	0.385495
2025.000000	0.384279
2024.000000	0.383107
2023.000000	0.382050
2022.000000	0.381313
2021.000000	0.380595
2020.000000	0.379442
2019.000000	0.378889
2018.000000	0.378238
2017.000000	0.377767
2016.000000	0.378527
2015.000000	0.378905
2014.000000	0.378890
2013.000000	0.379423
2012.000000	0.380281
2011.000000	0.379805
2010.000000	0.380236
2009.000000	0.381506
2008.000000	0.382653
2007.000000	0.384447
2006.000000	0.386006
2005.000000	0.386763
2004.000000	0.388510
2003.000000	0.390190
2002.000000	0.391375
2001.000000	0.393002
2000.000000	0.394722
1999.000000	0.396100
1998.000000	0.397656
1997.000000	0.399514
1996.000000	0.401163
1995.000000	0.402981
1994.000000	0.405034
1993.000000	0.406584
1992.000000	0.408305
1991.000000	0.410192
1990.000000	0.411763
1989.000000	0.413841
1988.000000	0.415218
1987.000000	0.417007
1986.000000	0.419456
1985.000000	0.421510
1984.000000	0.422865
1983.000000	0.424734
1982.000000	0.426382
1981.000000	0.428263
1980.000000	0.430186
1979.000000	0.431994
1978.000000	0.433965
1977.000000	0.435977
1976.000000	0.438004
1975.000000	0.439693
1974.000000	0.441408
1973.000000	0.442883
1972.000000	0.445328
1971.000000	0.447326
1970.000000	0.448752
1969.000000	0.449835
1968.000000	0.452023
1967.000000	0.454205
1966.000000	0.455559
1965.000000	0.456999
1964.000000	0.459442
1963.000000	0.460529
1962.000000	0.462520
1961.000000	0.464986
1960.000000	0.465956
1959.000000	0.467679
1958.000000	0.468926
1957.000000	0.470671
1956.000000	0.471746
1955.000000	0.473245
1954.000000	0.473639
1953.000000	0.474718
1952.000000	0.476735
1951.000000	0.477584
1950.000000	0.478142
1949.000000	0.480004
1948.000000	0.480061
1947.000000	0.480963
1946.000000	0.481780
1945.000000	0.481944
1944.000000	0.481561
1943.000000	0.480903
1942.000000	0.480865
1941.000000	0.480622
1940.000000	0.480223
1939.000000	0.477992
1938.000000	0.477315
1937.000000	0.476981
1936.000000	0.474651
1935.000000	0.474372
1934.000000	0.472094
1933.000000	0.469626
1932.000000	0.468709
1931.000000	0.464825
1930.000000	0.462306
1929.000000	0.459425
1928.000000	0.456754
1927.000000	0.451988
1926.000000	0.450089
1925.000000	0.446011
1924.000000	0.440621
1923.000000	0.436330
1922.000000	0.431966
1921.000000	0.427256
1920.000000	0.423603
1919.000000	0.418494
1918.000000	0.412748
1917.000000	0.407882
1916.000000	0.403003
1915.000000	0.395115
1914.000000	0.389670
1913.000000	0.384300
1912.000000	0.377612
1911.000000	0.371597
1910.000000	0.365528
1909.000000	0.358997
1908.000000	0.352069
1907.000000	0.344689
1906.000000	0.337727
1905.000000	0.330457
1904.000000	0.322570
1903.000000	0.314942
1902.000000	0.307452
1901.000000	0.299747
1900.000000	0.292830
1899.000000	0.285487
1898.000000	0.277104
1897.000000	0.270287
1896.000000	0.262821
1895.000000	0.255347
1894.000000	0.249565
1893.000000	0.242721
1892.000000	0.235589
1891.000000	0.229932
1890.000000	0.223481
1889.000000	0.217635
1888.000000	0.211691
1887.000000	0.206487
1886.000000	0.201543
1885.000000	0.196750
1884.000000	0.191685
1883.000000	0.186711
1882.000000	0.182687
1881.000000	0.178417
1880.000000	0.174167
1879.000000	0.170389
1878.000000	0.166162
1877.000000	0.162281
1876.000000	0.159462
1875.000000	0.155999
1874.000000	0.153036
1873.000000	0.150301
1872.000000	0.147533
1871.000000	0.145363
1870.000000	0.143062
1869.000000	0.140919
1868.000000	0.139178
1867.000000	0.137700
1866.000000	0.136415
1865.000000	0.135004
1864.000000	0.133968
1863.000000	0.132890
1862.000000	0.131830
1861.000000	0.131110
1860.000000	0.130317
1859.000000	0.129466
1858.000000	0.129056
1857.000000	0.128841
1856.000000	0.128224
1855.000000	0.127648
1854.000000	0.127128
1853.000000	0.127101
1852.000000	0.126914
1851.000000	0.126549
1850.000000	0.126740
1849.000000	0.126674
1848.000000	0.126155
1847.000000	0.126007
1846.000000	0.126110
1845.000000	0.126246
1844.000000	0.126819
1843.000000	0.127118
1842.000000	0.127263
1841.000000	0.127387
1840.000000	0.127801
1839.000000	0.127873
1838.000000	0.128164
1837.000000	0.128858
1836.000000	0.129206
1835.000000	0.129689
1834.000000	0.130285
1833.000000	0.130529
1832.000000	0.131189
1831.000000	0.131711
1830.000000	0.131996
1829.000000	0.132530
1828.000000	0.133113
1827.000000	0.133529
1826.000000	0.133849
1825.000000	0.134164
1824.000000	0.134490
1823.000000	0.135050
1822.000000	0.135618
1821.000000	0.135833
1820.000000	0.136434
1819.000000	0.137308
1818.000000	0.137680
1817.000000	0.137986
1816.000000	0.138446
1815.000000	0.138862
1814.000000	0.139411
1813.000000	0.139807
1812.000000	0.140173
1811.000000	0.140624
1810.000000	0.141077
1809.000000	0.141464
1808.000000	0.141965
1807.000000	0.142574
1806.000000	0.142952
1805.000000	0.143317
1804.000000	0.143795
1803.000000	0.144202
1802.000000	0.144684
1801.000000	0.145089
1800.000000	0.145455
1799.000000	0.145980
1798.000000	0.146449
1797.000000	0.146782
1796.000000	0.147244
1795.000000	0.147669
1794.000000	0.147718
1793.000000	0.148140
1792.000000	0.148703
1791.000000	0.148962
1790.000000	0.149220
1789.000000	0.149646
1788.000000	0.149875
1787.000000	0.150213
1786.000000	0.150641
1785.000000	0.151029
1784.000000	0.151503
1783.000000	0.151989
1782.000000	0.152275
1781.000000	0.152715
1780.000000	0.153086
1779.000000	0.153512
1778.000000	0.154151
1777.000000	0.154743
1776.000000	0.155220
1775.000000	0.155876
1774.000000	0.156413
1773.000000	0.156947
1772.000000	0.157832
1771.000000	0.158385
1770.000000	0.158770
1769.000000	0.159493
1768.000000	0.160269
1767.000000	0.160784
1766.000000	0.161347
1765.000000	0.161999
1764.000000	0.162509
1763.000000	0.163291
1762.000000	0.163893
1761.000000	0.164503
1760.000000	0.165083
1759.000000	0.165723
1758.000000	0.166091
1757.000000	0.166766
1756.000000	0.167321
1755.000000	0.167978
1754.000000	0.168626
1753.000000	0.169361
1752.000000	0.169986
1751.000000	0.170735
1750.000000	0.171261
1749.000000	0.171788
1748.000000	0.172755
1747.000000	0.173256
1746.000000	0.173750
1745.000000	0.174581
1744.000000	0.175235
1743.000000	0.175898
1742.000000	0.176867
1741.000000	0.177473
1740.000000	0.178106
1739.000000	0.178620
1738.000000	0.179185
1737.000000	0.179713
1736.000000	0.180092
1735.000000	0.180152
1734.000000	0.180165
1733.000000	0.180381
1732.000000	0.180542
1731.000000	0.180189
1730.000000	0.180063
1729.000000	0.179646
1728.000000	0.179314
1727.000000	0.178625
1726.000000	0.178118
1725.000000	0.177152
1724.000000	0.176680
1723.000000	0.175456
1722.000000	0.174526
1721.000000	0.173397
1720.000000	0.171860
1719.000000	0.170777
1718.000000	0.169742
1717.000000	0.168457
1716.000000	0.167411
1715.000000	0.166458
1714.000000	0.165501
1713.000000	0.164107
1712.000000	0.163395
1711.000000	0.162486
1710.000000	0.161740
1709.000000	0.161010
1708.000000	0.160491
1707.000000	0.160250
1706.000000	0.159551
1705.000000	0.159358
1704.000000	0.158880
1703.000000	0.158668
1702.000000	0.158527
1701.000000	0.158485
1700.000000	0.158149
1699.000000	0.158215
1698.000000	0.158017
1697.000000	0.157686
1696.000000	0.157013
1695.000000	0.157102
1694.000000	0.156415
1693.000000	0.155843
1692.000000	0.155508
1691.000000	0.154593
1690.000000	0.153815
1689.000000	0.152788
1688.000000	0.151788
1687.000000	0.150605
1686.000000	0.149370
1685.000000	0.147975
1684.000000	0.146635
1683.000000	0.145115
1682.000000	0.143325
1681.000000	0.141438
1680.000000	0.139520
1679.000000	0.137744
1678.000000	0.135763
1677.000000	0.133811
1676.000000	0.131882
1675.000000	0.130077
1674.000000	0.128028
1673.000000	0.126194
1672.000000	0.124565
1671.000000	0.122898
1670.000000	0.121064
1669.000000	0.119624
1668.000000	0.118196
1667.000000	0.116826
1666.000000	0.115614
1665.000000	0.114533
1664.000000	0.113239
1663.000000	0.112585
1662.000000	0.111712
1661.000000	0.110857
1660.000000	0.110201
1659.000000	0.109526
1658.000000	0.109059
1657.000000	0.108678
1656.000000	0.108626
1655.000000	0.108072
1654.000000	0.107851
1653.000000	0.107656
1652.000000	0.107553
1651.000000	0.107628
1650.000000	0.107480
1649.000000	0.107478
1648.000000	0.107517
1647.000000	0.107576
1646.000000	0.107709
1645.000000	0.108150
1644.000000	0.108275
1643.000000	0.108434
1642.000000	0.108637
1641.000000	0.108759
1640.000000	0.108990
1639.000000	0.109487
1638.000000	0.109749
1637.000000	0.110098
1636.000000	0.110586
1635.000000	0.111020
1634.000000	0.111403
1633.000000	0.111864
1632.000000	0.112203
1631.000000	0.112705
1630.000000	0.113181
1629.000000	0.113629
1628.000000	0.114182
1627.000000	0.114730
1626.000000	0.115120
1625.000000	0.115561
1624.000000	0.116157
1623.000000	0.116771
1622.000000	0.117316
1621.000000	0.117902
1620.000000	0.118603
1619.000000	0.119234
1618.000000	0.119714
1617.000000	0.120289
1616.000000	0.120927
1615.000000	0.121576
1614.000000	0.122320
1613.000000	0.123040
1612.000000	0.123773
1611.000000	0.124455
1610.000000	0.125119
1609.000000	0.125852
1608.000000	0.126485
1607.000000	0.127157
1606.000000	0.128057
1605.000000	0.128935
1604.000000	0.129637
1603.000000	0.130313
1602.000000	0.131076
1601.000000	0.131801
1600.000000	0.132585
1599.000000	0.133295
1598.000000	0.133961
1597.000000	0.134777
1596.000000	0.135535
1595.000000	0.136201
1594.000000	0.136841
1593.000000	0.137434
1592.000000	0.138158
1591.000000	0.138948
1590.000000	0.139461
1589.000000	0.140159
1588.000000	0.140940
1587.000000	0.141439
1586.000000	0.142058
1585.000000	0.142698
1584.000000	0.143286
1583.000000	0.143710
1582.000000	0.144370
1581.000000	0.145001
1580.000000	0.145513
1579.000000	0.146107
1578.000000	0.146638
1577.000000	0.147190
1576.000000	0.147789
1575.000000	0.148325
1574.000000	0.149018
1573.000000	0.149655
1572.000000	0.150102
1571.000000	0.150634
1570.000000	0.151249
1569.000000	0.151771
1568.000000	0.152246
1567.000000	0.152650
1566.000000	0.153140
1565.000000	0.153636
1564.000000	0.153957
1563.000000	0.154324
1562.000000	0.154820
1561.000000	0.155107
1560.000000	0.155286
1559.000000	0.155653
1558.000000	0.155919
1557.000000	0.156172
1556.000000	0.156453
1555.000000	0.156678
1554.000000	0.157085
1553.000000	0.157332
1552.000000	0.157746
1551.000000	0.158091
1550.000000	0.158489
1549.000000	0.159079
1548.000000	0.159502
1547.000000	0.160059
1546.000000	0.160554
1545.000000	0.161399
1544.000000	0.162186
1543.000000	0.163022
1542.000000	0.163930
1541.000000	0.164790
1540.000000	0.165876
1539.000000	0.166809
1538.000000	0.167898
1537.000000	0.169082
1536.000000	0.170039
1535.000000	0.171159
1534.000000	0.172412
1533.000000	0.173260
1532.000000	0.174395
1531.000000	0.175403
1530.000000	0.176395
1529.000000	0.177615
1528.000000	0.178562
1527.000000	0.179315
1526.000000	0.180343
1525.000000	0.181220
1524.000000	0.181871
1523.000000	0.182696
1522.000000	0.183276
1521.000000	0.183993
1520.000000	0.184791
1519.000000	0.185392
1518.000000	0.185653
1517.000000	0.186206
1516.000000	0.186808
1515.000000	0.187332
1514.000000	0.187725
1513.000000	0.187964
1512.000000	0.188407
1511.000000	0.188773
1510.000000	0.189314
1509.000000	0.189572
1508.000000	0.189701
1507.000000	0.190014
1506.000000	0.190218
1505.000000	0.190387
1504.000000	0.190695
1503.000000	0.190809
1502.000000	0.191060
1501.000000	0.191174
1500.000000	0.191249
1499.000000	0.191353
1498.000000	0.191524
1497.000000	0.191355
1496.000000	0.191454
1495.000000	0.191272
1494.000000	0.191234
1493.000000	0.191030
1492.000000	0.191082
1491.000000	0.190523
1490.000000	0.190341
1489.000000	0.190155
1488.000000	0.189756
1487.000000	0.189362
1486.000000	0.188967
1485.000000	0.188631
1484.000000	0.188158
1483.000000	0.187576
1482.000000	0.187052
1481.000000	0.186490
1480.000000	0.185972
1479.000000	0.185525
1478.000000	0.184774
1477.000000	0.184373
1476.000000	0.183910
1475.000000	0.183132
1474.000000	0.182706
1473.000000	0.182335
1472.000000	0.181741
1471.000000	0.181272
1470.000000	0.180863
1469.000000	0.180274
1468.000000	0.179957
1467.000000	0.179349
1466.000000	0.178748
1465.000000	0.178308
1464.000000	0.177847
1463.000000	0.177300
1462.000000	0.176783
1461.000000	0.176393
1460.000000	0.175866
1459.000000	0.175249
1458.000000	0.174671
1457.000000	0.174070
1456.000000	0.173495
1455.000000	0.172757
1454.000000	0.172205
1453.000000	0.171506
1452.000000	0.170772
1451.000000	0.169977
1450.000000	0.169387
1449.000000	0.168509
1448.000000	0.167791
1447.000000	0.166919
1446.000000	0.166117
1445.000000	0.165101
1444.000000	0.164153
1443.000000	0.163331
1442.000000	0.162296
1441.000000	0.161302
1440.000000	0.160202
1439.000000	0.159266
1438.000000	0.158109
1437.000000	0.157023
1436.000000	0.155894
1435.000000	0.154613
1434.000000	0.153398
1433.000000	0.152100
1432.000000	0.150710
1431.000000	0.149350
1430.000000	0.148055
1429.000000	0.146556
1428.000000	0.144963
1427.000000	0.143542
1426.000000	0.141940
1425.000000	0.140239
1424.000000	0.138504
1423.000000	0.136761
1422.000000	0.134982
1421.000000	0.133204
1420.000000	0.131292
1419.000000	0.129384
1418.000000	0.127412
1417.000000	0.125426
1416.000000	0.123500
1415.000000	0.121318
1414.000000	0.119243
1413.000000	0.117118
1412.000000	0.115187
1411.000000	0.113040
1410.000000	0.110928
1409.000000	0.108958
1408.000000	0.106848
1407.000000	0.104818
1406.000000	0.102703
1405.000000	0.100660
1404.000000	0.098770
1403.000000	0.096707
1402.000000	0.094846
1401.000000	0.093130
1400.000000	0.091310
1399.000000	0.089444
1398.000000	0.087628
1397.000000	0.085922
1396.000000	0.084248
1395.000000	0.082689
1394.000000	0.081221
1393.000000	0.079625
1392.000000	0.078126
1391.000000	0.076626
1390.000000	0.075354
1389.000000	0.074110
1388.000000	0.072746
1387.000000	0.071536
1386.000000	0.070425
1385.000000	0.069307
1384.000000	0.068306
1383.000000	0.067333
1382.000000	0.066371
1381.000000	0.065543
1380.000000	0.064823
1379.000000	0.064020
1378.000000	0.063338
1377.000000	0.062712
1376.000000	0.062007
1375.000000	0.061487
1374.000000	0.061039
1373.000000	0.060406
1372.000000	0.059788
1371.000000	0.059286
1370.000000	0.058851
1369.000000	0.058418
1368.000000	0.057918
1367.000000	0.057501
1366.000000	0.057049
1365.000000	0.056550
1364.000000	0.056134
1363.000000	0.055739
1362.000000	0.055212
1361.000000	0.054719
1360.000000	0.054329
1359.000000	0.053861
1358.000000	0.053253
1357.000000	0.052885
1356.000000	0.052496
1355.000000	0.051991
1354.000000	0.051580
1353.000000	0.050999
1352.000000	0.050551
1351.000000	0.050153
1350.000000	0.049616
1349.000000	0.049010
1348.000000	0.048591
1347.000000	0.048194
1346.000000	0.047812
1345.000000	0.047383
1344.000000	0.047010
1343.000000	0.046568
1342.000000	0.046185
1341.000000	0.045656
1340.000000	0.045201
1339.000000	0.044864
1338.000000	0.044597
1337.000000	0.044176
1336.000000	0.043684
1335.000000	0.043409
1334.000000	0.043167
1333.000000	0.042896
1332.000000	0.042527
1331.000000	0.042104
1330.000000	0.041880
1329.000000	0.041847
1328.000000	0.041582
1327.000000	0.041177
1326.000000	0.040986
1325.000000	0.040983
1324.000000	0.040735
1323.000000	0.040450
1322.000000	0.040493
1321.000000	0.040169
1320.000000	0.040150
1319.000000	0.040016
1318.000000	0.039747
1317.000000	0.039713
1316.000000	0.039750
1315.000000	0.039619
1314.000000	0.039500
1313.000000	0.039488
1312.000000	0.039109
1311.000000	0.039267
1310.000000	0.039057
1309.000000	0.038847
1308.000000	0.038860
1307.000000	0.038874
1306.000000	0.038653
1305.000000	0.038593
1304.000000	0.038548
1303.000000	0.038512
1302.000000	0.038547
1301.000000	0.038569
1300.000000	0.038493
1299.000000	0.038448
1298.000000	0.038436
1297.000000	0.038505
1296.000000	0.038528
1295.000000	0.038621
1294.000000	0.038579
1293.000000	0.038694
1292.000000	0.038680
1291.000000	0.038822
1290.000000	0.038801
1289.000000	0.038821
1288.000000	0.039017
1287.000000	0.039027
1286.000000	0.039067
1285.000000	0.039108
1284.000000	0.039160
1283.000000	0.039148
1282.000000	0.039258
1281.000000	0.039263
1280.000000	0.039363
1279.000000	0.039517
1278.000000	0.039430
1277.000000	0.039517
1276.000000	0.039447
1275.000000	0.039548
1274.000000	0.039577
1273.000000	0.039636
1272.000000	0.039648
1271.000000	0.039485
1270.000000	0.039534
1269.000000	0.039580
1268.000000	0.039440
1267.000000	0.039447
1266.000000	0.039686
1265.000000	0.039541
1264.000000	0.039505
1263.000000	0.039396
1262.000000	0.039415
1261.000000	0.039401
1260.000000	0.039162
1259.000000	0.039273
1258.000000	0.039438
1257.000000	0.039292
1256.000000	0.039268
1255.000000	0.039255
1254.000000	0.039301
1253.000000	0.039320
1252.000000	0.039212
1251.000000	0.039210
1250.000000	0.039309
1249.000000	0.039387
1248.000000	0.039453
1247.000000	0.039653
1246.000000	0.039626
1245.000000	0.039777
1244.000000	0.040010
1243.000000	0.040157
1242.000000	0.040333
1241.000000	0.040434
1240.000000	0.040682
1239.000000	0.040753
1238.000000	0.041076
1237.000000	0.041265
1236.000000	0.041409
1235.000000	0.041595
1234.000000	0.041798
1233.000000	0.042128
1232.000000	0.042304
1231.000000	0.042409
1230.000000	0.042666
1229.000000	0.042822
1228.000000	0.043089
1227.000000	0.043204
1226.000000	0.043354
1225.000000	0.043494
1224.000000	0.043754
1223.000000	0.043916
1222.000000	0.044073
1221.000000	0.044311
1220.000000	0.044575
1219.000000	0.044790
1218.000000	0.044881
1217.000000	0.045055
1216.000000	0.045323
1215.000000	0.045550
1214.000000	0.045903
1213.000000	0.046223
1212.000000	0.046490
1211.000000	0.046624
1210.000000	0.047060
1209.000000	0.047508
1208.000000	0.047748
1207.000000	0.047976
1206.000000	0.048448
1205.000000	0.048626
1204.000000	0.048985
1203.000000	0.049424
1202.000000	0.049885
1201.000000	0.050109
1200.000000	0.050347
1199.000000	0.050769
1198.000000	0.051069
1197.000000	0.051441
1196.000000	0.051677
1195.000000	0.051843
1194.000000	0.052177
1193.000000	0.052405
1192.000000	0.052647
1191.000000	0.052861
1190.000000	0.053029
1189.000000	0.053208
1188.000000	0.053309
1187.000000	0.053454
1186.000000	0.053534
1185.000000	0.053555
1184.000000	0.053572
1183.000000	0.053525
1182.000000	0.053383
1181.000000	0.053307
1180.000000	0.053148
1179.000000	0.052936
1178.000000	0.052721
1177.000000	0.052517
1176.000000	0.052207
1175.000000	0.051801
1174.000000	0.051422
1173.000000	0.051024
1172.000000	0.050616
1171.000000	0.050138
1170.000000	0.049642
1169.000000	0.049154
1168.000000	0.048636
1167.000000	0.048105
1166.000000	0.047603
1165.000000	0.047046
1164.000000	0.046393
1163.000000	0.045796
1162.000000	0.045307
1161.000000	0.044787
1160.000000	0.044207
1159.000000	0.043601
1158.000000	0.043066
1157.000000	0.042561
1156.000000	0.042044
1155.000000	0.041542
1154.000000	0.041152
1153.000000	0.040767
1152.000000	0.040270
1151.000000	0.039783
1150.000000	0.039414
1149.000000	0.039077
1148.000000	0.038660
1147.000000	0.038270
1146.000000	0.037962
1145.000000	0.037696
1144.000000	0.037320
1143.000000	0.036892
1142.000000	0.036569
1141.000000	0.036244
1140.000000	0.035948
1139.000000	0.035792
1138.000000	0.035527
1137.000000	0.035235
1136.000000	0.034969
1135.000000	0.034672
1134.000000	0.034395
1133.000000	0.034087
1132.000000	0.033939
1131.000000	0.033798
1130.000000	0.033520
1129.000000	0.033298
1128.000000	0.033129
1127.000000	0.033142
1126.000000	0.032917
1125.000000	0.032757
1124.000000	0.032756
1123.000000	0.032636
1122.000000	0.032456
1121.000000	0.032371
1120.000000	0.032304
1119.000000	0.032316
1118.000000	0.032317
1117.000000	0.032334
1116.000000	0.032289
1115.000000	0.032227
1114.000000	0.032264
1113.000000	0.032291
1112.000000	0.032290
1111.000000	0.032404
1110.000000	0.032377
1109.000000	0.032330
1108.000000	0.032387
1107.000000	0.032430
1106.000000	0.032532
1105.000000	0.032487
1104.000000	0.032517
1103.000000	0.032486
1102.000000	0.032523
1101.000000	0.032562
1100.000000	0.032551
1099.000000	0.032525
1098.000000	0.032629
1097.000000	0.032660
1096.000000	0.032787
1095.000000	0.032811
1094.000000	0.032805
1093.000000	0.032897
1092.000000	0.032924
1091.000000	0.032909
1090.000000	0.033070
1089.000000	0.033112
1088.000000	0.033109
1087.000000	0.033110
1086.000000	0.033181
1085.000000	0.033218
1084.000000	0.033433
1083.000000	0.033424
1082.000000	0.033531
1081.000000	0.033583
1080.000000	0.033516
1079.000000	0.033573
1078.000000	0.033658
1077.000000	0.033794
1076.000000	0.033926
1075.000000	0.034087
1074.000000	0.034055
1073.000000	0.034096
1072.000000	0.034273
1071.000000	0.034318
1070.000000	0.034451
1069.000000	0.034489
1068.000000	0.034611
1067.000000	0.034881
1066.000000	0.034907
1065.000000	0.034882
1064.000000	0.034954
1063.000000	0.035070
1062.000000	0.035263
1061.000000	0.035328
1060.000000	0.035365
1059.000000	0.035508
1058.000000	0.035539
1057.000000	0.035763
1056.000000	0.035747
1055.000000	0.035977
1054.000000	0.035940
1053.000000	0.036077
1052.000000	0.036263
1051.000000	0.036227
1050.000000	0.036503
1049.000000	0.036543
1048.000000	0.036579
1047.000000	0.036666
1046.000000	0.036921
1045.000000	0.036894
1044.000000	0.036976
1043.000000	0.037138
1042.000000	0.037195
1041.000000	0.037284
1040.000000	0.037244
1039.000000	0.037487
1038.000000	0.037502
1037.000000	0.037596
1036.000000	0.037620
1035.000000	0.037802
1034.000000	0.037823
1033.000000	0.037869
1032.000000	0.037797
1031.000000	0.038032
1030.000000	0.038145
1029.000000	0.038092
1028.000000	0.038276
1027.000000	0.038189
1026.000000	0.038215
1025.000000	0.038440
1024.000000	0.038500
1023.000000	0.038545
1022.000000	0.038576
1021.000000	0.038466
1020.000000	0.038536
1019.000000	0.038648
1018.000000	0.038720
1017.000000	0.038809
1016.000000	0.038791
1015.000000	0.038823
1014.000000	0.038793
1013.000000	0.038846
1012.000000	0.038887
1011.000000	0.039030
1010.000000	0.039125
1009.000000	0.039073
1008.000000	0.039147
1007.000000	0.039097
1006.000000	0.039075
1005.000000	0.038938
1004.000000	0.039109
1003.000000	0.039100
1002.000000	0.039115
1001.000000	0.039192
1000.000000	0.039178
999.000000	0.039136
998.000000	0.039240
997.000000	0.039316
996.000000	0.039290
995.000000	0.039342
994.000000	0.039399
993.000000	0.039492
992.000000	0.039433
991.000000	0.039463
990.000000	0.039482
989.000000	0.039562
988.000000	0.039550
987.000000	0.039507
986.000000	0.039594
985.000000	0.039567
984.000000	0.039444
983.000000	0.039511
982.000000	0.039640
981.000000	0.039744
980.000000	0.039690
979.000000	0.039633
978.000000	0.039635
977.000000	0.039627
976.000000	0.039649
975.000000	0.039778
974.000000	0.039799
973.000000	0.039717
972.000000	0.039676
971.000000	0.039678
970.000000	0.039761
969.000000	0.039687
968.000000	0.039778
967.000000	0.039802
966.000000	0.039895
965.000000	0.039839
964.000000	0.039824
963.000000	0.039917
962.000000	0.039782
961.000000	0.039714
960.000000	0.039757
959.000000	0.039765
958.000000	0.039706
957.000000	0.039805
956.000000	0.039848
955.000000	0.039635
954.000000	0.039702
953.000000	0.039778
952.000000	0.039830
951.000000	0.039960
950.000000	0.039929
949.000000	0.040012
948.000000	0.040056
947.000000	0.039914
946.000000	0.039884
945.000000	0.039835
944.000000	0.040044
943.000000	0.040132
942.000000	0.040109
941.000000	0.040215
940.000000	0.040239
939.000000	0.040260
938.000000	0.040309
937.000000	0.040434
936.000000	0.040569
935.000000	0.040692
934.000000	0.040676
933.000000	0.040719
932.000000	0.040815
931.000000	0.040825
930.000000	0.040920
929.000000	0.041157
928.000000	0.041093
927.000000	0.041299
926.000000	0.041380
925.000000	0.041339
924.000000	0.041455
923.000000	0.041770
922.000000	0.041921
921.000000	0.041889
920.000000	0.041868
919.000000	0.042043
918.000000	0.042295
917.000000	0.042223
916.000000	0.042164
915.000000	0.042272
914.000000	0.042506
913.000000	0.042621
912.000000	0.042498
911.000000	0.042613
910.000000	0.042666
909.000000	0.042755
908.000000	0.042765
907.000000	0.043094
906.000000	0.043518
905.000000	0.043398
904.000000	0.043418
903.000000	0.043477
902.000000	0.043359
901.000000	0.043371
900.000000	0.043199
899.000000	0.043186
898.000000	0.043380
897.000000	0.043701
896.000000	0.043768
895.000000	0.043644
894.000000	0.043834
893.000000	0.043674
892.000000	0.043902
891.000000	0.044174
890.000000	0.044130
889.000000	0.043926
888.000000	0.043986
887.000000	0.043761
886.000000	0.044048
885.000000	0.044009
884.000000	0.044377
883.000000	0.044213
882.000000	0.044222
881.000000	0.044749
880.000000	0.044527
879.000000	0.044578
878.000000	0.044292
877.000000	0.044725
876.000000	0.044542
875.000000	0.044769
874.000000	0.045027
873.000000	0.044848
872.000000	0.045406
871.000000	0.045322
870.000000	0.045451
869.000000	0.045896
868.000000	0.045811
867.000000	0.046082
866.000000	0.046041
865.000000	0.045348
864.000000	0.046029
863.000000	0.046505
862.000000	0.046550
861.000000	0.046853
860.000000	0.046612
859.000000	0.045745
858.000000	0.043423
857.000000	0.045351
856.000000	0.044242
855.000000	0.046365
854.000000	0.044470
853.000000	0.048319
852.000000	0.047264
851.000000	0.046759
850.000000	0.046093
849.000000	0.046047
848.000000	0.045207
847.000000	0.046115
846.000000	0.047794
845.000000	0.046555
844.000000	0.047319
843.000000	0.048249
842.000000	0.047657
841.000000	0.049054
840.000000	0.049632
839.000000	0.049412
838.000000	0.047148
837.000000	0.049134
836.000000	0.049525
835.000000	0.048973
834.000000	0.050030
833.000000	0.048583
832.000000	0.049886
831.000000	0.048791
830.000000	0.050169
829.000000	0.050550
828.000000	0.049416
827.000000	0.051476
826.000000	0.050463
825.000000	0.052195
824.000000	0.050271
823.000000	0.052095
822.000000	0.051683
821.000000	0.052386
820.000000	0.052060
819.000000	0.052173
818.000000	0.052173
817.000000	0.052368
816.000000	0.052446
815.000000	0.052304
814.000000	0.052270
813.000000	0.053292
812.000000	0.053422
811.000000	0.053172
810.000000	0.053228
809.000000	0.053387
808.000000	0.053887
807.000000	0.053460
806.000000	0.052688
805.000000	0.054193
804.000000	0.054996
803.000000	0.054575
802.000000	0.054469
801.000000	0.055073
800.000000	0.054936
799.000000	0.054963
798.000000	0.054773
797.000000	0.055549
796.000000	0.055390
795.000000	0.055698
794.000000	0.056416
793.000000	0.056671
792.000000	0.056447
791.000000	0.056105
790.000000	0.056818
789.000000	0.057662
788.000000	0.057286
787.000000	0.057030
786.000000	0.057412
785.000000	0.058147
784.000000	0.058036
783.000000	0.058167
782.000000	0.059074
781.000000	0.058454
780.000000	0.059444
779.000000	0.059724
778.000000	0.059361
777.000000	0.059236
776.000000	0.059738
775.000000	0.059871
774.000000	0.060872
773.000000	0.061674
772.000000	0.061174
771.000000	0.060425
770.000000	0.061191
769.000000	0.061836
768.000000	0.062358
767.000000	0.062304
766.000000	0.062178
765.000000	0.062233
764.000000	0.062935
763.000000	0.062997
762.000000	0.063370
761.000000	0.064319
760.000000	0.064441
759.000000	0.064293
758.000000	0.064622
757.000000	0.065095
756.000000	0.065125
755.000000	0.064979
754.000000	0.065062
753.000000	0.065070
752.000000	0.065747
751.000000	0.066562
750.000000	0.066709
749.000000	0.067109
748.000000	0.067077
747.000000	0.068099
746.000000	0.068270
745.000000	0.068001
744.000000	0.068342
743.000000	0.068275
742.000000	0.068987
741.000000	0.069677
740.000000	0.069198
739.000000	0.070207
738.000000	0.069940
737.000000	0.069615
736.000000	0.070520
735.000000	0.071369
734.000000	0.071460
733.000000	0.071568
732.000000	0.072000
731.000000	0.072339
730.000000	0.072564
729.000000	0.073042
728.000000	0.073271
727.000000	0.073519
726.000000	0.073640
725.000000	0.074277
724.000000	0.074764
723.000000	0.075136
722.000000	0.075134
721.000000	0.074962
720.000000	0.075868
719.000000	0.076470
718.000000	0.076508
717.000000	0.076964
716.000000	0.077273
715.000000	0.077516
714.000000	0.078274
713.000000	0.078912
712.000000	0.079075
711.000000	0.078983
710.000000	0.079174
709.000000	0.079558
708.000000	0.079846
707.000000	0.080655
706.000000	0.081086
705.000000	0.081425
704.000000	0.081868
703.000000	0.081946
702.000000	0.082520
701.000000	0.083143
700.000000	0.083400
699.000000	0.083788
698.000000	0.084313
697.000000	0.084715
696.000000	0.085159
695.000000	0.085686
694.000000	0.086000
693.000000	0.086225
692.000000	0.086682
691.000000	0.087147
690.000000	0.087612
689.000000	0.088485
688.000000	0.089207
687.000000	0.089691
686.000000	0.090325
685.000000	0.090497
684.000000	0.091010
683.000000	0.091917
682.000000	0.092863
681.000000	0.093225
680.000000	0.093435
679.000000	0.093755
678.000000	0.094394
677.000000	0.095082
676.000000	0.095755
675.000000	0.096110
674.000000	0.096564
673.000000	0.096959
672.000000	0.097529
671.000000	0.098141
670.000000	0.098549
669.000000	0.099128
668.000000	0.100030
667.000000	0.100571
666.000000	0.100938
665.000000	0.101471
664.000000	0.102261
663.000000	0.102821
662.000000	0.103605
661.000000	0.104044
660.000000	0.104247
659.000000	0.105065
658.000000	0.105702
657.000000	0.106082
656.000000	0.106396
655.000000	0.107205
654.000000	0.107856
653.000000	0.108294
652.000000	0.109375
651.000000	0.109966
650.000000	0.110287
649.000000	0.110970
648.000000	0.111680
647.000000	0.112208
646.000000	0.113014
645.000000	0.113871
644.000000	0.114280
643.000000	0.115032
642.000000	0.115619
641.000000	0.116012
640.000000	0.116916
639.000000	0.117668
638.000000	0.118121
637.000000	0.119215
636.000000	0.119394
635.000000	0.120373
634.000000	0.121308
633.000000	0.121780
632.000000	0.122325
631.000000	0.123089
630.000000	0.123773
629.000000	0.124354
628.000000	0.125557
627.000000	0.125862
626.000000	0.127048
625.000000	0.127613
624.000000	0.128242
623.000000	0.129018
622.000000	0.130057
621.000000	0.131077
620.000000	0.131329
619.000000	0.131967
618.000000	0.132702
617.000000	0.133605
616.000000	0.134962
615.000000	0.135653
614.000000	0.136110
613.000000	0.136748
612.000000	0.137437
611.000000	0.138606
610.000000	0.139549
609.000000	0.140281
608.000000	0.141437
607.000000	0.141707
606.000000	0.142820
605.000000	0.143726
604.000000	0.144625
603.000000	0.145356
602.000000	0.146375
601.000000	0.147352
600.000000	0.148122
599.000000	0.149086
598.000000	0.150415
597.000000	0.150934
596.000000	0.151950
595.000000	0.153036
594.000000	0.153727
593.000000	0.154790
592.000000	0.155935
591.000000	0.156274
590.000000	0.157701
589.000000	0.158935
588.000000	0.160033
587.000000	0.160786
586.000000	0.161920
585.000000	0.162827
584.000000	0.163911
583.000000	0.165155
582.000000	0.165945
581.000000	0.166923
580.000000	0.168055
579.000000	0.169178
578.000000	0.170369
577.000000	0.171363
576.000000	0.172517
575.000000	0.173860
574.000000	0.175087
573.000000	0.175452
572.000000	0.176984
571.000000	0.177869
570.000000	0.179114
569.000000	0.180480
568.000000	0.181442
567.000000	0.182862
566.000000	0.184003
565.000000	0.185148
564.000000	0.186541
563.000000	0.187715
562.000000	0.189161
561.000000	0.190009
560.000000	0.191695
559.000000	0.192475
558.000000	0.193804
557.000000	0.195210
556.000000	0.196669
555.000000	0.198084
554.000000	0.199479
553.000000	0.200509
552.000000	0.201992
551.000000	0.203447
550.000000	0.204460
549.000000	0.206364
548.000000	0.207838
547.000000	0.208815
546.000000	0.210527
545.000000	0.212109
544.000000	0.213775
543.000000	0.215061
542.000000	0.216529
541.000000	0.218050
540.000000	0.219473
539.000000	0.220966
538.000000	0.222234
537.000000	0.223475
536.000000	0.225256
535.000000	0.227055
534.000000	0.228700
533.000000	0.230203
532.000000	0.231511
531.000000	0.233219
530.000000	0.235198
529.000000	0.236295
528.000000	0.238098
527.000000	0.239608
526.000000	0.241226
525.000000	0.242927
524.000000	0.244678
523.000000	0.246106
522.000000	0.247957
521.000000	0.249653
520.000000	0.251342
519.000000	0.253317
518.000000	0.255121
517.000000	0.256492
516.000000	0.258179
515.000000	0.260012
514.000000	0.261964
513.000000	0.263608
512.000000	0.265245
511.000000	0.266960
510.000000	0.269020
509.000000	0.270864
508.000000	0.272741
507.000000	0.274457
506.000000	0.276469
505.000000	0.278603
504.000000	0.280802
503.000000	0.282180
502.000000	0.284067
501.000000	0.286061
500.000000	0.288015
499.000000	0.289724
498.000000	0.291622
497.000000	0.293685
496.000000	0.295683
495.000000	0.297648
494.000000	0.299571
493.000000	0.301251
492.000000	0.303348
491.000000	0.305277
490.000000	0.307297
489.000000	0.309918
488.000000	0.312268
487.000000	0.313847
486.000000	0.315847
485.000000	0.317540
484.000000	0.319747
483.000000	0.321639
482.000000	0.323260
481.000000	0.325635
480.000000	0.327524
479.000000	0.329693
478.000000	0.331932
477.000000	0.334070
476.000000	0.336392
475.000000	0.338401
474.000000	0.340589
473.000000	0.342928
472.000000	0.344922
471.000000	0.346637
470.000000	0.348775
469.000000	0.351566
468.000000	0.353864
467.000000	0.355944
466.000000	0.357962
465.000000	0.360178
464.000000	0.362640
463.000000	0.364919
462.000000	0.366827
461.000000	0.369461
460.000000	0.372298
459.000000	0.374599
458.000000	0.376980
457.000000	0.379206
456.000000	0.381637
455.000000	0.384452
454.000000	0.387464
453.000000	0.390031
452.000000	0.392383
451.000000	0.395591
450.000000	0.398504
449.000000	0.400665
448.000000	0.403432
447.000000	0.406088
446.000000	0.408980
445.000000	0.411838
444.000000	0.414964
443.000000	0.418433
442.000000	0.421343
441.000000	0.424003
440.000000	0.426578
439.000000	0.429910
438.000000	0.433516
437.000000	0.436400
436.000000	0.439487
435.000000	0.442455
434.000000	0.445426
433.000000	0.448573
432.000000	0.452123
431.000000	0.455668
430.000000	0.458919
429.000000	0.462136
428.000000	0.465353
427.000000	0.468512
426.000000	0.471474
425.000000	0.475260
424.000000	0.478446
423.000000	0.481995
422.000000	0.485852
421.000000	0.489418
420.000000	0.492754
419.000000	0.495649
418.000000	0.498852
417.000000	0.502292
416.000000	0.506129
415.000000	0.509958
414.000000	0.513270
413.000000	0.517213
412.000000	0.520738
411.000000	0.523861
410.000000	0.527852
409.000000	0.530866
408.000000	0.534714
407.000000	0.538563
406.000000	0.542492
405.000000	0.546606
404.000000	0.550049
403.000000	0.553719
402.000000	0.557134
401.000000	0.560724
400.000000	0.564414
399.000000	0.568490
398.000000	0.571786
397.000000	0.575220
396.000000	0.578358
395.000000	0.582064
394.000000	0.586454
393.000000	0.590118
392.000000	0.593357
391.000000	0.596704
390.000000	0.600181
389.000000	0.604489
388.000000	0.608037
387.000000	0.611453
386.000000	0.615086
385.000000	0.619600
384.000000	0.623584
383.000000	0.626717
382.000000	0.630628
381.000000	0.635678
380.000000	0.638069
379.000000	0.642144
378.000000	0.646355
377.000000	0.648704
376.000000	0.652260
375.000000	0.657422
374.000000	0.658432
373.000000	0.665194
372.000000	0.667675
371.000000	0.674052
370.000000	0.676966
369.000000	0.680474
368.000000	0.683901
367.000000	0.688068
366.000000	0.690973
365.000000	0.695357
364.000000	0.698531
363.000000	0.700889
362.000000	0.705241
361.000000	0.710594
360.000000	0.712391
359.000000	0.716820
358.000000	0.719300
357.000000	0.723379
356.000000	0.728004
355.000000	0.731534
354.000000	0.733697
353.000000	0.736936
352.000000	0.741162
351.000000	0.744758
350.000000	0.748983
349.000000	0.752835
348.000000	0.753837
347.000000	0.758059
346.000000	0.762157
345.000000	0.764872
344.000000	0.766997
343.000000	0.770083
342.000000	0.774415
341.000000	0.778343
340.000000	0.778598
339.000000	0.782980
338.000000	0.788379
337.000000	0.791795
336.000000	0.793646
335.000000	0.798648
334.000000	0.799615
333.000000	0.804509
332.000000	0.807064
331.000000	0.808799
330.000000	0.812894
329.000000	0.816964
328.000000	0.817136
327.000000	0.817150
326.000000	0.823064
325.000000	0.822288
324.000000	0.828076
323.000000	0.831180
322.000000	0.831261
321.000000	0.834704
320.000000	0.840900
319.000000	0.840380
318.000000	0.839828
317.000000	0.843021
316.000000	0.843940
315.000000	0.846019
314.000000	0.847969
313.000000	0.852915
312.000000	0.851331
311.000000	0.854490
310.000000	0.856056
309.000000	0.855317
308.000000	0.858207
307.000000	0.858676
306.000000	0.861218
305.000000	0.861973
304.000000	0.863526
303.000000	0.864940
302.000000	0.867609
301.000000	0.868827
300.000000	0.872713
299.000000	0.870874
298.000000	0.872668
297.000000	0.876118
296.000000	0.876543
295.000000	0.882173
294.000000	0.884292
293.000000	0.888115
292.000000	0.890948
291.000000	0.895316
290.000000	0.895841
289.000000	0.900292
288.000000	0.901986
287.000000	0.908253
286.000000	0.908598
285.000000	0.910934
284.000000	0.910542
283.000000	0.909286
282.000000	0.911594
281.000000	0.911687
280.000000	0.911694
279.000000	0.911817
278.000000	0.907398
277.000000	0.908325
276.000000	0.906416
275.000000	0.904239
274.000000	0.902459
273.000000	0.900733
272.000000	0.900131
271.000000	0.895783
270.000000	0.892532
269.000000	0.890719
268.000000	0.890260
267.000000	0.887364
266.000000	0.885125
265.000000	0.880579
264.000000	0.877648
263.000000	0.871939
262.000000	0.866547
261.000000	0.863022
260.000000	0.859617
259.000000	0.853594
258.000000	0.850604
257.000000	0.843910
256.000000	0.839624
255.000000	0.833478
254.000000	0.827510
253.000000	0.823115
252.000000	0.818768
251.000000	0.813528
250.000000	0.809586
249.000000	0.805744
248.000000	0.802629
247.000000	0.802387
246.000000	0.801964
245.000000	0.800890
244.000000	0.802558
243.000000	0.806847
242.000000	0.810326
241.000000	0.818975
240.000000	0.825369
239.000000	0.835148
238.000000	0.842782
237.000000	0.850491
236.000000	0.861476
235.000000	0.871851
234.000000	0.880606
233.000000	0.888699
232.000000	0.894909
231.000000	0.902484
230.000000	0.908200
229.000000	0.916591
228.000000	0.922897
227.000000	0.925492
226.000000	0.928763
225.000000	0.933697
224.000000	0.935320
223.000000	0.935922
222.000000	0.935803
221.000000	0.933985
220.000000	0.935570
219.000000	0.931522
218.000000	0.930459
217.000000	0.926812
216.000000	0.918923
215.000000	0.917883
214.000000	0.912470
213.000000	0.906992
212.000000	0.900064
211.000000	0.896915
210.000000	0.896753
209.000000	0.888903
208.000000	0.878021
207.000000	0.869355
206.000000	0.857784
205.000000	0.847684
204.000000	0.837972
203.000000	0.822657
202.000000	0.809394
201.000000	0.797968
200.000000	0.780503
