PE UV       SUBTECH     SPECTRUM    ASCII       PEDS        4.00        
   -1
Empty Chamber.Sample.asc
18/03/23
11:38:06.00
18/03/23
11:38:06.00
Administrator

200.000000
1
Lambda 750
750N8071901
PerkinElmer UV WinLab 6.0.4.0738 / 1.61.00 Lambda 900

0
0
3350/servo 860.8/2
0
0
UV/VIS
1
1
1
CommonBeamDepol,150mm sphere / downward view
0
0
0
0
Program
Program
3350/servo 860.8/2
3350/0.2 860.8/0.2
3350/0.2 860.8/0.2
0
1
 
 
 
0
 
860.8
319.2
860.8
Front
100
on
 
 
0
0
0
 
0
 
 
 
0
 
 
0
0
0
0
0
 
 
 
 
0
0


0
0
#HDR
-1
-1
#GR
nm
A
1.0
0.0
2350.000000
-1.000000
2151
8
0.003354
-0.003334
#DATA
2350.000000	-0.000895
2349.000000	-0.000969
2348.000000	-0.002467
2347.000000	-0.003334
2346.000000	0.001419
2345.000000	0.001505
2344.000000	0.000363
2343.000000	0.001160
2342.000000	0.000778
2341.000000	0.001734
2340.000000	0.003218
2339.000000	-0.000096
2338.000000	-0.001443
2337.000000	0.000777
2336.000000	0.001205
2335.000000	0.000136
2334.000000	-0.002593
2333.000000	-0.001200
2332.000000	-0.000263
2331.000000	0.000435
2330.000000	-0.001492
2329.000000	-0.001428
2328.000000	-0.000701
2327.000000	-0.000362
2326.000000	0.000279
2325.000000	0.001413
2324.000000	-0.000079
2323.000000	-0.001550
2322.000000	0.000546
2321.000000	-0.002256
2320.000000	-0.000790
2319.000000	-0.000121
2318.000000	-0.000321
2317.000000	-0.001280
2316.000000	-0.000111
2315.000000	-0.000589
2314.000000	0.000768
2313.000000	0.001576
2312.000000	0.000440
2311.000000	-0.000585
2310.000000	-0.000105
2309.000000	-0.000814
2308.000000	-0.000380
2307.000000	0.001836
2306.000000	0.000450
2305.000000	0.000330
2304.000000	-0.000656
2303.000000	0.000032
2302.000000	-0.000573
2301.000000	-0.000633
2300.000000	-0.000472
2299.000000	-0.000092
2298.000000	0.000113
2297.000000	-0.000969
2296.000000	-0.001128
2295.000000	-0.000047
2294.000000	-0.001262
2293.000000	-0.000218
2292.000000	-0.000944
2291.000000	-0.000343
2290.000000	0.000798
2289.000000	0.000650
2288.000000	0.000160
2287.000000	-0.000549
2286.000000	-0.001021
2285.000000	-0.001451
2284.000000	-0.000483
2283.000000	0.001551
2282.000000	0.000139
2281.000000	-0.000249
2280.000000	-0.000134
2279.000000	0.000638
2278.000000	0.000900
2277.000000	0.000031
2276.000000	-0.000618
2275.000000	0.000542
2274.000000	0.000172
2273.000000	-0.000629
2272.000000	-0.001119
2271.000000	0.000112
2270.000000	-0.000420
2269.000000	-0.000714
2268.000000	0.000524
2267.000000	-0.000823
2266.000000	-0.000135
2265.000000	0.000445
2264.000000	-0.000325
2263.000000	-0.000197
2262.000000	0.000468
2261.000000	0.000039
2260.000000	-0.000103
2259.000000	-0.000184
2258.000000	0.000355
2257.000000	0.000752
2256.000000	0.000423
2255.000000	-0.000653
2254.000000	-0.000685
2253.000000	0.000103
2252.000000	0.000536
2251.000000	0.000184
2250.000000	-0.000622
2249.000000	-0.000305
2248.000000	0.000870
2247.000000	0.000297
2246.000000	-0.000056
2245.000000	-0.000129
2244.000000	-0.000101
2243.000000	0.000282
2242.000000	-0.000015
2241.000000	-0.000125
2240.000000	0.000141
2239.000000	-0.000026
2238.000000	0.000023
2237.000000	0.000413
2236.000000	-0.000724
2235.000000	-0.000931
2234.000000	-0.000725
2233.000000	0.000223
2232.000000	0.000421
2231.000000	-0.000393
2230.000000	-0.000224
2229.000000	0.000316
2228.000000	-0.001005
2227.000000	-0.001023
2226.000000	0.000335
2225.000000	-0.000354
2224.000000	0.000107
2223.000000	0.000247
2222.000000	-0.000342
2221.000000	-0.000594
2220.000000	-0.000526
2219.000000	-0.000656
2218.000000	0.000118
2217.000000	0.000834
2216.000000	-0.000418
2215.000000	-0.000051
2214.000000	0.000042
2213.000000	-0.000176
2212.000000	0.000319
2211.000000	0.000265
2210.000000	0.000045
2209.000000	0.000841
2208.000000	-0.000169
2207.000000	-0.000765
2206.000000	0.000215
2205.000000	0.000415
2204.000000	-0.000323
2203.000000	-0.000272
2202.000000	0.000903
2201.000000	0.000733
2200.000000	-0.000003
2199.000000	-0.000435
2198.000000	-0.001070
2197.000000	-0.000329
2196.000000	-0.000306
2195.000000	0.000053
2194.000000	0.000071
2193.000000	-0.000357
2192.000000	-0.000548
2191.000000	0.000151
2190.000000	-0.000243
2189.000000	-0.000255
2188.000000	0.000342
2187.000000	0.000667
2186.000000	-0.000397
2185.000000	-0.000677
2184.000000	0.000501
2183.000000	-0.000732
2182.000000	-0.000271
2181.000000	-0.000855
2180.000000	-0.000925
2179.000000	-0.000473
2178.000000	-0.000014
2177.000000	-0.000757
2176.000000	-0.000061
2175.000000	0.000150
2174.000000	-0.000369
2173.000000	-0.000089
2172.000000	0.001138
2171.000000	0.000119
2170.000000	-0.001235
2169.000000	0.000765
2168.000000	-0.000688
2167.000000	-0.000033
2166.000000	0.000499
2165.000000	0.000562
2164.000000	0.001551
2163.000000	0.000426
2162.000000	-0.000455
2161.000000	-0.000257
2160.000000	-0.001066
2159.000000	-0.000553
2158.000000	-0.000061
2157.000000	0.000245
2156.000000	0.000486
2155.000000	0.000111
2154.000000	0.000184
2153.000000	-0.000367
2152.000000	0.000553
2151.000000	0.000361
2150.000000	-0.000631
2149.000000	0.000706
2148.000000	0.000207
2147.000000	0.001071
2146.000000	0.000127
2145.000000	0.000024
2144.000000	0.000223
2143.000000	0.000593
2142.000000	0.000491
2141.000000	-0.000699
2140.000000	-0.000489
2139.000000	0.000320
2138.000000	-0.000180
2137.000000	0.000428
2136.000000	-0.001052
2135.000000	-0.000302
2134.000000	-0.000037
2133.000000	-0.000164
2132.000000	-0.000246
2131.000000	0.000874
2130.000000	-0.000030
2129.000000	-0.000071
2128.000000	0.000569
2127.000000	-0.000093
2126.000000	0.000414
2125.000000	-0.001263
2124.000000	0.000382
2123.000000	0.000304
2122.000000	0.000323
2121.000000	-0.000975
2120.000000	0.000232
2119.000000	0.000162
2118.000000	-0.000484
2117.000000	0.000140
2116.000000	0.000398
2115.000000	-0.001408
2114.000000	0.000131
2113.000000	0.000208
2112.000000	-0.000416
2111.000000	0.000852
2110.000000	0.000333
2109.000000	-0.000284
2108.000000	-0.000570
2107.000000	-0.000670
2106.000000	-0.000226
2105.000000	-0.000699
2104.000000	-0.000876
2103.000000	0.000855
2102.000000	0.000016
2101.000000	-0.000097
2100.000000	-0.000949
2099.000000	-0.000007
2098.000000	0.000241
2097.000000	0.000216
2096.000000	-0.000040
2095.000000	0.000363
2094.000000	-0.000108
2093.000000	-0.000080
2092.000000	0.000710
2091.000000	-0.000139
2090.000000	0.000144
2089.000000	0.000170
2088.000000	-0.000388
2087.000000	-0.000277
2086.000000	0.000114
2085.000000	-0.000189
2084.000000	0.000285
2083.000000	-0.000366
2082.000000	-0.000118
2081.000000	0.000145
2080.000000	0.000005
2079.000000	-0.000072
2078.000000	-0.000355
2077.000000	0.000287
2076.000000	-0.000126
2075.000000	-0.000087
2074.000000	0.000566
2073.000000	0.000424
2072.000000	-0.000055
2071.000000	-0.000361
2070.000000	-0.000294
2069.000000	0.000514
2068.000000	0.000475
2067.000000	-0.000089
2066.000000	0.000061
2065.000000	0.000292
2064.000000	-0.000041
2063.000000	-0.000546
2062.000000	0.000115
2061.000000	0.000310
2060.000000	0.000059
2059.000000	0.000235
2058.000000	0.000064
2057.000000	-0.000172
2056.000000	0.000040
2055.000000	-0.000210
2054.000000	-0.000139
2053.000000	-0.000225
2052.000000	-0.000404
2051.000000	-0.000214
2050.000000	0.000041
2049.000000	0.000060
2048.000000	-0.000278
2047.000000	-0.000299
2046.000000	-0.000095
2045.000000	0.000245
2044.000000	0.000141
2043.000000	0.000466
2042.000000	0.000106
2041.000000	-0.000430
2040.000000	0.000006
2039.000000	0.000404
2038.000000	0.000170
2037.000000	0.000152
2036.000000	0.000152
2035.000000	0.000130
2034.000000	-0.000119
2033.000000	-0.000107
2032.000000	-0.000246
2031.000000	-0.000225
2030.000000	0.000217
2029.000000	0.000313
2028.000000	0.000245
2027.000000	0.000171
2026.000000	0.000106
2025.000000	0.000158
2024.000000	0.000181
2023.000000	0.000056
2022.000000	0.000129
2021.000000	0.000064
2020.000000	0.000044
2019.000000	-0.000120
2018.000000	-0.000094
2017.000000	0.000003
2016.000000	-0.000104
2015.000000	0.000331
2014.000000	0.000512
2013.000000	0.000329
2012.000000	0.000222
2011.000000	-0.000081
2010.000000	-0.000170
2009.000000	-0.000033
2008.000000	-0.000238
2007.000000	-0.000154
2006.000000	-0.000084
2005.000000	-0.000210
2004.000000	-0.000372
2003.000000	-0.000235
2002.000000	-0.000175
2001.000000	-0.000017
2000.000000	0.000190
1999.000000	0.000165
1998.000000	0.000225
1997.000000	0.000039
1996.000000	-0.000469
1995.000000	-0.000122
1994.000000	-0.000044
1993.000000	-0.000171
1992.000000	-0.000116
1991.000000	-0.000161
1990.000000	0.000014
1989.000000	-0.000067
1988.000000	0.000054
1987.000000	-0.000190
1986.000000	-0.000399
1985.000000	-0.000047
1984.000000	0.000107
1983.000000	0.000139
1982.000000	0.000196
1981.000000	0.000026
1980.000000	0.000003
1979.000000	0.000101
1978.000000	-0.000115
1977.000000	-0.000259
1976.000000	-0.000071
1975.000000	0.000115
1974.000000	-0.000262
1973.000000	-0.000092
1972.000000	-0.000231
1971.000000	-0.000232
1970.000000	0.000203
1969.000000	0.000028
1968.000000	-0.000146
1967.000000	-0.000000
1966.000000	0.000004
1965.000000	-0.000036
1964.000000	0.000097
1963.000000	-0.000260
1962.000000	-0.000172
1961.000000	-0.000079
1960.000000	-0.000379
1959.000000	-0.000190
1958.000000	-0.000035
1957.000000	-0.000189
1956.000000	-0.000301
1955.000000	-0.000013
1954.000000	0.000222
1953.000000	-0.000019
1952.000000	-0.000159
1951.000000	-0.000312
1950.000000	-0.000387
1949.000000	0.000017
1948.000000	-0.000120
1947.000000	-0.000076
1946.000000	-0.000081
1945.000000	-0.000170
1944.000000	-0.000192
1943.000000	-0.000274
1942.000000	-0.000114
1941.000000	0.000270
1940.000000	0.000461
1939.000000	0.000137
1938.000000	-0.000213
1937.000000	0.000451
1936.000000	-0.000223
1935.000000	0.000624
1934.000000	-0.000138
1933.000000	-0.000225
1932.000000	0.000619
1931.000000	-0.000107
1930.000000	-0.000312
1929.000000	-0.000298
1928.000000	-0.000054
1927.000000	-0.000859
1926.000000	-0.000193
1925.000000	-0.000131
1924.000000	-0.000117
1923.000000	-0.000257
1922.000000	0.000001
1921.000000	-0.000234
1920.000000	0.000119
1919.000000	-0.000155
1918.000000	-0.000198
1917.000000	-0.000036
1916.000000	0.000198
1915.000000	-0.000324
1914.000000	-0.000020
1913.000000	-0.000321
1912.000000	-0.000129
1911.000000	0.000309
1910.000000	-0.000503
1909.000000	-0.000023
1908.000000	-0.000013
1907.000000	-0.000442
1906.000000	-0.000449
1905.000000	0.000166
1904.000000	-0.000046
1903.000000	-0.000015
1902.000000	0.000149
1901.000000	0.000326
1900.000000	0.000314
1899.000000	0.000462
1898.000000	-0.000217
1897.000000	0.000049
1896.000000	-0.000173
1895.000000	-0.000241
1894.000000	0.000120
1893.000000	0.000349
1892.000000	0.000201
1891.000000	-0.000067
1890.000000	-0.000272
1889.000000	-0.000203
1888.000000	0.000071
1887.000000	-0.000037
1886.000000	0.000165
1885.000000	0.000101
1884.000000	0.000144
1883.000000	-0.000011
1882.000000	0.000002
1881.000000	-0.000184
1880.000000	-0.000285
1879.000000	0.000191
1878.000000	-0.000365
1877.000000	-0.000469
1876.000000	-0.000314
1875.000000	-0.000003
1874.000000	-0.000005
1873.000000	0.000070
1872.000000	-0.000152
1871.000000	-0.000153
1870.000000	0.000129
1869.000000	-0.000336
1868.000000	-0.000079
1867.000000	-0.000110
1866.000000	0.000045
1865.000000	0.000076
1864.000000	-0.000157
1863.000000	-0.000030
1862.000000	-0.000159
1861.000000	0.000145
1860.000000	0.000221
1859.000000	-0.000096
1858.000000	-0.000286
1857.000000	0.000179
1856.000000	0.000130
1855.000000	-0.000118
1854.000000	-0.000169
1853.000000	0.000104
1852.000000	0.000121
1851.000000	0.000055
1850.000000	0.000140
1849.000000	0.000079
1848.000000	-0.000302
1847.000000	-0.000426
1846.000000	-0.000214
1845.000000	-0.000106
1844.000000	0.000092
1843.000000	0.000343
1842.000000	0.000371
1841.000000	-0.000032
1840.000000	0.000080
1839.000000	0.000013
1838.000000	0.000058
1837.000000	-0.000044
1836.000000	-0.000098
1835.000000	0.000185
1834.000000	0.000228
1833.000000	-0.000129
1832.000000	-0.000083
1831.000000	0.000084
1830.000000	0.000031
1829.000000	-0.000046
1828.000000	0.000070
1827.000000	0.000193
1826.000000	0.000015
1825.000000	0.000030
1824.000000	0.000010
1823.000000	-0.000061
1822.000000	-0.000123
1821.000000	-0.000184
1820.000000	-0.000141
1819.000000	0.000024
1818.000000	0.000060
1817.000000	0.000023
1816.000000	-0.000026
1815.000000	-0.000074
1814.000000	-0.000157
1813.000000	-0.000101
1812.000000	-0.000000
1811.000000	0.000051
1810.000000	0.000102
1809.000000	-0.000105
1808.000000	-0.000092
1807.000000	0.000104
1806.000000	-0.000028
1805.000000	-0.000112
1804.000000	-0.000004
1803.000000	0.000037
1802.000000	0.000027
1801.000000	0.000001
1800.000000	-0.000034
1799.000000	0.000047
1798.000000	0.000248
1797.000000	0.000221
1796.000000	0.000109
1795.000000	0.000032
1794.000000	-0.000110
1793.000000	-0.000076
1792.000000	0.000035
1791.000000	0.000075
1790.000000	0.000087
1789.000000	0.000083
1788.000000	-0.000084
1787.000000	-0.000153
1786.000000	-0.000097
1785.000000	-0.000103
1784.000000	-0.000028
1783.000000	0.000130
1782.000000	0.000102
1781.000000	0.000092
1780.000000	0.000042
1779.000000	-0.000075
1778.000000	0.000110
1777.000000	0.000080
1776.000000	-0.000041
1775.000000	0.000050
1774.000000	0.000085
1773.000000	-0.000003
1772.000000	0.000104
1771.000000	0.000117
1770.000000	-0.000049
1769.000000	-0.000148
1768.000000	0.000065
1767.000000	0.000173
1766.000000	0.000097
1765.000000	0.000094
1764.000000	-0.000085
1763.000000	-0.000093
1762.000000	0.000028
1761.000000	-0.000020
1760.000000	0.000089
1759.000000	-0.000049
1758.000000	-0.000156
1757.000000	-0.000181
1756.000000	-0.000036
1755.000000	-0.000227
1754.000000	-0.000150
1753.000000	0.000221
1752.000000	0.000141
1751.000000	-0.000026
1750.000000	0.000010
1749.000000	0.000035
1748.000000	0.000089
1747.000000	-0.000067
1746.000000	-0.000144
1745.000000	0.000220
1744.000000	0.000032
1743.000000	-0.000053
1742.000000	-0.000031
1741.000000	0.000101
1740.000000	0.000076
1739.000000	0.000091
1738.000000	0.000118
1737.000000	0.000219
1736.000000	0.000109
1735.000000	-0.000015
1734.000000	0.000040
1733.000000	0.000150
1732.000000	0.000097
1731.000000	-0.000082
1730.000000	-0.000123
1729.000000	-0.000256
1728.000000	-0.000058
1727.000000	-0.000026
1726.000000	0.000105
1725.000000	-0.000163
1724.000000	0.000238
1723.000000	0.000306
1722.000000	0.000283
1721.000000	0.000111
1720.000000	-0.000090
1719.000000	0.000076
1718.000000	-0.000038
1717.000000	-0.000062
1716.000000	-0.000080
1715.000000	0.000042
1714.000000	0.000045
1713.000000	-0.000145
1712.000000	-0.000174
1711.000000	0.000085
1710.000000	-0.000021
1709.000000	-0.000126
1708.000000	0.000004
1707.000000	0.000016
1706.000000	-0.000250
1705.000000	0.000053
1704.000000	0.000076
1703.000000	-0.000131
1702.000000	-0.000317
1701.000000	-0.000192
1700.000000	-0.000069
1699.000000	0.000213
1698.000000	0.000023
1697.000000	0.000046
1696.000000	-0.000178
1695.000000	0.000150
1694.000000	-0.000129
1693.000000	-0.000052
1692.000000	0.000048
1691.000000	-0.000057
1690.000000	-0.000113
1689.000000	0.000027
1688.000000	-0.000107
1687.000000	0.000024
1686.000000	-0.000105
1685.000000	0.000060
1684.000000	0.000093
1683.000000	-0.000006
1682.000000	0.000054
1681.000000	0.000091
1680.000000	-0.000041
1679.000000	-0.000023
1678.000000	-0.000112
1677.000000	-0.000092
1676.000000	0.000055
1675.000000	0.000105
1674.000000	0.000030
1673.000000	0.000016
1672.000000	0.000093
1671.000000	0.000027
1670.000000	-0.000120
1669.000000	-0.000069
1668.000000	0.000060
1667.000000	-0.000101
1666.000000	-0.000210
1665.000000	-0.000124
1664.000000	-0.000122
1663.000000	-0.000127
1662.000000	-0.000119
1661.000000	0.000015
1660.000000	0.000117
1659.000000	-0.000030
1658.000000	-0.000138
1657.000000	-0.000001
1656.000000	0.000171
1655.000000	-0.000038
1654.000000	0.000095
1653.000000	0.000013
1652.000000	0.000003
1651.000000	0.000146
1650.000000	-0.000042
1649.000000	0.000122
1648.000000	0.000019
1647.000000	-0.000004
1646.000000	-0.000128
1645.000000	0.000077
1644.000000	-0.000039
1643.000000	-0.000049
1642.000000	0.000022
1641.000000	0.000000
1640.000000	-0.000069
1639.000000	-0.000040
1638.000000	-0.000074
1637.000000	-0.000060
1636.000000	0.000067
1635.000000	0.000167
1634.000000	0.000039
1633.000000	-0.000026
1632.000000	-0.000116
1631.000000	0.000046
1630.000000	0.000066
1629.000000	-0.000025
1628.000000	-0.000108
1627.000000	-0.000017
1626.000000	-0.000073
1625.000000	-0.000053
1624.000000	-0.000048
1623.000000	-0.000005
1622.000000	0.000012
1621.000000	-0.000058
1620.000000	-0.000021
1619.000000	0.000060
1618.000000	0.000069
1617.000000	-0.000008
1616.000000	0.000006
1615.000000	-0.000004
1614.000000	0.000041
1613.000000	0.000040
1612.000000	0.000025
1611.000000	-0.000012
1610.000000	0.000030
1609.000000	0.000040
1608.000000	0.000085
1607.000000	-0.000031
1606.000000	-0.000037
1605.000000	0.000039
1604.000000	0.000010
1603.000000	-0.000068
1602.000000	-0.000109
1601.000000	-0.000098
1600.000000	-0.000038
1599.000000	-0.000045
1598.000000	-0.000028
1597.000000	-0.000079
1596.000000	0.000007
1595.000000	0.000120
1594.000000	-0.000050
1593.000000	-0.000087
1592.000000	-0.000004
1591.000000	-0.000012
1590.000000	-0.000082
1589.000000	-0.000054
1588.000000	0.000071
1587.000000	0.000031
1586.000000	0.000023
1585.000000	0.000009
1584.000000	-0.000063
1583.000000	-0.000090
1582.000000	0.000028
1581.000000	0.000022
1580.000000	0.000003
1579.000000	0.000050
1578.000000	0.000003
1577.000000	-0.000032
1576.000000	-0.000016
1575.000000	-0.000051
1574.000000	-0.000022
1573.000000	-0.000019
1572.000000	-0.000049
1571.000000	-0.000042
1570.000000	0.000009
1569.000000	-0.000039
1568.000000	0.000029
1567.000000	0.000080
1566.000000	0.000041
1565.000000	0.000004
1564.000000	-0.000028
1563.000000	0.000052
1562.000000	0.000032
1561.000000	-0.000017
1560.000000	-0.000007
1559.000000	-0.000049
1558.000000	-0.000092
1557.000000	0.000026
1556.000000	0.000023
1555.000000	0.000048
1554.000000	0.000060
1553.000000	0.000096
1552.000000	0.000209
1551.000000	0.000130
1550.000000	0.000144
1549.000000	0.000096
1548.000000	0.000064
1547.000000	0.000079
1546.000000	-0.000017
1545.000000	0.000020
1544.000000	-0.000002
1543.000000	-0.000067
1542.000000	-0.000074
1541.000000	-0.000042
1540.000000	-0.000050
1539.000000	-0.000064
1538.000000	0.000073
1537.000000	0.000030
1536.000000	0.000045
1535.000000	-0.000068
1534.000000	0.000078
1533.000000	-0.000063
1532.000000	0.000025
1531.000000	-0.000057
1530.000000	-0.000036
1529.000000	0.000037
1528.000000	0.000019
1527.000000	-0.000058
1526.000000	0.000056
1525.000000	0.000008
1524.000000	-0.000052
1523.000000	0.000007
1522.000000	-0.000033
1521.000000	0.000107
1520.000000	0.000084
1519.000000	0.000020
1518.000000	0.000020
1517.000000	-0.000023
1516.000000	-0.000038
1515.000000	0.000028
1514.000000	0.000037
1513.000000	0.000039
1512.000000	-0.000003
1511.000000	-0.000052
1510.000000	0.000010
1509.000000	0.000022
1508.000000	-0.000077
1507.000000	0.000057
1506.000000	-0.000011
1505.000000	-0.000047
1504.000000	-0.000003
1503.000000	0.000019
1502.000000	0.000075
1501.000000	-0.000028
1500.000000	0.000082
1499.000000	-0.000057
1498.000000	0.000007
1497.000000	-0.000026
1496.000000	-0.000086
1495.000000	0.000060
1494.000000	-0.000029
1493.000000	0.000027
1492.000000	-0.000075
1491.000000	0.000006
1490.000000	-0.000038
1489.000000	0.000169
1488.000000	0.000053
1487.000000	-0.000094
1486.000000	-0.000086
1485.000000	-0.000058
1484.000000	0.000033
1483.000000	0.000020
1482.000000	0.000009
1481.000000	-0.000029
1480.000000	0.000003
1479.000000	0.000019
1478.000000	-0.000022
1477.000000	0.000038
1476.000000	-0.000007
1475.000000	-0.000124
1474.000000	-0.000011
1473.000000	-0.000074
1472.000000	-0.000007
1471.000000	-0.000122
1470.000000	0.000116
1469.000000	-0.000094
1468.000000	0.000068
1467.000000	0.000020
1466.000000	-0.000119
1465.000000	-0.000044
1464.000000	-0.000104
1463.000000	-0.000072
1462.000000	-0.000018
1461.000000	0.000076
1460.000000	0.000063
1459.000000	0.000035
1458.000000	0.000068
1457.000000	0.000007
1456.000000	-0.000021
1455.000000	-0.000034
1454.000000	-0.000006
1453.000000	-0.000015
1452.000000	0.000044
1451.000000	-0.000023
1450.000000	0.000130
1449.000000	-0.000049
1448.000000	-0.000002
1447.000000	0.000046
1446.000000	0.000080
1445.000000	0.000007
1444.000000	-0.000081
1443.000000	-0.000033
1442.000000	0.000013
1441.000000	-0.000033
1440.000000	-0.000020
1439.000000	-0.000019
1438.000000	-0.000000
1437.000000	-0.000013
1436.000000	-0.000038
1435.000000	-0.000011
1434.000000	-0.000096
1433.000000	-0.000043
1432.000000	-0.000016
1431.000000	-0.000128
1430.000000	-0.000044
1429.000000	-0.000012
1428.000000	-0.000063
1427.000000	0.000011
1426.000000	0.000085
1425.000000	0.000042
1424.000000	-0.000032
1423.000000	-0.000011
1422.000000	-0.000043
1421.000000	-0.000031
1420.000000	0.000058
1419.000000	0.000036
1418.000000	-0.000055
1417.000000	0.000005
1416.000000	0.000007
1415.000000	-0.000062
1414.000000	-0.000043
1413.000000	-0.000030
1412.000000	0.000029
1411.000000	0.000012
1410.000000	-0.000018
1409.000000	0.000025
1408.000000	0.000013
1407.000000	0.000084
1406.000000	0.000047
1405.000000	0.000004
1404.000000	-0.000034
1403.000000	-0.000042
1402.000000	0.000039
1401.000000	0.000092
1400.000000	0.000064
1399.000000	0.000047
1398.000000	-0.000047
1397.000000	-0.000008
1396.000000	0.000036
1395.000000	0.000014
1394.000000	0.000083
1393.000000	0.000061
1392.000000	0.000012
1391.000000	-0.000080
1390.000000	-0.000014
1389.000000	0.000079
1388.000000	-0.000019
1387.000000	-0.000052
1386.000000	-0.000028
1385.000000	-0.000065
1384.000000	-0.000021
1383.000000	0.000014
1382.000000	0.000010
1381.000000	0.000004
1380.000000	0.000050
1379.000000	-0.000018
1378.000000	-0.000035
1377.000000	-0.000045
1376.000000	-0.000081
1375.000000	-0.000024
1374.000000	0.000045
1373.000000	0.000052
1372.000000	-0.000052
1371.000000	-0.000082
1370.000000	0.000008
1369.000000	-0.000047
1368.000000	-0.000064
1367.000000	0.000020
1366.000000	0.000041
1365.000000	0.000020
1364.000000	-0.000057
1363.000000	-0.000068
1362.000000	-0.000030
1361.000000	-0.000057
1360.000000	-0.000003
1359.000000	-0.000041
1358.000000	-0.000093
1357.000000	-0.000048
1356.000000	-0.000017
1355.000000	-0.000050
1354.000000	0.000045
1353.000000	0.000035
1352.000000	-0.000021
1351.000000	-0.000002
1350.000000	0.000024
1349.000000	-0.000014
1348.000000	-0.000058
1347.000000	-0.000043
1346.000000	-0.000026
1345.000000	-0.000018
1344.000000	0.000025
1343.000000	0.000063
1342.000000	0.000010
1341.000000	-0.000018
1340.000000	-0.000060
1339.000000	-0.000044
1338.000000	-0.000043
1337.000000	-0.000045
1336.000000	-0.000023
1335.000000	-0.000047
1334.000000	-0.000031
1333.000000	-0.000035
1332.000000	-0.000079
1331.000000	-0.000115
1330.000000	0.000075
1329.000000	0.000065
1328.000000	-0.000034
1327.000000	-0.000023
1326.000000	-0.000042
1325.000000	-0.000002
1324.000000	0.000011
1323.000000	-0.000029
1322.000000	0.000022
1321.000000	0.000011
1320.000000	-0.000025
1319.000000	-0.000014
1318.000000	-0.000003
1317.000000	-0.000087
1316.000000	0.000002
1315.000000	0.000069
1314.000000	-0.000009
1313.000000	-0.000025
1312.000000	-0.000011
1311.000000	-0.000063
1310.000000	-0.000043
1309.000000	-0.000034
1308.000000	-0.000006
1307.000000	-0.000099
1306.000000	-0.000022
1305.000000	-0.000028
1304.000000	0.000017
1303.000000	-0.000052
1302.000000	-0.000016
1301.000000	0.000029
1300.000000	-0.000051
1299.000000	-0.000053
1298.000000	-0.000006
1297.000000	-0.000015
1296.000000	-0.000018
1295.000000	0.000013
1294.000000	-0.000004
1293.000000	0.000092
1292.000000	-0.000042
1291.000000	0.000088
1290.000000	0.000046
1289.000000	-0.000011
1288.000000	0.000030
1287.000000	0.000076
1286.000000	-0.000046
1285.000000	0.000021
1284.000000	-0.000011
1283.000000	-0.000023
1282.000000	-0.000033
1281.000000	-0.000115
1280.000000	-0.000062
1279.000000	0.000032
1278.000000	-0.000037
1277.000000	-0.000048
1276.000000	-0.000067
1275.000000	-0.000125
1274.000000	-0.000018
1273.000000	0.000027
1272.000000	0.000062
1271.000000	-0.000039
1270.000000	-0.000085
1269.000000	0.000034
1268.000000	-0.000058
1267.000000	-0.000016
1266.000000	0.000166
1265.000000	0.000009
1264.000000	-0.000018
1263.000000	-0.000004
1262.000000	0.000072
1261.000000	0.000061
1260.000000	0.000062
1259.000000	-0.000024
1258.000000	0.000006
1257.000000	-0.000067
1256.000000	-0.000034
1255.000000	-0.000016
1254.000000	-0.000005
1253.000000	0.000052
1252.000000	-0.000057
1251.000000	-0.000032
1250.000000	-0.000024
1249.000000	-0.000020
1248.000000	-0.000056
1247.000000	-0.000006
1246.000000	-0.000069
1245.000000	0.000026
1244.000000	0.000081
1243.000000	0.000033
1242.000000	0.000068
1241.000000	-0.000080
1240.000000	0.000067
1239.000000	-0.000032
1238.000000	0.000026
1237.000000	0.000010
1236.000000	-0.000018
1235.000000	-0.000065
1234.000000	0.000101
1233.000000	0.000085
1232.000000	-0.000089
1231.000000	-0.000124
1230.000000	-0.000032
1229.000000	-0.000030
1228.000000	-0.000057
1227.000000	0.000060
1226.000000	-0.000022
1225.000000	0.000005
1224.000000	0.000042
1223.000000	-0.000031
1222.000000	-0.000016
1221.000000	0.000005
1220.000000	0.000064
1219.000000	0.000035
1218.000000	-0.000103
1217.000000	-0.000028
1216.000000	0.000042
1215.000000	-0.000142
1214.000000	-0.000028
1213.000000	-0.000012
1212.000000	-0.000052
1211.000000	0.000061
1210.000000	-0.000058
1209.000000	-0.000081
1208.000000	0.000006
1207.000000	0.000074
1206.000000	-0.000021
1205.000000	-0.000088
1204.000000	0.000057
1203.000000	-0.000082
1202.000000	-0.000050
1201.000000	0.000057
1200.000000	0.000062
1199.000000	0.000028
1198.000000	-0.000029
1197.000000	-0.000049
1196.000000	0.000017
1195.000000	0.000058
1194.000000	0.000063
1193.000000	-0.000000
1192.000000	0.000039
1191.000000	-0.000051
1190.000000	-0.000051
1189.000000	-0.000013
1188.000000	-0.000000
1187.000000	0.000010
1186.000000	-0.000017
1185.000000	-0.000023
1184.000000	0.000056
1183.000000	0.000031
1182.000000	-0.000042
1181.000000	0.000024
1180.000000	0.000052
1179.000000	0.000003
1178.000000	0.000023
1177.000000	0.000063
1176.000000	0.000041
1175.000000	-0.000018
1174.000000	-0.000031
1173.000000	-0.000003
1172.000000	0.000087
1171.000000	0.000033
1170.000000	-0.000017
1169.000000	0.000039
1168.000000	-0.000004
1167.000000	-0.000017
1166.000000	0.000052
1165.000000	0.000050
1164.000000	-0.000002
1163.000000	0.000021
1162.000000	0.000028
1161.000000	0.000021
1160.000000	0.000032
1159.000000	-0.000026
1158.000000	0.000009
1157.000000	0.000071
1156.000000	0.000039
1155.000000	-0.000054
1154.000000	-0.000063
1153.000000	-0.000030
1152.000000	-0.000043
1151.000000	0.000018
1150.000000	0.000050
1149.000000	0.000012
1148.000000	-0.000009
1147.000000	-0.000095
1146.000000	-0.000089
1145.000000	-0.000030
1144.000000	0.000019
1143.000000	-0.000013
1142.000000	-0.000016
1141.000000	-0.000014
1140.000000	-0.000067
1139.000000	-0.000030
1138.000000	-0.000002
1137.000000	0.000002
1136.000000	0.000030
1135.000000	0.000002
1134.000000	-0.000010
1133.000000	-0.000021
1132.000000	0.000008
1131.000000	0.000040
1130.000000	-0.000017
1129.000000	0.000014
1128.000000	-0.000048
1127.000000	0.000020
1126.000000	-0.000050
1125.000000	-0.000042
1124.000000	0.000058
1123.000000	0.000036
1122.000000	0.000009
1121.000000	0.000010
1120.000000	-0.000096
1119.000000	-0.000076
1118.000000	-0.000020
1117.000000	-0.000033
1116.000000	-0.000061
1115.000000	-0.000087
1114.000000	-0.000016
1113.000000	-0.000032
1112.000000	-0.000040
1111.000000	-0.000054
1110.000000	0.000027
1109.000000	0.000010
1108.000000	-0.000009
1107.000000	0.000043
1106.000000	0.000113
1105.000000	0.000007
1104.000000	-0.000009
1103.000000	0.000013
1102.000000	0.000018
1101.000000	0.000018
1100.000000	0.000105
1099.000000	-0.000018
1098.000000	-0.000007
1097.000000	0.000057
1096.000000	0.000076
1095.000000	-0.000032
1094.000000	-0.000055
1093.000000	-0.000060
1092.000000	-0.000047
1091.000000	-0.000043
1090.000000	-0.000000
1089.000000	-0.000013
1088.000000	-0.000018
1087.000000	-0.000011
1086.000000	0.000005
1085.000000	0.000052
1084.000000	0.000105
1083.000000	0.000032
1082.000000	0.000032
1081.000000	-0.000064
1080.000000	-0.000102
1079.000000	-0.000068
1078.000000	-0.000144
1077.000000	-0.000096
1076.000000	0.000028
1075.000000	-0.000011
1074.000000	-0.000002
1073.000000	0.000024
1072.000000	0.000002
1071.000000	-0.000086
1070.000000	-0.000033
1069.000000	-0.000051
1068.000000	0.000004
1067.000000	0.000064
1066.000000	0.000110
1065.000000	0.000032
1064.000000	0.000025
1063.000000	-0.000065
1062.000000	-0.000021
1061.000000	-0.000051
1060.000000	-0.000043
1059.000000	-0.000037
1058.000000	-0.000012
1057.000000	0.000024
1056.000000	-0.000060
1055.000000	0.000046
1054.000000	-0.000077
1053.000000	-0.000081
1052.000000	0.000031
1051.000000	-0.000113
1050.000000	0.000096
1049.000000	0.000060
1048.000000	0.000041
1047.000000	-0.000017
1046.000000	-0.000000
1045.000000	-0.000051
1044.000000	0.000034
1043.000000	0.000031
1042.000000	-0.000075
1041.000000	0.000036
1040.000000	-0.000064
1039.000000	-0.000069
1038.000000	-0.000051
1037.000000	-0.000010
1036.000000	-0.000033
1035.000000	-0.000013
1034.000000	0.000023
1033.000000	-0.000012
1032.000000	-0.000013
1031.000000	-0.000028
1030.000000	-0.000035
1029.000000	0.000045
1028.000000	0.000103
1027.000000	-0.000064
1026.000000	-0.000066
1025.000000	0.000061
1024.000000	0.000068
1023.000000	0.000071
1022.000000	0.000054
1021.000000	-0.000063
1020.000000	-0.000037
1019.000000	-0.000039
1018.000000	-0.000028
1017.000000	-0.000026
1016.000000	0.000079
1015.000000	-0.000034
1014.000000	-0.000003
1013.000000	-0.000068
1012.000000	-0.000048
1011.000000	0.000028
1010.000000	0.000037
1009.000000	-0.000063
1008.000000	-0.000013
1007.000000	-0.000015
1006.000000	0.000027
1005.000000	-0.000134
1004.000000	0.000045
1003.000000	-0.000017
1002.000000	-0.000085
1001.000000	-0.000024
1000.000000	0.000039
999.000000	0.000000
998.000000	0.000017
997.000000	-0.000035
996.000000	0.000040
995.000000	-0.000056
994.000000	0.000055
993.000000	0.000011
992.000000	-0.000033
991.000000	-0.000035
990.000000	-0.000022
989.000000	0.000030
988.000000	0.000068
987.000000	0.000009
986.000000	0.000035
985.000000	-0.000012
984.000000	-0.000001
983.000000	-0.000078
982.000000	-0.000091
981.000000	-0.000002
980.000000	0.000066
979.000000	-0.000039
978.000000	-0.000129
977.000000	-0.000017
976.000000	-0.000059
975.000000	-0.000080
974.000000	0.000007
973.000000	0.000054
972.000000	-0.000015
971.000000	-0.000119
970.000000	-0.000003
969.000000	-0.000023
968.000000	0.000004
967.000000	0.000008
966.000000	0.000030
965.000000	-0.000012
964.000000	0.000043
963.000000	0.000172
962.000000	0.000147
961.000000	0.000039
960.000000	0.000019
959.000000	0.000001
958.000000	-0.000090
957.000000	0.000033
956.000000	0.000092
955.000000	-0.000052
954.000000	0.000036
953.000000	0.000036
952.000000	0.000070
951.000000	0.000103
950.000000	0.000077
949.000000	0.000152
948.000000	0.000111
947.000000	0.000014
946.000000	0.000038
945.000000	-0.000015
944.000000	0.000106
943.000000	0.000141
942.000000	0.000014
941.000000	0.000033
940.000000	0.000103
939.000000	0.000083
938.000000	0.000085
937.000000	0.000067
936.000000	0.000035
935.000000	0.000047
934.000000	0.000102
933.000000	0.000097
932.000000	-0.000079
931.000000	-0.000112
930.000000	-0.000048
929.000000	0.000052
928.000000	-0.000044
927.000000	-0.000140
926.000000	-0.000079
925.000000	-0.000007
924.000000	0.000059
923.000000	0.000197
922.000000	0.000130
921.000000	0.000048
920.000000	0.000056
919.000000	0.000047
918.000000	0.000027
917.000000	-0.000116
916.000000	-0.000113
915.000000	-0.000106
914.000000	0.000080
913.000000	0.000144
912.000000	-0.000098
911.000000	0.000001
910.000000	0.000048
909.000000	0.000096
908.000000	0.000094
907.000000	0.000074
906.000000	0.000198
905.000000	0.000095
904.000000	0.000110
903.000000	-0.000074
902.000000	-0.000160
901.000000	-0.000115
900.000000	-0.000251
899.000000	-0.000349
898.000000	-0.000106
897.000000	-0.000004
896.000000	0.000056
895.000000	-0.000060
894.000000	0.000109
893.000000	-0.000018
892.000000	0.000167
891.000000	0.000283
890.000000	0.000278
889.000000	0.000104
888.000000	-0.000327
887.000000	-0.000002
886.000000	0.000052
885.000000	-0.000049
884.000000	0.000029
883.000000	-0.000015
882.000000	-0.000095
881.000000	-0.000067
880.000000	0.000336
879.000000	0.000188
878.000000	-0.000107
877.000000	-0.000136
876.000000	-0.000074
875.000000	0.000246
874.000000	-0.000160
873.000000	0.000184
872.000000	0.000382
871.000000	-0.000096
870.000000	0.000213
869.000000	0.000448
868.000000	0.000343
867.000000	0.000549
866.000000	0.000218
865.000000	-0.000000
864.000000	0.000285
863.000000	-0.000055
862.000000	0.000084
861.000000	0.000487
860.000000	-0.000266
859.000000	-0.001095
858.000000	0.000180
857.000000	-0.000808
856.000000	-0.001460
855.000000	0.003354
854.000000	-0.001259
853.000000	0.000718
852.000000	0.000925
851.000000	-0.000137
850.000000	-0.000436
849.000000	0.000701
848.000000	-0.002208
847.000000	-0.001021
846.000000	-0.000663
845.000000	-0.000512
844.000000	-0.000781
843.000000	0.000370
842.000000	0.000281
841.000000	0.000478
840.000000	0.001944
839.000000	0.000839
838.000000	-0.000708
837.000000	-0.000293
836.000000	-0.000812
835.000000	0.000594
834.000000	0.000629
833.000000	-0.001647
832.000000	0.000388
831.000000	0.000096
830.000000	0.000346
829.000000	0.000771
828.000000	0.000699
827.000000	0.000136
826.000000	-0.000424
825.000000	0.001068
824.000000	0.000492
823.000000	0.000036
822.000000	0.000694
821.000000	0.000459
820.000000	0.000078
819.000000	0.000011
818.000000	-0.000004
817.000000	-0.000807
816.000000	-0.000037
815.000000	-0.000276
814.000000	0.000158
813.000000	0.000810
812.000000	0.000250
811.000000	-0.001048
810.000000	0.000882
809.000000	-0.000693
808.000000	0.000514
807.000000	0.000093
806.000000	-0.000360
805.000000	0.001228
804.000000	0.000516
803.000000	0.000686
802.000000	-0.000187
801.000000	-0.000694
800.000000	-0.000609
799.000000	-0.000819
798.000000	-0.000745
797.000000	-0.000091
796.000000	0.000084
795.000000	-0.000032
794.000000	0.000452
793.000000	0.000074
792.000000	0.000055
791.000000	-0.000071
790.000000	-0.000069
789.000000	0.000261
788.000000	-0.001007
787.000000	-0.000045
786.000000	0.000296
785.000000	0.000562
784.000000	-0.000066
783.000000	0.000212
782.000000	0.000658
781.000000	0.000553
780.000000	-0.000252
779.000000	-0.000112
778.000000	0.000117
777.000000	-0.000541
776.000000	-0.000017
775.000000	0.000078
774.000000	0.000282
773.000000	0.000380
772.000000	0.000238
771.000000	-0.000307
770.000000	-0.000301
769.000000	-0.000137
768.000000	0.000149
767.000000	-0.000239
766.000000	-0.000078
765.000000	-0.000119
764.000000	0.000105
763.000000	0.000062
762.000000	0.000695
761.000000	0.000730
760.000000	0.000239
759.000000	0.000152
758.000000	0.000318
757.000000	0.000251
756.000000	0.000369
755.000000	0.000211
754.000000	-0.000343
753.000000	-0.000538
752.000000	0.000038
751.000000	0.000531
750.000000	0.000140
749.000000	0.000263
748.000000	0.000279
747.000000	0.000488
746.000000	0.000538
745.000000	0.000529
744.000000	0.000346
743.000000	-0.000323
742.000000	0.000075
741.000000	0.000192
740.000000	-0.000181
739.000000	0.000427
738.000000	-0.000269
737.000000	-0.000368
736.000000	-0.000156
735.000000	0.000331
734.000000	0.000299
733.000000	-0.000105
732.000000	0.000039
731.000000	0.000035
730.000000	0.000138
729.000000	0.000485
728.000000	0.000476
727.000000	0.000303
726.000000	-0.000044
725.000000	0.000076
724.000000	0.000333
723.000000	0.000185
722.000000	-0.000012
721.000000	-0.000248
720.000000	-0.000085
719.000000	0.000499
718.000000	0.000279
717.000000	0.000041
716.000000	-0.000132
715.000000	-0.000035
714.000000	0.000059
713.000000	0.000126
712.000000	0.000275
711.000000	0.000059
710.000000	0.000026
709.000000	0.000032
708.000000	0.000031
707.000000	0.000023
706.000000	-0.000057
705.000000	-0.000085
704.000000	0.000128
703.000000	-0.000085
702.000000	0.000016
701.000000	0.000165
700.000000	-0.000034
699.000000	0.000268
698.000000	0.000324
697.000000	-0.000078
696.000000	-0.000044
695.000000	0.000092
694.000000	-0.000284
693.000000	-0.000449
692.000000	0.000085
691.000000	0.000201
690.000000	0.000004
689.000000	0.000239
688.000000	0.000300
687.000000	0.000020
686.000000	-0.000156
685.000000	-0.000123
684.000000	0.000072
683.000000	-0.000053
682.000000	0.000440
681.000000	0.000707
680.000000	0.000383
679.000000	0.000165
678.000000	0.000130
677.000000	0.000128
676.000000	0.000149
675.000000	0.000005
674.000000	0.000300
673.000000	0.000144
672.000000	0.000010
671.000000	0.000081
670.000000	-0.000096
669.000000	-0.000049
668.000000	0.000044
667.000000	0.000372
666.000000	0.000318
665.000000	0.000198
664.000000	0.000302
663.000000	0.000365
662.000000	0.000163
661.000000	0.000020
660.000000	-0.000093
659.000000	0.000184
658.000000	0.000290
657.000000	-0.000232
656.000000	0.000167
655.000000	0.000246
654.000000	0.000047
653.000000	-0.000072
652.000000	0.000173
651.000000	-0.000377
650.000000	-0.000399
649.000000	0.000084
648.000000	0.000154
647.000000	0.000198
646.000000	0.000140
645.000000	0.000040
644.000000	0.000424
643.000000	0.000607
642.000000	0.000416
641.000000	-0.000114
640.000000	0.000151
639.000000	-0.000098
638.000000	-0.000070
637.000000	0.000300
636.000000	0.000029
635.000000	-0.000201
634.000000	0.000270
633.000000	0.000039
632.000000	-0.000232
631.000000	0.000108
630.000000	-0.000196
629.000000	-0.000194
628.000000	-0.000144
627.000000	-0.000277
626.000000	0.000067
625.000000	-0.000069
624.000000	-0.000354
623.000000	-0.000196
622.000000	0.000200
621.000000	0.000466
620.000000	-0.000031
619.000000	0.000261
618.000000	0.000113
617.000000	-0.000259
616.000000	0.000198
615.000000	0.000000
614.000000	-0.000228
613.000000	0.000061
612.000000	-0.000478
611.000000	-0.000155
610.000000	-0.000299
609.000000	-0.000226
608.000000	0.000309
607.000000	-0.000006
606.000000	0.000041
605.000000	-0.000225
604.000000	0.000131
603.000000	-0.000184
602.000000	0.000115
601.000000	0.000327
600.000000	0.000009
599.000000	0.000265
598.000000	0.000485
597.000000	0.000288
596.000000	0.000033
595.000000	0.000161
594.000000	-0.000056
593.000000	-0.000191
592.000000	-0.000296
591.000000	-0.000258
590.000000	0.000078
589.000000	0.000131
588.000000	0.000196
587.000000	-0.000214
586.000000	-0.000110
585.000000	0.000272
584.000000	-0.000134
583.000000	0.000384
582.000000	0.000100
581.000000	-0.000104
580.000000	0.000038
579.000000	0.000019
578.000000	0.000158
577.000000	-0.000119
576.000000	0.000003
575.000000	-0.000083
574.000000	0.000178
573.000000	-0.000186
572.000000	0.000251
571.000000	0.000276
570.000000	-0.000107
569.000000	-0.000074
568.000000	-0.000109
567.000000	0.000129
566.000000	0.000106
565.000000	0.000031
564.000000	0.000265
563.000000	-0.000154
562.000000	0.000433
561.000000	0.000034
560.000000	0.000064
559.000000	-0.000256
558.000000	-0.000007
557.000000	0.000242
556.000000	0.000051
555.000000	0.000227
554.000000	0.000168
553.000000	0.000127
552.000000	0.000211
551.000000	0.000200
550.000000	0.000020
549.000000	0.000314
548.000000	0.000141
547.000000	-0.000287
546.000000	0.000171
545.000000	0.000216
544.000000	0.000110
543.000000	0.000328
542.000000	0.000442
541.000000	0.000140
540.000000	0.000388
539.000000	0.000244
538.000000	-0.000027
537.000000	-0.000039
536.000000	0.000114
535.000000	0.000072
534.000000	0.000380
533.000000	0.000264
532.000000	0.000164
531.000000	0.000129
530.000000	0.000272
529.000000	0.000114
528.000000	0.000144
527.000000	0.000085
526.000000	0.000185
525.000000	-0.000014
524.000000	0.000175
523.000000	0.000129
522.000000	0.000172
521.000000	0.000121
520.000000	-0.000093
519.000000	0.000214
518.000000	0.000357
517.000000	0.000315
516.000000	0.000227
515.000000	0.000403
514.000000	0.000309
513.000000	0.000050
512.000000	0.000069
511.000000	-0.000029
510.000000	0.000068
509.000000	0.000452
508.000000	0.000181
507.000000	0.000105
506.000000	0.000115
505.000000	0.000411
504.000000	0.000595
503.000000	0.000122
502.000000	-0.000022
501.000000	0.000011
500.000000	0.000063
499.000000	0.000350
498.000000	0.000128
497.000000	0.000264
496.000000	0.000281
495.000000	0.000145
494.000000	0.000037
493.000000	0.000067
492.000000	0.000142
491.000000	0.000386
490.000000	-0.000003
489.000000	-0.000092
488.000000	0.000403
487.000000	0.000413
486.000000	0.000144
485.000000	-0.000122
484.000000	-0.000040
483.000000	0.000168
482.000000	0.000100
481.000000	-0.000024
480.000000	-0.000059
479.000000	-0.000005
478.000000	0.000138
477.000000	0.000384
476.000000	0.000422
475.000000	0.000350
474.000000	0.000128
473.000000	0.000258
472.000000	0.000192
471.000000	0.000083
470.000000	0.000100
469.000000	0.000290
468.000000	0.000242
467.000000	0.000144
466.000000	0.000107
465.000000	-0.000029
464.000000	0.000163
463.000000	0.000128
462.000000	-0.000263
461.000000	-0.000127
460.000000	0.000257
459.000000	0.000150
458.000000	0.000165
457.000000	0.000219
456.000000	0.000034
455.000000	0.000124
454.000000	0.000203
453.000000	0.000200
452.000000	0.000059
451.000000	-0.000046
450.000000	-0.000097
449.000000	-0.000019
448.000000	0.000236
447.000000	0.000011
446.000000	-0.000084
445.000000	0.000325
444.000000	0.000117
443.000000	-0.000215
442.000000	-0.000009
441.000000	0.000030
440.000000	-0.000197
439.000000	0.000288
438.000000	0.000481
437.000000	-0.000103
436.000000	-0.000018
435.000000	-0.000089
434.000000	-0.000184
433.000000	0.000127
432.000000	0.000141
431.000000	-0.000160
430.000000	0.000118
429.000000	0.000192
428.000000	0.000243
427.000000	0.000099
426.000000	-0.000155
425.000000	0.000102
424.000000	0.000236
423.000000	0.000104
422.000000	0.000102
421.000000	0.000161
420.000000	0.000164
419.000000	-0.000001
418.000000	-0.000013
417.000000	-0.000142
416.000000	0.000122
415.000000	0.000044
414.000000	-0.000028
413.000000	0.000179
412.000000	0.000360
411.000000	0.000113
410.000000	0.000275
409.000000	0.000040
408.000000	0.000046
407.000000	-0.000355
406.000000	-0.000004
405.000000	0.000486
404.000000	0.000238
403.000000	0.000193
402.000000	0.000340
401.000000	0.000173
400.000000	0.000108
399.000000	0.000300
398.000000	0.000400
397.000000	-0.000147
396.000000	-0.000548
395.000000	-0.000341
394.000000	0.000126
393.000000	0.000115
392.000000	0.000553
391.000000	-0.000046
390.000000	-0.000011
389.000000	0.000521
388.000000	0.000257
387.000000	-0.000101
386.000000	0.000232
385.000000	0.000615
384.000000	0.000562
383.000000	0.000400
382.000000	-0.000434
381.000000	0.000625
380.000000	0.000153
379.000000	0.000066
378.000000	-0.000136
377.000000	0.000433
376.000000	-0.000140
375.000000	0.000658
374.000000	-0.000400
373.000000	-0.000693
372.000000	-0.000955
371.000000	0.001237
370.000000	-0.000400
369.000000	-0.000107
368.000000	-0.000913
367.000000	0.000031
366.000000	0.000600
365.000000	-0.000204
364.000000	0.000214
363.000000	-0.000086
362.000000	0.001619
361.000000	0.000092
360.000000	0.000252
359.000000	0.000251
358.000000	0.000258
357.000000	0.000884
356.000000	-0.000236
355.000000	0.000667
354.000000	0.000322
353.000000	0.000104
352.000000	0.000585
351.000000	0.000590
350.000000	0.000898
349.000000	0.000056
348.000000	-0.000371
347.000000	-0.002691
346.000000	0.001233
345.000000	0.000233
344.000000	0.001272
343.000000	0.000161
342.000000	0.000177
341.000000	0.000101
340.000000	0.000049
339.000000	-0.000936
338.000000	0.001790
337.000000	0.000701
336.000000	-0.001448
335.000000	0.002454
334.000000	-0.000405
333.000000	0.000291
332.000000	0.000210
331.000000	-0.000732
330.000000	-0.000548
329.000000	0.002397
328.000000	-0.001106
327.000000	0.001271
326.000000	0.000459
325.000000	-0.000370
324.000000	0.001855
323.000000	0.000675
322.000000	-0.002339
321.000000	0.001859
320.000000	0.000552
319.000000	-0.000961
318.000000	-0.000162
317.000000	0.001399
316.000000	-0.001473
315.000000	0.001038
314.000000	0.000674
313.000000	0.000167
312.000000	-0.000448
311.000000	0.000707
310.000000	0.000967
309.000000	0.000138
308.000000	0.000575
307.000000	-0.000548
306.000000	0.000169
305.000000	-0.000529
304.000000	-0.000106
303.000000	-0.000820
302.000000	-0.000423
301.000000	-0.000404
300.000000	0.000528
299.000000	-0.000633
298.000000	-0.001478
297.000000	0.001014
296.000000	-0.000473
295.000000	-0.000649
294.000000	-0.001091
293.000000	0.000269
292.000000	-0.000069
291.000000	0.002447
290.000000	0.000230
289.000000	0.001354
288.000000	-0.000563
287.000000	-0.000520
286.000000	0.001204
285.000000	0.000156
284.000000	0.000357
283.000000	-0.000610
282.000000	0.000094
281.000000	0.001010
280.000000	0.000990
279.000000	0.000502
278.000000	0.000182
277.000000	-0.000175
276.000000	-0.000526
275.000000	0.000769
274.000000	-0.000057
273.000000	0.000594
272.000000	0.001182
271.000000	-0.000471
270.000000	-0.000981
269.000000	-0.001401
268.000000	-0.000927
267.000000	-0.000007
266.000000	-0.000301
265.000000	-0.000560
264.000000	-0.000486
263.000000	-0.000481
262.000000	0.000972
261.000000	-0.001012
260.000000	0.000199
259.000000	-0.000400
258.000000	0.000828
257.000000	-0.000300
256.000000	0.000156
255.000000	-0.000290
254.000000	0.000749
253.000000	0.000601
252.000000	-0.000678
251.000000	0.000054
250.000000	0.000832
249.000000	0.000667
248.000000	-0.000406
247.000000	-0.001154
246.000000	-0.000588
245.000000	-0.000498
244.000000	-0.000392
243.000000	-0.000614
242.000000	-0.000250
241.000000	0.001122
240.000000	0.000441
239.000000	-0.000395
238.000000	-0.001197
237.000000	-0.000540
236.000000	0.000294
235.000000	0.000193
234.000000	-0.000556
233.000000	0.000567
232.000000	0.001267
231.000000	0.000379
230.000000	-0.000167
229.000000	0.000921
228.000000	0.000037
227.000000	-0.000036
226.000000	0.000199
225.000000	0.000827
224.000000	0.000686
223.000000	-0.000523
222.000000	-0.000671
221.000000	0.000939
220.000000	0.002438
219.000000	0.001918
218.000000	0.001576
217.000000	-0.001150
216.000000	-0.002915
215.000000	-0.001693
214.000000	-0.000553
213.000000	-0.001518
212.000000	-0.001461
211.000000	0.000429
210.000000	0.001391
209.000000	0.000424
208.000000	0.000324
207.000000	0.001152
206.000000	-0.000169
205.000000	0.000313
204.000000	0.000771
203.000000	-0.000495
202.000000	0.002751
201.000000	-0.000711
200.000000	0.001007
