PE UV       SUBTECH     SPECTRUM    ASCII       PEDS        4.00        
   -1
TDms1482161.Sample.asc
18/03/15
11:59:32.00
18/03/15
11:59:32.00
Administrator

200.000000
1
Lambda 750
750N8071901
PerkinElmer UV WinLab 6.0.4.0738 / 1.61.00 Lambda 900

0
0
3350/servo 860.8/2
0
0
UV/VIS
1
1
1
CommonBeamDepol,150mm sphere / downward view
0
0
0
0
Program
Program
3350/servo 860.8/2
3350/0.2 860.8/0.2
3350/0.2 860.8/0.2
0
1
 
 
 
0
 
860.8
319.2
860.8
Front
100
on
 
 
0
0
0
 
0
 
 
 
0
 
 
0
0
0
0
0
 
 
 
 
0
0


0
0
#HDR
-1
-1
#GR
nm
%T
1.0
0.0
2350.000000
-1.000000
2151
8
10.179797
-0.000754
#DATA
2350.000000	3.044348
2349.000000	3.164773
2348.000000	2.907706
2347.000000	3.957792
2346.000000	3.262576
2345.000000	3.279428
2344.000000	2.748491
2343.000000	2.600356
2342.000000	2.843306
2341.000000	3.219553
2340.000000	3.231591
2339.000000	3.730680
2338.000000	3.561385
2337.000000	3.427093
2336.000000	3.557609
2335.000000	4.095403
2334.000000	3.945686
2333.000000	3.934616
2332.000000	4.057723
2331.000000	4.007464
2330.000000	3.680596
2329.000000	3.634308
2328.000000	3.387319
2327.000000	3.623442
2326.000000	3.906392
2325.000000	3.955091
2324.000000	3.699022
2323.000000	3.556692
2322.000000	3.449236
2321.000000	3.494771
2320.000000	3.572806
2319.000000	3.586371
2318.000000	3.646154
2317.000000	3.589350
2316.000000	3.703052
2315.000000	3.359994
2314.000000	3.483315
2313.000000	3.421758
2312.000000	3.330433
2311.000000	3.291830
2310.000000	3.242628
2309.000000	3.197752
2308.000000	3.469383
2307.000000	3.318645
2306.000000	3.317376
2305.000000	3.470765
2304.000000	3.362112
2303.000000	3.403355
2302.000000	3.459175
2301.000000	3.403617
2300.000000	3.432622
2299.000000	3.351976
2298.000000	3.118103
2297.000000	2.951662
2296.000000	3.137957
2295.000000	2.951705
2294.000000	3.096475
2293.000000	3.275072
2292.000000	3.153075
2291.000000	3.055851
2290.000000	3.000130
2289.000000	3.215971
2288.000000	3.247030
2287.000000	3.112063
2286.000000	3.033937
2285.000000	2.872171
2284.000000	2.881302
2283.000000	3.162355
2282.000000	3.157318
2281.000000	3.039269
2280.000000	2.960727
2279.000000	3.121922
2278.000000	3.146184
2277.000000	3.113704
2276.000000	3.047326
2275.000000	3.068722
2274.000000	3.069917
2273.000000	3.092384
2272.000000	3.140294
2271.000000	3.217145
2270.000000	3.311935
2269.000000	3.238666
2268.000000	3.124735
2267.000000	3.214284
2266.000000	3.306284
2265.000000	3.268410
2264.000000	3.209154
2263.000000	3.144522
2262.000000	3.253833
2261.000000	3.441562
2260.000000	3.438083
2259.000000	3.467986
2258.000000	3.476332
2257.000000	3.596930
2256.000000	3.605404
2255.000000	3.536090
2254.000000	3.621927
2253.000000	3.585807
2252.000000	3.546293
2251.000000	3.805174
2250.000000	3.925693
2249.000000	3.814939
2248.000000	3.693586
2247.000000	3.840075
2246.000000	4.014689
2245.000000	4.140974
2244.000000	4.251738
2243.000000	4.161114
2242.000000	4.077022
2241.000000	4.177157
2240.000000	4.304632
2239.000000	4.271622
2238.000000	4.157854
2237.000000	4.228274
2236.000000	4.319540
2235.000000	4.398231
2234.000000	4.423452
2233.000000	4.376594
2232.000000	4.356353
2231.000000	4.369067
2230.000000	4.432314
2229.000000	4.489193
2228.000000	4.540303
2227.000000	4.572198
2226.000000	4.469735
2225.000000	4.292079
2224.000000	4.313879
2223.000000	4.243445
2222.000000	4.275744
2221.000000	4.421719
2220.000000	4.389198
2219.000000	4.375764
2218.000000	4.437053
2217.000000	4.378447
2216.000000	4.290277
2215.000000	4.319530
2214.000000	4.317341
2213.000000	4.444932
2212.000000	4.341046
2211.000000	4.341639
2210.000000	4.236637
2209.000000	4.265255
2208.000000	4.189401
2207.000000	4.096713
2206.000000	4.055962
2205.000000	4.082227
2204.000000	4.134959
2203.000000	4.212355
2202.000000	4.182602
2201.000000	4.199868
2200.000000	4.173319
2199.000000	4.199428
2198.000000	4.082954
2197.000000	3.971032
2196.000000	3.885765
2195.000000	3.909756
2194.000000	3.901889
2193.000000	3.866483
2192.000000	3.803098
2191.000000	3.866252
2190.000000	3.844316
2189.000000	3.872362
2188.000000	3.823786
2187.000000	3.906381
2186.000000	3.801846
2185.000000	3.807978
2184.000000	3.746181
2183.000000	3.845044
2182.000000	3.817218
2181.000000	3.770546
2180.000000	3.765308
2179.000000	3.810591
2178.000000	3.738977
2177.000000	3.703808
2176.000000	3.734700
2175.000000	3.863689
2174.000000	3.934199
2173.000000	3.845964
2172.000000	3.855566
2171.000000	3.891068
2170.000000	3.881985
2169.000000	3.864357
2168.000000	3.945061
2167.000000	4.013479
2166.000000	3.993140
2165.000000	4.028664
2164.000000	3.942499
2163.000000	3.801711
2162.000000	3.940855
2161.000000	3.939452
2160.000000	4.167120
2159.000000	4.038924
2158.000000	4.063196
2157.000000	4.078079
2156.000000	4.221620
2155.000000	4.099122
2154.000000	4.203540
2153.000000	4.326546
2152.000000	4.101079
2151.000000	4.285565
2150.000000	4.240654
2149.000000	4.510249
2148.000000	4.349522
2147.000000	4.504224
2146.000000	4.332703
2145.000000	4.573751
2144.000000	4.444814
2143.000000	4.426673
2142.000000	4.473982
2141.000000	4.479174
2140.000000	4.571514
2139.000000	4.565815
2138.000000	4.837307
2137.000000	4.788616
2136.000000	4.568654
2135.000000	4.683716
2134.000000	4.768504
2133.000000	4.573518
2132.000000	4.722204
2131.000000	4.858323
2130.000000	4.761238
2129.000000	4.913138
2128.000000	4.854584
2127.000000	4.692447
2126.000000	4.645385
2125.000000	4.652913
2124.000000	4.687305
2123.000000	4.692338
2122.000000	4.747208
2121.000000	4.805957
2120.000000	4.870887
2119.000000	4.995163
2118.000000	4.883984
2117.000000	4.838327
2116.000000	4.924906
2115.000000	4.959056
2114.000000	4.896516
2113.000000	4.930045
2112.000000	4.892389
2111.000000	4.816665
2110.000000	4.736129
2109.000000	4.829147
2108.000000	4.879128
2107.000000	4.845042
2106.000000	4.888141
2105.000000	4.886105
2104.000000	4.878292
2103.000000	4.967490
2102.000000	4.886001
2101.000000	4.997549
2100.000000	5.002572
2099.000000	4.868603
2098.000000	4.828681
2097.000000	4.825328
2096.000000	4.843378
2095.000000	4.842119
2094.000000	4.918049
2093.000000	4.818488
2092.000000	4.819377
2091.000000	4.797172
2090.000000	4.746433
2089.000000	4.710483
2088.000000	4.762438
2087.000000	4.810838
2086.000000	4.764662
2085.000000	4.782690
2084.000000	4.806163
2083.000000	4.668480
2082.000000	4.630161
2081.000000	4.681301
2080.000000	4.679180
2079.000000	4.706669
2078.000000	4.694900
2077.000000	4.641600
2076.000000	4.688185
2075.000000	4.560135
2074.000000	4.524891
2073.000000	4.444054
2072.000000	4.503233
2071.000000	4.489634
2070.000000	4.421750
2069.000000	4.422062
2068.000000	4.425526
2067.000000	4.307104
2066.000000	4.253370
2065.000000	4.294458
2064.000000	4.197001
2063.000000	4.072462
2062.000000	4.031954
2061.000000	4.016871
2060.000000	4.047708
2059.000000	4.094036
2058.000000	4.007605
2057.000000	3.962255
2056.000000	3.942639
2055.000000	3.878023
2054.000000	3.817914
2053.000000	3.700991
2052.000000	3.715976
2051.000000	3.721554
2050.000000	3.720357
2049.000000	3.717134
2048.000000	3.663208
2047.000000	3.673221
2046.000000	3.684079
2045.000000	3.648244
2044.000000	3.602855
2043.000000	3.643728
2042.000000	3.673283
2041.000000	3.661965
2040.000000	3.700569
2039.000000	3.677044
2038.000000	3.636060
2037.000000	3.682492
2036.000000	3.746585
2035.000000	3.744227
2034.000000	3.750182
2033.000000	3.753048
2032.000000	3.743856
2031.000000	3.764022
2030.000000	3.809085
2029.000000	3.861117
2028.000000	3.857510
2027.000000	3.861058
2026.000000	3.880160
2025.000000	3.904936
2024.000000	3.939033
2023.000000	3.962253
2022.000000	3.906798
2021.000000	3.891800
2020.000000	3.939397
2019.000000	3.930003
2018.000000	3.939274
2017.000000	3.966531
2016.000000	3.929342
2015.000000	3.913544
2014.000000	3.949018
2013.000000	3.956059
2012.000000	3.898232
2011.000000	3.865119
2010.000000	3.849880
2009.000000	3.875186
2008.000000	3.865799
2007.000000	3.798044
2006.000000	3.767377
2005.000000	3.779732
2004.000000	3.708069
2003.000000	3.688920
2002.000000	3.690527
2001.000000	3.673505
2000.000000	3.637019
1999.000000	3.617471
1998.000000	3.618707
1997.000000	3.599512
1996.000000	3.541149
1995.000000	3.515820
1994.000000	3.510608
1993.000000	3.450041
1992.000000	3.440577
1991.000000	3.424767
1990.000000	3.387058
1989.000000	3.374489
1988.000000	3.363383
1987.000000	3.318401
1986.000000	3.283611
1985.000000	3.317407
1984.000000	3.263279
1983.000000	3.195048
1982.000000	3.181622
1981.000000	3.233205
1980.000000	3.192377
1979.000000	3.163604
1978.000000	3.185730
1977.000000	3.138553
1976.000000	3.106411
1975.000000	3.103764
1974.000000	3.065584
1973.000000	3.046056
1972.000000	2.988229
1971.000000	2.998476
1970.000000	3.035656
1969.000000	2.992946
1968.000000	2.971400
1967.000000	2.964804
1966.000000	2.967370
1965.000000	2.969333
1964.000000	2.944735
1963.000000	2.901846
1962.000000	2.865645
1961.000000	2.852555
1960.000000	2.851098
1959.000000	2.850300
1958.000000	2.821210
1957.000000	2.841965
1956.000000	2.831462
1955.000000	2.797541
1954.000000	2.809249
1953.000000	2.835442
1952.000000	2.779587
1951.000000	2.838966
1950.000000	2.783757
1949.000000	2.766121
1948.000000	2.759677
1947.000000	2.795461
1946.000000	2.828371
1945.000000	2.818289
1944.000000	2.733289
1943.000000	2.782187
1942.000000	2.857409
1941.000000	2.750319
1940.000000	2.797363
1939.000000	2.812484
1938.000000	2.800466
1937.000000	2.884884
1936.000000	2.978168
1935.000000	2.810311
1934.000000	2.844722
1933.000000	2.907534
1932.000000	2.937506
1931.000000	3.004346
1930.000000	3.022894
1929.000000	3.036937
1928.000000	3.139383
1927.000000	3.077838
1926.000000	3.114086
1925.000000	3.200947
1924.000000	3.320132
1923.000000	3.258070
1922.000000	3.376875
1921.000000	3.453648
1920.000000	3.448496
1919.000000	3.454354
1918.000000	3.470133
1917.000000	3.597501
1916.000000	3.602365
1915.000000	3.796777
1914.000000	3.916037
1913.000000	3.997811
1912.000000	3.987373
1911.000000	4.158208
1910.000000	4.265821
1909.000000	4.245227
1908.000000	4.318728
1907.000000	4.526035
1906.000000	4.605226
1905.000000	4.627405
1904.000000	4.836477
1903.000000	4.889755
1902.000000	5.049125
1901.000000	5.217685
1900.000000	5.392948
1899.000000	5.483289
1898.000000	5.593148
1897.000000	5.750268
1896.000000	5.840195
1895.000000	6.033416
1894.000000	6.098788
1893.000000	6.176996
1892.000000	6.344337
1891.000000	6.510903
1890.000000	6.600284
1889.000000	6.730745
1888.000000	6.866207
1887.000000	7.056857
1886.000000	7.144453
1885.000000	7.269183
1884.000000	7.357088
1883.000000	7.465459
1882.000000	7.573945
1881.000000	7.684578
1880.000000	7.796086
1879.000000	7.858182
1878.000000	7.980584
1877.000000	8.085949
1876.000000	8.150299
1875.000000	8.226341
1874.000000	8.324385
1873.000000	8.385195
1872.000000	8.489036
1871.000000	8.540879
1870.000000	8.544193
1869.000000	8.581171
1868.000000	8.626214
1867.000000	8.619624
1866.000000	8.649304
1865.000000	8.683407
1864.000000	8.670377
1863.000000	8.707125
1862.000000	8.701190
1861.000000	8.701490
1860.000000	8.697120
1859.000000	8.710484
1858.000000	8.744865
1857.000000	8.762462
1856.000000	8.801463
1855.000000	8.788670
1854.000000	8.752101
1853.000000	8.780011
1852.000000	8.816752
1851.000000	8.819796
1850.000000	8.806232
1849.000000	8.829805
1848.000000	8.834837
1847.000000	8.846042
1846.000000	8.844570
1845.000000	8.868875
1844.000000	8.815666
1843.000000	8.780505
1842.000000	8.821497
1841.000000	8.821681
1840.000000	8.815504
1839.000000	8.781255
1838.000000	8.741197
1837.000000	8.739711
1836.000000	8.702579
1835.000000	8.694580
1834.000000	8.660866
1833.000000	8.618700
1832.000000	8.583413
1831.000000	8.581667
1830.000000	8.581032
1829.000000	8.549754
1828.000000	8.510625
1827.000000	8.495337
1826.000000	8.495801
1825.000000	8.473629
1824.000000	8.476254
1823.000000	8.475524
1822.000000	8.455945
1821.000000	8.453750
1820.000000	8.447288
1819.000000	8.414911
1818.000000	8.390903
1817.000000	8.377524
1816.000000	8.377576
1815.000000	8.394371
1814.000000	8.372974
1813.000000	8.341135
1812.000000	8.327540
1811.000000	8.307909
1810.000000	8.298525
1809.000000	8.303458
1808.000000	8.304088
1807.000000	8.289104
1806.000000	8.271839
1805.000000	8.269003
1804.000000	8.289454
1803.000000	8.284391
1802.000000	8.267213
1801.000000	8.255061
1800.000000	8.241884
1799.000000	8.253157
1798.000000	8.245325
1797.000000	8.242790
1796.000000	8.252396
1795.000000	8.240637
1794.000000	8.250952
1793.000000	8.258975
1792.000000	8.257026
1791.000000	8.250896
1790.000000	8.247873
1789.000000	8.253115
1788.000000	8.250102
1787.000000	8.235452
1786.000000	8.253964
1785.000000	8.257326
1784.000000	8.255743
1783.000000	8.269527
1782.000000	8.256700
1781.000000	8.262447
1780.000000	8.248274
1779.000000	8.224879
1778.000000	8.220927
1777.000000	8.185483
1776.000000	8.155898
1775.000000	8.149789
1774.000000	8.131862
1773.000000	8.131314
1772.000000	8.118053
1771.000000	8.078213
1770.000000	8.071013
1769.000000	8.045216
1768.000000	8.033149
1767.000000	8.035272
1766.000000	8.005466
1765.000000	7.992347
1764.000000	7.979676
1763.000000	7.947842
1762.000000	7.918602
1761.000000	7.908694
1760.000000	7.877070
1759.000000	7.868634
1758.000000	7.852320
1757.000000	7.850139
1756.000000	7.853300
1755.000000	7.810892
1754.000000	7.802682
1753.000000	7.783297
1752.000000	7.770545
1751.000000	7.743924
1750.000000	7.735903
1749.000000	7.732377
1748.000000	7.684498
1747.000000	7.673195
1746.000000	7.656827
1745.000000	7.636222
1744.000000	7.605428
1743.000000	7.590355
1742.000000	7.596567
1741.000000	7.550729
1740.000000	7.545578
1739.000000	7.522095
1738.000000	7.517439
1737.000000	7.496170
1736.000000	7.492926
1735.000000	7.470687
1734.000000	7.482778
1733.000000	7.487129
1732.000000	7.476823
1731.000000	7.480069
1730.000000	7.469953
1729.000000	7.458392
1728.000000	7.496586
1727.000000	7.508030
1726.000000	7.509855
1725.000000	7.531735
1724.000000	7.550388
1723.000000	7.559452
1722.000000	7.566984
1721.000000	7.595110
1720.000000	7.613569
1719.000000	7.666945
1718.000000	7.666881
1717.000000	7.710646
1716.000000	7.715110
1715.000000	7.731492
1714.000000	7.749217
1713.000000	7.789314
1712.000000	7.784006
1711.000000	7.846718
1710.000000	7.831458
1709.000000	7.842469
1708.000000	7.844898
1707.000000	7.864629
1706.000000	7.863794
1705.000000	7.857892
1704.000000	7.924866
1703.000000	7.878312
1702.000000	7.910184
1701.000000	7.935750
1700.000000	7.928307
1699.000000	7.892559
1698.000000	7.930770
1697.000000	7.933189
1696.000000	7.979931
1695.000000	7.946336
1694.000000	7.946413
1693.000000	7.960684
1692.000000	7.958540
1691.000000	8.014315
1690.000000	8.025496
1689.000000	8.052165
1688.000000	8.088287
1687.000000	8.103079
1686.000000	8.148060
1685.000000	8.159817
1684.000000	8.194554
1683.000000	8.253710
1682.000000	8.291597
1681.000000	8.337863
1680.000000	8.389533
1679.000000	8.439422
1678.000000	8.458774
1677.000000	8.482418
1676.000000	8.520407
1675.000000	8.614026
1674.000000	8.664988
1673.000000	8.685844
1672.000000	8.698910
1671.000000	8.776533
1670.000000	8.818663
1669.000000	8.831557
1668.000000	8.847348
1667.000000	8.885045
1666.000000	8.910404
1665.000000	8.921197
1664.000000	8.934887
1663.000000	8.960047
1662.000000	8.989379
1661.000000	8.992115
1660.000000	9.026223
1659.000000	9.053374
1658.000000	9.056523
1657.000000	9.065427
1656.000000	9.082186
1655.000000	9.118087
1654.000000	9.113646
1653.000000	9.110541
1652.000000	9.113904
1651.000000	9.112099
1650.000000	9.109382
1649.000000	9.109573
1648.000000	9.099797
1647.000000	9.091176
1646.000000	9.078869
1645.000000	9.063794
1644.000000	9.047009
1643.000000	9.028129
1642.000000	9.051469
1641.000000	9.036457
1640.000000	9.024027
1639.000000	8.997932
1638.000000	8.999491
1637.000000	8.993436
1636.000000	8.969694
1635.000000	8.964744
1634.000000	8.947280
1633.000000	8.910275
1632.000000	8.888141
1631.000000	8.884399
1630.000000	8.889632
1629.000000	8.866206
1628.000000	8.843846
1627.000000	8.843309
1626.000000	8.830837
1625.000000	8.817361
1624.000000	8.801941
1623.000000	8.780334
1622.000000	8.777773
1621.000000	8.757488
1620.000000	8.744735
1619.000000	8.716748
1618.000000	8.689806
1617.000000	8.681133
1616.000000	8.675204
1615.000000	8.664067
1614.000000	8.648576
1613.000000	8.634039
1612.000000	8.624185
1611.000000	8.595048
1610.000000	8.569182
1609.000000	8.554470
1608.000000	8.552302
1607.000000	8.528753
1606.000000	8.502405
1605.000000	8.491255
1604.000000	8.465018
1603.000000	8.442438
1602.000000	8.436222
1601.000000	8.422703
1600.000000	8.411728
1599.000000	8.395654
1598.000000	8.373306
1597.000000	8.360874
1596.000000	8.343280
1595.000000	8.329196
1594.000000	8.308283
1593.000000	8.299348
1592.000000	8.306819
1591.000000	8.278118
1590.000000	8.252222
1589.000000	8.238483
1588.000000	8.220208
1587.000000	8.208791
1586.000000	8.202754
1585.000000	8.189615
1584.000000	8.170641
1583.000000	8.155303
1582.000000	8.139127
1581.000000	8.122326
1580.000000	8.112886
1579.000000	8.111645
1578.000000	8.111369
1577.000000	8.091523
1576.000000	8.053806
1575.000000	8.036059
1574.000000	8.024975
1573.000000	8.006540
1572.000000	8.002966
1571.000000	7.992087
1570.000000	7.970475
1569.000000	7.956249
1568.000000	7.957178
1567.000000	7.942717
1566.000000	7.916311
1565.000000	7.902251
1564.000000	7.904183
1563.000000	7.889283
1562.000000	7.874055
1561.000000	7.858989
1560.000000	7.843717
1559.000000	7.838546
1558.000000	7.819271
1557.000000	7.802379
1556.000000	7.793988
1555.000000	7.774154
1554.000000	7.756993
1553.000000	7.745565
1552.000000	7.734564
1551.000000	7.724867
1550.000000	7.717101
1549.000000	7.700923
1548.000000	7.673864
1547.000000	7.643922
1546.000000	7.630745
1545.000000	7.602659
1544.000000	7.562108
1543.000000	7.539451
1542.000000	7.525791
1541.000000	7.503583
1540.000000	7.457851
1539.000000	7.429741
1538.000000	7.407677
1537.000000	7.380143
1536.000000	7.362504
1535.000000	7.348455
1534.000000	7.319037
1533.000000	7.271431
1532.000000	7.246916
1531.000000	7.224680
1530.000000	7.205031
1529.000000	7.184254
1528.000000	7.161536
1527.000000	7.134892
1526.000000	7.122322
1525.000000	7.096738
1524.000000	7.075143
1523.000000	7.070672
1522.000000	7.055509
1521.000000	7.049571
1520.000000	7.025328
1519.000000	7.022348
1518.000000	7.007468
1517.000000	6.996909
1516.000000	6.998681
1515.000000	6.999178
1514.000000	6.953688
1513.000000	6.961571
1512.000000	6.959812
1511.000000	6.944326
1510.000000	6.955742
1509.000000	6.945391
1508.000000	6.949852
1507.000000	6.949280
1506.000000	6.940239
1505.000000	6.925844
1504.000000	6.927958
1503.000000	6.928412
1502.000000	6.931284
1501.000000	6.956104
1500.000000	6.951451
1499.000000	6.960682
1498.000000	6.945864
1497.000000	6.954024
1496.000000	6.968375
1495.000000	6.949691
1494.000000	6.946355
1493.000000	6.958209
1492.000000	6.942364
1491.000000	6.945778
1490.000000	6.957640
1489.000000	6.958279
1488.000000	6.975842
1487.000000	6.987728
1486.000000	7.000852
1485.000000	6.990492
1484.000000	7.002740
1483.000000	7.026398
1482.000000	6.993881
1481.000000	7.041559
1480.000000	7.045589
1479.000000	7.033911
1478.000000	7.017887
1477.000000	7.028416
1476.000000	7.035282
1475.000000	7.040588
1474.000000	7.049704
1473.000000	7.049697
1472.000000	7.051954
1471.000000	7.065283
1470.000000	7.054172
1469.000000	7.058546
1468.000000	7.063053
1467.000000	7.083679
1466.000000	7.116539
1465.000000	7.116432
1464.000000	7.125910
1463.000000	7.144715
1462.000000	7.145337
1461.000000	7.139002
1460.000000	7.137991
1459.000000	7.171297
1458.000000	7.184244
1457.000000	7.196541
1456.000000	7.201855
1455.000000	7.213741
1454.000000	7.237254
1453.000000	7.240407
1452.000000	7.243021
1451.000000	7.254712
1450.000000	7.263693
1449.000000	7.307014
1448.000000	7.316895
1447.000000	7.330816
1446.000000	7.352163
1445.000000	7.357462
1444.000000	7.366461
1443.000000	7.389897
1442.000000	7.393093
1441.000000	7.433562
1440.000000	7.463529
1439.000000	7.479701
1438.000000	7.497518
1437.000000	7.534827
1436.000000	7.550070
1435.000000	7.575962
1434.000000	7.603948
1433.000000	7.636417
1432.000000	7.658828
1431.000000	7.696325
1430.000000	7.726994
1429.000000	7.752050
1428.000000	7.781605
1427.000000	7.835067
1426.000000	7.871312
1425.000000	7.920913
1424.000000	7.963671
1423.000000	7.998074
1422.000000	8.033604
1421.000000	8.071883
1420.000000	8.120223
1419.000000	8.155279
1418.000000	8.192319
1417.000000	8.224217
1416.000000	8.297551
1415.000000	8.350391
1414.000000	8.378559
1413.000000	8.446507
1412.000000	8.496479
1411.000000	8.530750
1410.000000	8.595277
1409.000000	8.664951
1408.000000	8.713169
1407.000000	8.742491
1406.000000	8.800329
1405.000000	8.854742
1404.000000	8.903814
1403.000000	8.949333
1402.000000	8.990996
1401.000000	9.046546
1400.000000	9.090084
1399.000000	9.133033
1398.000000	9.175743
1397.000000	9.225592
1396.000000	9.265168
1395.000000	9.298677
1394.000000	9.336884
1393.000000	9.368346
1392.000000	9.394068
1391.000000	9.432760
1390.000000	9.462665
1389.000000	9.495057
1388.000000	9.526200
1387.000000	9.544088
1386.000000	9.567263
1385.000000	9.595951
1384.000000	9.624906
1383.000000	9.646061
1382.000000	9.678496
1381.000000	9.717783
1380.000000	9.719436
1379.000000	9.721738
1378.000000	9.748544
1377.000000	9.761704
1376.000000	9.760681
1375.000000	9.758357
1374.000000	9.776798
1373.000000	9.809738
1372.000000	9.820844
1371.000000	9.824888
1370.000000	9.831882
1369.000000	9.844536
1368.000000	9.856062
1367.000000	9.860259
1366.000000	9.868133
1365.000000	9.884367
1364.000000	9.904657
1363.000000	9.928786
1362.000000	9.946989
1361.000000	9.945065
1360.000000	9.936490
1359.000000	9.950894
1358.000000	9.971509
1357.000000	9.962655
1356.000000	9.964299
1355.000000	9.963419
1354.000000	9.978099
1353.000000	9.992227
1352.000000	10.012158
1351.000000	10.025956
1350.000000	10.013522
1349.000000	10.019251
1348.000000	10.047701
1347.000000	10.049767
1346.000000	10.053811
1345.000000	10.053564
1344.000000	10.057166
1343.000000	10.063256
1342.000000	10.058540
1341.000000	10.057872
1340.000000	10.048219
1339.000000	10.075966
1338.000000	10.112089
1337.000000	10.100171
1336.000000	10.099633
1335.000000	10.103309
1334.000000	10.127199
1333.000000	10.134712
1332.000000	10.138318
1331.000000	10.124615
1330.000000	10.116662
1329.000000	10.140133
1328.000000	10.160824
1327.000000	10.144581
1326.000000	10.124528
1325.000000	10.141038
1324.000000	10.151213
1323.000000	10.138309
1322.000000	10.157189
1321.000000	10.156896
1320.000000	10.139385
1319.000000	10.150174
1318.000000	10.150626
1317.000000	10.167502
1316.000000	10.174206
1315.000000	10.146896
1314.000000	10.140870
1313.000000	10.132196
1312.000000	10.162193
1311.000000	10.157276
1310.000000	10.172007
1309.000000	10.179797
1308.000000	10.159904
1307.000000	10.157050
1306.000000	10.157965
1305.000000	10.174220
1304.000000	10.174728
1303.000000	10.153066
1302.000000	10.152462
1301.000000	10.156422
1300.000000	10.138823
1299.000000	10.146423
1298.000000	10.132557
1297.000000	10.141698
1296.000000	10.153555
1295.000000	10.148209
1294.000000	10.147432
1293.000000	10.142804
1292.000000	10.127599
1291.000000	10.142700
1290.000000	10.143814
1289.000000	10.137802
1288.000000	10.145626
1287.000000	10.142445
1286.000000	10.136741
1285.000000	10.133801
1284.000000	10.134928
1283.000000	10.132395
1282.000000	10.092037
1281.000000	10.059634
1280.000000	10.061118
1279.000000	10.062367
1278.000000	10.052930
1277.000000	10.069898
1276.000000	10.082797
1275.000000	10.071669
1274.000000	10.063011
1273.000000	10.053202
1272.000000	10.036577
1271.000000	10.042452
1270.000000	10.031383
1269.000000	10.026173
1268.000000	10.031688
1267.000000	10.054026
1266.000000	10.072738
1265.000000	10.073218
1264.000000	10.046465
1263.000000	10.022234
1262.000000	10.029079
1261.000000	10.026929
1260.000000	10.036298
1259.000000	10.062862
1258.000000	10.048891
1257.000000	10.031622
1256.000000	10.021892
1255.000000	10.012091
1254.000000	10.001281
1253.000000	10.020064
1252.000000	10.008283
1251.000000	10.054802
1250.000000	10.061214
1249.000000	10.057874
1248.000000	10.039321
1247.000000	10.042454
1246.000000	10.038097
1245.000000	9.979937
1244.000000	9.969072
1243.000000	9.986240
1242.000000	9.987572
1241.000000	10.001543
1240.000000	9.988451
1239.000000	9.952415
1238.000000	9.948774
1237.000000	9.961322
1236.000000	9.927338
1235.000000	9.924271
1234.000000	9.932097
1233.000000	9.920623
1232.000000	9.879316
1231.000000	9.877340
1230.000000	9.897932
1229.000000	9.896207
1228.000000	9.879193
1227.000000	9.887848
1226.000000	9.837230
1225.000000	9.826731
1224.000000	9.823272
1223.000000	9.822647
1222.000000	9.839458
1221.000000	9.822476
1220.000000	9.798530
1219.000000	9.781834
1218.000000	9.775928
1217.000000	9.765616
1216.000000	9.764444
1215.000000	9.781213
1214.000000	9.759874
1213.000000	9.728507
1212.000000	9.711781
1211.000000	9.719738
1210.000000	9.719260
1209.000000	9.711078
1208.000000	9.713691
1207.000000	9.686954
1206.000000	9.668093
1205.000000	9.646180
1204.000000	9.645495
1203.000000	9.647650
1202.000000	9.634577
1201.000000	9.621763
1200.000000	9.633050
1199.000000	9.623679
1198.000000	9.596312
1197.000000	9.581717
1196.000000	9.588968
1195.000000	9.585588
1194.000000	9.593438
1193.000000	9.594680
1192.000000	9.598259
1191.000000	9.581503
1190.000000	9.542032
1189.000000	9.512268
1188.000000	9.519752
1187.000000	9.531621
1186.000000	9.512034
1185.000000	9.504553
1184.000000	9.509756
1183.000000	9.505032
1182.000000	9.518270
1181.000000	9.531791
1180.000000	9.546979
1179.000000	9.563934
1178.000000	9.575006
1177.000000	9.587816
1176.000000	9.603680
1175.000000	9.608240
1174.000000	9.618714
1173.000000	9.639036
1172.000000	9.651009
1171.000000	9.657670
1170.000000	9.667964
1169.000000	9.677808
1168.000000	9.694062
1167.000000	9.706292
1166.000000	9.719918
1165.000000	9.734951
1164.000000	9.751012
1163.000000	9.761952
1162.000000	9.759057
1161.000000	9.763823
1160.000000	9.765061
1159.000000	9.760831
1158.000000	9.779298
1157.000000	9.810555
1156.000000	9.826356
1155.000000	9.832545
1154.000000	9.842650
1153.000000	9.855204
1152.000000	9.865277
1151.000000	9.874583
1150.000000	9.894711
1149.000000	9.909195
1148.000000	9.911606
1147.000000	9.916425
1146.000000	9.921355
1145.000000	9.933763
1144.000000	9.926995
1143.000000	9.920265
1142.000000	9.924980
1141.000000	9.933089
1140.000000	9.954143
1139.000000	9.955730
1138.000000	9.964084
1137.000000	9.979834
1136.000000	9.980338
1135.000000	9.990476
1134.000000	9.998509
1133.000000	10.005643
1132.000000	10.018316
1131.000000	10.022032
1130.000000	9.986601
1129.000000	9.977483
1128.000000	10.002169
1127.000000	10.012615
1126.000000	10.005107
1125.000000	10.004467
1124.000000	10.008934
1123.000000	10.017545
1122.000000	10.016164
1121.000000	10.025071
1120.000000	10.026697
1119.000000	10.017908
1118.000000	10.023761
1117.000000	10.028968
1116.000000	10.019871
1115.000000	10.028285
1114.000000	10.018916
1113.000000	10.023239
1112.000000	10.021878
1111.000000	10.028514
1110.000000	10.028294
1109.000000	10.015648
1108.000000	10.025604
1107.000000	10.023336
1106.000000	9.984818
1105.000000	9.969438
1104.000000	9.980385
1103.000000	9.980990
1102.000000	9.981083
1101.000000	10.003060
1100.000000	10.007654
1099.000000	9.996273
1098.000000	10.015871
1097.000000	10.011455
1096.000000	9.975757
1095.000000	9.961365
1094.000000	9.963824
1093.000000	9.970366
1092.000000	9.986564
1091.000000	9.979700
1090.000000	9.992299
1089.000000	9.962541
1088.000000	9.944713
1087.000000	9.942704
1086.000000	9.949548
1085.000000	9.955275
1084.000000	9.953016
1083.000000	9.978148
1082.000000	9.933561
1081.000000	9.928709
1080.000000	9.948130
1079.000000	9.945281
1078.000000	9.940423
1077.000000	9.937881
1076.000000	9.921035
1075.000000	9.922782
1074.000000	9.914832
1073.000000	9.919421
1072.000000	9.930744
1071.000000	9.933951
1070.000000	9.930003
1069.000000	9.895174
1068.000000	9.880663
1067.000000	9.893745
1066.000000	9.905438
1065.000000	9.900273
1064.000000	9.908645
1063.000000	9.918589
1062.000000	9.865949
1061.000000	9.883916
1060.000000	9.877032
1059.000000	9.872924
1058.000000	9.893395
1057.000000	9.892263
1056.000000	9.854479
1055.000000	9.862526
1054.000000	9.856205
1053.000000	9.865319
1052.000000	9.874953
1051.000000	9.835146
1050.000000	9.835138
1049.000000	9.858834
1048.000000	9.832681
1047.000000	9.863049
1046.000000	9.826911
1045.000000	9.827614
1044.000000	9.824891
1043.000000	9.815196
1042.000000	9.811999
1041.000000	9.795584
1040.000000	9.824963
1039.000000	9.846739
1038.000000	9.815038
1037.000000	9.813202
1036.000000	9.814561
1035.000000	9.823568
1034.000000	9.832389
1033.000000	9.793182
1032.000000	9.807105
1031.000000	9.818112
1030.000000	9.794354
1029.000000	9.803515
1028.000000	9.810767
1027.000000	9.804922
1026.000000	9.796786
1025.000000	9.800235
1024.000000	9.804633
1023.000000	9.774899
1022.000000	9.776859
1021.000000	9.792725
1020.000000	9.770416
1019.000000	9.786850
1018.000000	9.803235
1017.000000	9.815365
1016.000000	9.788515
1015.000000	9.773684
1014.000000	9.784763
1013.000000	9.799999
1012.000000	9.818630
1011.000000	9.811522
1010.000000	9.797807
1009.000000	9.818553
1008.000000	9.811790
1007.000000	9.817741
1006.000000	9.834447
1005.000000	9.859189
1004.000000	9.856479
1003.000000	9.843342
1002.000000	9.850951
1001.000000	9.856814
1000.000000	9.859740
999.000000	9.859193
998.000000	9.861801
997.000000	9.868040
996.000000	9.875022
995.000000	9.868799
994.000000	9.854359
993.000000	9.861643
992.000000	9.863999
991.000000	9.866365
990.000000	9.866168
989.000000	9.865187
988.000000	9.862223
987.000000	9.860344
986.000000	9.867502
985.000000	9.868259
984.000000	9.873263
983.000000	9.879117
982.000000	9.854432
981.000000	9.858107
980.000000	9.861091
979.000000	9.849691
978.000000	9.853650
977.000000	9.872610
976.000000	9.872725
975.000000	9.853169
974.000000	9.857222
973.000000	9.859916
972.000000	9.850205
971.000000	9.844064
970.000000	9.849171
969.000000	9.853205
968.000000	9.862700
967.000000	9.866730
966.000000	9.858569
965.000000	9.848425
964.000000	9.831096
963.000000	9.835975
962.000000	9.859676
961.000000	9.870562
960.000000	9.857460
959.000000	9.865001
958.000000	9.870909
957.000000	9.861294
956.000000	9.854022
955.000000	9.855042
954.000000	9.857182
953.000000	9.862958
952.000000	9.856678
951.000000	9.858913
950.000000	9.868062
949.000000	9.844805
948.000000	9.840150
947.000000	9.845955
946.000000	9.850892
945.000000	9.861716
944.000000	9.842359
943.000000	9.820639
942.000000	9.813034
941.000000	9.823787
940.000000	9.829840
939.000000	9.809198
938.000000	9.808727
937.000000	9.815799
936.000000	9.823803
935.000000	9.817375
934.000000	9.813088
933.000000	9.802158
932.000000	9.781068
931.000000	9.800647
930.000000	9.794459
929.000000	9.791696
928.000000	9.811235
927.000000	9.807023
926.000000	9.792794
925.000000	9.796773
924.000000	9.803312
923.000000	9.784959
922.000000	9.788845
921.000000	9.792125
920.000000	9.780339
919.000000	9.775801
918.000000	9.787556
917.000000	9.765552
916.000000	9.770113
915.000000	9.765121
914.000000	9.756091
913.000000	9.780952
912.000000	9.763202
911.000000	9.757866
910.000000	9.791289
909.000000	9.793580
908.000000	9.792412
907.000000	9.808832
906.000000	9.781296
905.000000	9.758082
904.000000	9.763924
903.000000	9.781930
902.000000	9.740840
901.000000	9.741932
900.000000	9.785698
899.000000	9.822270
898.000000	9.799554
897.000000	9.749257
896.000000	9.738300
895.000000	9.748016
894.000000	9.751395
893.000000	9.712468
892.000000	9.718988
891.000000	9.786725
890.000000	9.783664
889.000000	9.764269
888.000000	9.741803
887.000000	9.809116
886.000000	9.771905
885.000000	9.722208
884.000000	9.771325
883.000000	9.760323
882.000000	9.796595
881.000000	9.812270
880.000000	9.860221
879.000000	9.781961
878.000000	9.725296
877.000000	9.744220
876.000000	9.709757
875.000000	9.668724
874.000000	9.682877
873.000000	9.639984
872.000000	9.764939
871.000000	9.815057
870.000000	9.780076
869.000000	9.661096
868.000000	9.649069
867.000000	9.633442
866.000000	9.782650
865.000000	9.750456
864.000000	9.669515
863.000000	9.595481
862.000000	9.666006
861.000000	9.785622
860.000000	9.707515
859.000000	9.079926
858.000000	9.020129
857.000000	8.967049
856.000000	8.989448
855.000000	8.901919
854.000000	8.945332
853.000000	8.960123
852.000000	8.903533
851.000000	8.959762
850.000000	8.920467
849.000000	8.951804
848.000000	8.910485
847.000000	8.903705
846.000000	8.863306
845.000000	8.886855
844.000000	8.852695
843.000000	8.931108
842.000000	8.854117
841.000000	8.860299
840.000000	8.849254
839.000000	8.851888
838.000000	8.843155
837.000000	8.839601
836.000000	8.806441
835.000000	8.808629
834.000000	8.818742
833.000000	8.734710
832.000000	8.794466
831.000000	8.807002
830.000000	8.806319
829.000000	8.814920
828.000000	8.761062
827.000000	8.770619
826.000000	8.721439
825.000000	8.802145
824.000000	8.747228
823.000000	8.764172
822.000000	8.730259
821.000000	8.771765
820.000000	8.691531
819.000000	8.705887
818.000000	8.691333
817.000000	8.713572
816.000000	8.741365
815.000000	8.688392
814.000000	8.675931
813.000000	8.688378
812.000000	8.657974
811.000000	8.675568
810.000000	8.649906
809.000000	8.658347
808.000000	8.614381
807.000000	8.646590
806.000000	8.652791
805.000000	8.615572
804.000000	8.617388
803.000000	8.625975
802.000000	8.582282
801.000000	8.579628
800.000000	8.587556
799.000000	8.593793
798.000000	8.596284
797.000000	8.588295
796.000000	8.579336
795.000000	8.574203
794.000000	8.545594
793.000000	8.554427
792.000000	8.528607
791.000000	8.523668
790.000000	8.501704
789.000000	8.519474
788.000000	8.493925
787.000000	8.481005
786.000000	8.489092
785.000000	8.481343
784.000000	8.482309
783.000000	8.466266
782.000000	8.455578
781.000000	8.463017
780.000000	8.448319
779.000000	8.462110
778.000000	8.444510
777.000000	8.421729
776.000000	8.459961
775.000000	8.430573
774.000000	8.412188
773.000000	8.404433
772.000000	8.403968
771.000000	8.380168
770.000000	8.401501
769.000000	8.380349
768.000000	8.382580
767.000000	8.358534
766.000000	8.345763
765.000000	8.341333
764.000000	8.324543
763.000000	8.297838
762.000000	8.293461
761.000000	8.304976
760.000000	8.286140
759.000000	8.295247
758.000000	8.277378
757.000000	8.274197
756.000000	8.268552
755.000000	8.241739
754.000000	8.244575
753.000000	8.246498
752.000000	8.224032
751.000000	8.198992
750.000000	8.204003
749.000000	8.189733
748.000000	8.184823
747.000000	8.177915
746.000000	8.186907
745.000000	8.169949
744.000000	8.146123
743.000000	8.122050
742.000000	8.122935
741.000000	8.125929
740.000000	8.119591
739.000000	8.099542
738.000000	8.074415
737.000000	8.075233
736.000000	8.062982
735.000000	8.047610
734.000000	8.035008
733.000000	8.030366
732.000000	8.029534
731.000000	8.015142
730.000000	8.003304
729.000000	7.983863
728.000000	7.966358
727.000000	7.964535
726.000000	7.965485
725.000000	7.944412
724.000000	7.933995
723.000000	7.929871
722.000000	7.910736
721.000000	7.884353
720.000000	7.871711
719.000000	7.864633
718.000000	7.847925
717.000000	7.847159
716.000000	7.833646
715.000000	7.823406
714.000000	7.815540
713.000000	7.802475
712.000000	7.789473
711.000000	7.766390
710.000000	7.762188
709.000000	7.767621
708.000000	7.747799
707.000000	7.737436
706.000000	7.737498
705.000000	7.710231
704.000000	7.682908
703.000000	7.681810
702.000000	7.658899
701.000000	7.637081
700.000000	7.632655
699.000000	7.624142
698.000000	7.604746
697.000000	7.587927
696.000000	7.575472
695.000000	7.567680
694.000000	7.559056
693.000000	7.551474
692.000000	7.539636
691.000000	7.510281
690.000000	7.488425
689.000000	7.484323
688.000000	7.465748
687.000000	7.440320
686.000000	7.427005
685.000000	7.410409
684.000000	7.398987
683.000000	7.387961
682.000000	7.363360
681.000000	7.349116
680.000000	7.341640
679.000000	7.322362
678.000000	7.304591
677.000000	7.288805
676.000000	7.277037
675.000000	7.259213
674.000000	7.241727
673.000000	7.226835
672.000000	7.213201
671.000000	7.198571
670.000000	7.173609
669.000000	7.158884
668.000000	7.138610
667.000000	7.115264
666.000000	7.111646
665.000000	7.093384
664.000000	7.065524
663.000000	7.050336
662.000000	7.036585
661.000000	7.013943
660.000000	6.994123
659.000000	6.982088
658.000000	6.969513
657.000000	6.946410
656.000000	6.925671
655.000000	6.902905
654.000000	6.891881
653.000000	6.874861
652.000000	6.859422
651.000000	6.845646
650.000000	6.825183
649.000000	6.802674
648.000000	6.778392
647.000000	6.767304
646.000000	6.737974
645.000000	6.719621
644.000000	6.701046
643.000000	6.676210
642.000000	6.666211
641.000000	6.648709
640.000000	6.628292
639.000000	6.612290
638.000000	6.590788
637.000000	6.563463
636.000000	6.541989
635.000000	6.513614
634.000000	6.493876
633.000000	6.478404
632.000000	6.458216
631.000000	6.446828
630.000000	6.425044
629.000000	6.405660
628.000000	6.380483
627.000000	6.358666
626.000000	6.339751
625.000000	6.303514
624.000000	6.285724
623.000000	6.267433
622.000000	6.240605
621.000000	6.211303
620.000000	6.195334
619.000000	6.182805
618.000000	6.154225
617.000000	6.116926
616.000000	6.102096
615.000000	6.081643
614.000000	6.064935
613.000000	6.038998
612.000000	6.014469
611.000000	5.989450
610.000000	5.969555
609.000000	5.950713
608.000000	5.926351
607.000000	5.910654
606.000000	5.884529
605.000000	5.843531
604.000000	5.817711
603.000000	5.807764
602.000000	5.781823
601.000000	5.748464
600.000000	5.728688
599.000000	5.701793
598.000000	5.677753
597.000000	5.657378
596.000000	5.627446
595.000000	5.608082
594.000000	5.579572
593.000000	5.556617
592.000000	5.520721
591.000000	5.510739
590.000000	5.476548
589.000000	5.447831
588.000000	5.416675
587.000000	5.401211
586.000000	5.364651
585.000000	5.338946
584.000000	5.327665
583.000000	5.301853
582.000000	5.275822
581.000000	5.235135
580.000000	5.210309
579.000000	5.187759
578.000000	5.147431
577.000000	5.126570
576.000000	5.100648
575.000000	5.066725
574.000000	5.045147
573.000000	5.017573
572.000000	4.982801
571.000000	4.963435
570.000000	4.926996
569.000000	4.908744
568.000000	4.870339
567.000000	4.844308
566.000000	4.819838
565.000000	4.787472
564.000000	4.755062
563.000000	4.730607
562.000000	4.694352
561.000000	4.675297
560.000000	4.642167
559.000000	4.618108
558.000000	4.590529
557.000000	4.557491
556.000000	4.532629
555.000000	4.494849
554.000000	4.467336
553.000000	4.439443
552.000000	4.405797
551.000000	4.377946
550.000000	4.349864
549.000000	4.319242
548.000000	4.287280
547.000000	4.257340
546.000000	4.224215
545.000000	4.191749
544.000000	4.158596
543.000000	4.130981
542.000000	4.090261
541.000000	4.069898
540.000000	4.036162
539.000000	4.002693
538.000000	3.975910
537.000000	3.946509
536.000000	3.910782
535.000000	3.875304
534.000000	3.848867
533.000000	3.820397
532.000000	3.790696
531.000000	3.757459
530.000000	3.723729
529.000000	3.687408
528.000000	3.653026
527.000000	3.623441
526.000000	3.586916
525.000000	3.551888
524.000000	3.515753
523.000000	3.484180
522.000000	3.454008
521.000000	3.418506
520.000000	3.377719
519.000000	3.339219
518.000000	3.301843
517.000000	3.272947
516.000000	3.233408
515.000000	3.198882
514.000000	3.160611
513.000000	3.124310
512.000000	3.087499
511.000000	3.051035
510.000000	3.017940
509.000000	2.978930
508.000000	2.942486
507.000000	2.908308
506.000000	2.873876
505.000000	2.837860
504.000000	2.806708
503.000000	2.773690
502.000000	2.745420
501.000000	2.712667
500.000000	2.681226
499.000000	2.645659
498.000000	2.614927
497.000000	2.591973
496.000000	2.562664
495.000000	2.532694
494.000000	2.501322
493.000000	2.477988
492.000000	2.455611
491.000000	2.432659
490.000000	2.400802
489.000000	2.376332
488.000000	2.350269
487.000000	2.322779
486.000000	2.297875
485.000000	2.274189
484.000000	2.251487
483.000000	2.231275
482.000000	2.204268
481.000000	2.176381
480.000000	2.148484
479.000000	2.120072
478.000000	2.081259
477.000000	2.046056
476.000000	2.018723
475.000000	1.991612
474.000000	1.966884
473.000000	1.936842
472.000000	1.905660
471.000000	1.877580
470.000000	1.846744
469.000000	1.819970
468.000000	1.793403
467.000000	1.765584
466.000000	1.738229
465.000000	1.706378
464.000000	1.676034
463.000000	1.652923
462.000000	1.627023
461.000000	1.598751
460.000000	1.570270
459.000000	1.544488
458.000000	1.519840
457.000000	1.492706
456.000000	1.470799
455.000000	1.445710
454.000000	1.414975
453.000000	1.387302
452.000000	1.363272
451.000000	1.344174
450.000000	1.317076
449.000000	1.290499
448.000000	1.266286
447.000000	1.240574
446.000000	1.223052
445.000000	1.201686
444.000000	1.181781
443.000000	1.158557
442.000000	1.131751
441.000000	1.112691
440.000000	1.094098
439.000000	1.069688
438.000000	1.053090
437.000000	1.033087
436.000000	1.006347
435.000000	0.988372
434.000000	0.970196
433.000000	0.947727
432.000000	0.928040
431.000000	0.908891
430.000000	0.891445
429.000000	0.870919
428.000000	0.851685
427.000000	0.833854
426.000000	0.819256
425.000000	0.799911
424.000000	0.777749
423.000000	0.756902
422.000000	0.741144
421.000000	0.724804
420.000000	0.708204
419.000000	0.692159
418.000000	0.674898
417.000000	0.654811
416.000000	0.637680
415.000000	0.621360
414.000000	0.608912
413.000000	0.595729
412.000000	0.580356
411.000000	0.562534
410.000000	0.551471
409.000000	0.533228
408.000000	0.516624
407.000000	0.502407
406.000000	0.491915
405.000000	0.476792
404.000000	0.454959
403.000000	0.448541
402.000000	0.439778
401.000000	0.424853
400.000000	0.412094
399.000000	0.396603
398.000000	0.388066
397.000000	0.380605
396.000000	0.364772
395.000000	0.354740
394.000000	0.348321
393.000000	0.335588
392.000000	0.324394
391.000000	0.318140
390.000000	0.313688
389.000000	0.298297
388.000000	0.294408
387.000000	0.280621
386.000000	0.273650
385.000000	0.261025
384.000000	0.257815
383.000000	0.251857
382.000000	0.243485
381.000000	0.232538
380.000000	0.224557
379.000000	0.219144
378.000000	0.212526
377.000000	0.227817
376.000000	0.218097
375.000000	0.216496
374.000000	0.212352
373.000000	0.206516
372.000000	0.199973
371.000000	0.192266
370.000000	0.178621
369.000000	0.182406
368.000000	0.176887
367.000000	0.167212
366.000000	0.161398
365.000000	0.152390
364.000000	0.143040
363.000000	0.140514
362.000000	0.142014
361.000000	0.131584
360.000000	0.127078
359.000000	0.122324
358.000000	0.119214
357.000000	0.126141
356.000000	0.119416
355.000000	0.114595
354.000000	0.109466
353.000000	0.106830
352.000000	0.106710
351.000000	0.101611
350.000000	0.110474
349.000000	0.102184
348.000000	0.088182
347.000000	0.092718
346.000000	0.078820
345.000000	0.088825
344.000000	0.094650
343.000000	0.086650
342.000000	0.076365
341.000000	0.083488
340.000000	0.077161
339.000000	0.075867
338.000000	0.072059
337.000000	0.067934
336.000000	0.071356
335.000000	0.071895
334.000000	0.067643
333.000000	0.058684
332.000000	0.054930
331.000000	0.055689
330.000000	0.063540
329.000000	0.059604
328.000000	0.049320
327.000000	0.052727
326.000000	0.051333
325.000000	0.053780
324.000000	0.056242
323.000000	0.054953
322.000000	0.035422
321.000000	0.034360
320.000000	0.038092
319.000000	0.034161
318.000000	0.052228
317.000000	0.054802
316.000000	0.052221
315.000000	0.060309
314.000000	0.058194
313.000000	0.065317
312.000000	0.059392
311.000000	0.051917
310.000000	0.055456
309.000000	0.048424
308.000000	0.057667
307.000000	0.044408
306.000000	0.052737
305.000000	0.049741
304.000000	0.051406
303.000000	0.055379
302.000000	0.052072
301.000000	0.048221
300.000000	0.051896
299.000000	0.050207
298.000000	0.049658
297.000000	0.057381
296.000000	0.052968
295.000000	0.045923
294.000000	0.050612
293.000000	0.042755
292.000000	0.045775
291.000000	0.053668
290.000000	0.051536
289.000000	0.044113
288.000000	0.041128
287.000000	0.043867
286.000000	0.050870
285.000000	0.049539
284.000000	0.049399
283.000000	0.046393
282.000000	0.046655
281.000000	0.047167
280.000000	0.041282
279.000000	0.052114
278.000000	0.055084
277.000000	0.049815
276.000000	0.052179
275.000000	0.054828
274.000000	0.058783
273.000000	0.056156
272.000000	0.060376
271.000000	0.058841
270.000000	0.058970
269.000000	0.062803
268.000000	0.068402
267.000000	0.064820
266.000000	0.070484
265.000000	0.070304
264.000000	0.062622
263.000000	0.066419
262.000000	0.074193
261.000000	0.074012
260.000000	0.082593
259.000000	0.083089
258.000000	0.079617
257.000000	0.079707
256.000000	0.081168
255.000000	0.080962
254.000000	0.082060
253.000000	0.072694
252.000000	0.070216
251.000000	0.073201
250.000000	0.077757
249.000000	0.086898
248.000000	0.087781
247.000000	0.080795
246.000000	0.073156
245.000000	0.073760
244.000000	0.075521
243.000000	0.072431
242.000000	0.067356
241.000000	0.064239
240.000000	0.062793
239.000000	0.060336
238.000000	0.059953
237.000000	0.058988
236.000000	0.056706
235.000000	0.051955
234.000000	0.051656
233.000000	0.046790
232.000000	0.048177
231.000000	0.049432
230.000000	0.043535
229.000000	0.034571
228.000000	0.030871
227.000000	0.040292
226.000000	0.035734
225.000000	0.029858
224.000000	0.029722
223.000000	0.028979
222.000000	0.020237
221.000000	0.024098
220.000000	0.023448
219.000000	0.016984
218.000000	0.011921
217.000000	0.008744
216.000000	0.011934
215.000000	0.013203
214.000000	0.019122
213.000000	0.018267
212.000000	0.009817
211.000000	0.009672
210.000000	0.012532
209.000000	0.013733
208.000000	0.022105
207.000000	0.025179
206.000000	0.013180
205.000000	0.003522
204.000000	0.016169
203.000000	0.007919
202.000000	0.029463
201.000000	0.014379
200.000000	-0.000754
