PE UV       SUBTECH     SPECTRUM    ASCII       PEDS        4.00        
   -1
TTms499181.Sample.asc
18/03/15
15:14:57.00
18/03/15
15:14:57.00
Administrator

200.000000
1
Lambda 750
750N8071901
PerkinElmer UV WinLab 6.0.4.0738 / 1.61.00 Lambda 900

0
0
3350/servo 860.8/2
0
0
UV/VIS
1
1
1
CommonBeamDepol,150mm sphere / downward view
0
0
0
0
Program
Program
3350/servo 860.8/2
3350/0.2 860.8/0.2
3350/0.2 860.8/0.2
0
1
 
 
 
0
 
860.8
319.2
860.8
Front
100
on
 
 
0
0
0
 
0
 
 
 
0
 
 
0
0
0
0
0
 
 
 
 
0
0


0
0
#HDR
-1
-1
#GR
nm
%T
1.0
0.0
2350.000000
-1.000000
2151
8
6.760739
-0.069128
#DATA
2350.000000	1.269459
2349.000000	1.580926
2348.000000	1.234788
2347.000000	1.933257
2346.000000	1.498575
2345.000000	1.437582
2344.000000	1.325625
2343.000000	1.182739
2342.000000	1.259165
2341.000000	1.739426
2340.000000	1.674084
2339.000000	2.001823
2338.000000	1.970085
2337.000000	1.648631
2336.000000	1.784852
2335.000000	2.058721
2334.000000	1.825362
2333.000000	2.147850
2332.000000	2.341234
2331.000000	2.029027
2330.000000	2.050762
2329.000000	2.136725
2328.000000	2.034711
2327.000000	1.815407
2326.000000	1.961344
2325.000000	2.235838
2324.000000	1.895596
2323.000000	1.953156
2322.000000	2.238740
2321.000000	1.965197
2320.000000	2.105975
2319.000000	2.046416
2318.000000	1.831406
2317.000000	2.109706
2316.000000	1.925907
2315.000000	1.827461
2314.000000	1.756997
2313.000000	1.723283
2312.000000	1.615797
2311.000000	1.902440
2310.000000	1.925838
2309.000000	1.883520
2308.000000	2.025533
2307.000000	1.809335
2306.000000	1.819476
2305.000000	1.788932
2304.000000	1.820572
2303.000000	1.986478
2302.000000	1.902389
2301.000000	1.812802
2300.000000	1.350183
2299.000000	1.588252
2298.000000	1.519710
2297.000000	1.621361
2296.000000	1.618983
2295.000000	1.638814
2294.000000	1.685951
2293.000000	1.675048
2292.000000	1.565461
2291.000000	1.754421
2290.000000	1.702678
2289.000000	1.825505
2288.000000	1.909655
2287.000000	1.777555
2286.000000	1.584568
2285.000000	1.569046
2284.000000	1.684352
2283.000000	1.621689
2282.000000	1.496242
2281.000000	1.405508
2280.000000	1.573057
2279.000000	1.814463
2278.000000	1.601269
2277.000000	1.643512
2276.000000	1.693609
2275.000000	1.693039
2274.000000	1.574718
2273.000000	1.637542
2272.000000	1.768472
2271.000000	1.744339
2270.000000	1.617497
2269.000000	1.659308
2268.000000	1.550546
2267.000000	1.538175
2266.000000	1.698690
2265.000000	1.778181
2264.000000	1.745067
2263.000000	1.703426
2262.000000	1.854123
2261.000000	1.814447
2260.000000	1.722271
2259.000000	1.799030
2258.000000	1.868077
2257.000000	1.866747
2256.000000	1.945554
2255.000000	1.995381
2254.000000	2.086075
2253.000000	2.145318
2252.000000	2.118471
2251.000000	2.072700
2250.000000	2.134037
2249.000000	2.210966
2248.000000	2.106695
2247.000000	2.137605
2246.000000	2.228746
2245.000000	2.169183
2244.000000	2.151396
2243.000000	2.337857
2242.000000	2.492692
2241.000000	2.413614
2240.000000	2.316797
2239.000000	2.275650
2238.000000	2.310896
2237.000000	2.385670
2236.000000	2.357887
2235.000000	2.395826
2234.000000	2.438052
2233.000000	2.400811
2232.000000	2.392321
2231.000000	2.546326
2230.000000	2.542181
2229.000000	2.455347
2228.000000	2.565253
2227.000000	2.689879
2226.000000	2.614758
2225.000000	2.496340
2224.000000	2.459570
2223.000000	2.516115
2222.000000	2.551157
2221.000000	2.414558
2220.000000	2.370098
2219.000000	2.485927
2218.000000	2.607236
2217.000000	2.626442
2216.000000	2.575197
2215.000000	2.670698
2214.000000	2.647371
2213.000000	2.715084
2212.000000	2.554983
2211.000000	2.332372
2210.000000	2.318415
2209.000000	2.371069
2208.000000	2.323423
2207.000000	2.336818
2206.000000	2.490352
2205.000000	2.383809
2204.000000	2.295694
2203.000000	2.299211
2202.000000	2.372174
2201.000000	2.433343
2200.000000	2.445906
2199.000000	2.283150
2198.000000	2.335541
2197.000000	2.395483
2196.000000	2.391652
2195.000000	2.275114
2194.000000	2.279650
2193.000000	2.232913
2192.000000	2.114977
2191.000000	2.083422
2190.000000	2.303922
2189.000000	2.318756
2188.000000	2.163159
2187.000000	2.153391
2186.000000	2.108384
2185.000000	2.279883
2184.000000	2.243206
2183.000000	2.292925
2182.000000	2.038059
2181.000000	2.177235
2180.000000	2.206126
2179.000000	2.170061
2178.000000	2.038013
2177.000000	2.166508
2176.000000	2.202461
2175.000000	2.263475
2174.000000	2.293814
2173.000000	2.147291
2172.000000	2.191528
2171.000000	2.196467
2170.000000	2.202130
2169.000000	2.304772
2168.000000	2.394881
2167.000000	2.294896
2166.000000	2.231413
2165.000000	2.344419
2164.000000	2.375185
2163.000000	2.307215
2162.000000	2.270604
2161.000000	2.327290
2160.000000	2.472480
2159.000000	2.358126
2158.000000	2.423754
2157.000000	2.497298
2156.000000	2.407332
2155.000000	2.347790
2154.000000	2.440168
2153.000000	2.420454
2152.000000	2.637463
2151.000000	2.510954
2150.000000	2.483468
2149.000000	2.393165
2148.000000	2.428084
2147.000000	2.408707
2146.000000	2.332530
2145.000000	2.573338
2144.000000	2.557613
2143.000000	2.501893
2142.000000	2.605780
2141.000000	2.678186
2140.000000	2.726942
2139.000000	2.805888
2138.000000	2.797826
2137.000000	2.777451
2136.000000	2.722081
2135.000000	2.701517
2134.000000	2.817377
2133.000000	2.488622
2132.000000	2.575008
2131.000000	2.638862
2130.000000	2.721398
2129.000000	2.724034
2128.000000	2.857648
2127.000000	2.763123
2126.000000	2.723912
2125.000000	2.705344
2124.000000	2.597501
2123.000000	2.575994
2122.000000	2.661533
2121.000000	2.841983
2120.000000	2.753495
2119.000000	2.796298
2118.000000	2.835310
2117.000000	2.758943
2116.000000	2.660551
2115.000000	2.740165
2114.000000	2.775052
2113.000000	2.834869
2112.000000	2.715675
2111.000000	2.736650
2110.000000	2.601250
2109.000000	2.685201
2108.000000	2.648425
2107.000000	2.679852
2106.000000	2.738863
2105.000000	2.708845
2104.000000	2.761979
2103.000000	2.824005
2102.000000	2.818882
2101.000000	2.819847
2100.000000	2.733022
2099.000000	2.780490
2098.000000	2.743761
2097.000000	2.777632
2096.000000	2.750236
2095.000000	2.710101
2094.000000	2.669265
2093.000000	2.676075
2092.000000	2.747862
2091.000000	2.856941
2090.000000	2.780294
2089.000000	2.746974
2088.000000	2.693412
2087.000000	2.752403
2086.000000	2.822764
2085.000000	2.784880
2084.000000	2.684139
2083.000000	2.654199
2082.000000	2.667327
2081.000000	2.627339
2080.000000	2.661425
2079.000000	2.672761
2078.000000	2.590607
2077.000000	2.587672
2076.000000	2.608743
2075.000000	2.568173
2074.000000	2.541019
2073.000000	2.586681
2072.000000	2.538505
2071.000000	2.537066
2070.000000	2.457885
2069.000000	2.393699
2068.000000	2.473780
2067.000000	2.456233
2066.000000	2.339288
2065.000000	2.321334
2064.000000	2.308911
2063.000000	2.329502
2062.000000	2.296501
2061.000000	2.262444
2060.000000	2.305446
2059.000000	2.257414
2058.000000	2.220782
2057.000000	2.148145
2056.000000	2.104882
2055.000000	2.114697
2054.000000	2.114215
2053.000000	2.125013
2052.000000	2.059289
2051.000000	2.038718
2050.000000	2.060689
2049.000000	2.060795
2048.000000	2.060965
2047.000000	2.062207
2046.000000	1.969781
2045.000000	1.991972
2044.000000	1.993264
2043.000000	1.975367
2042.000000	1.969595
2041.000000	1.982832
2040.000000	1.986734
2039.000000	1.931871
2038.000000	1.942130
2037.000000	1.966295
2036.000000	2.002616
2035.000000	2.014620
2034.000000	2.008842
2033.000000	2.025418
2032.000000	2.065175
2031.000000	2.084345
2030.000000	2.091274
2029.000000	2.072315
2028.000000	2.084383
2027.000000	2.091655
2026.000000	2.114970
2025.000000	2.140578
2024.000000	2.101195
2023.000000	2.120875
2022.000000	2.163359
2021.000000	2.143395
2020.000000	2.113237
2019.000000	2.112044
2018.000000	2.144186
2017.000000	2.170077
2016.000000	2.160252
2015.000000	2.165253
2014.000000	2.168838
2013.000000	2.138148
2012.000000	2.151052
2011.000000	2.168124
2010.000000	2.139317
2009.000000	2.119470
2008.000000	2.087481
2007.000000	2.074274
2006.000000	2.060851
2005.000000	2.037056
2004.000000	2.019359
2003.000000	1.994501
2002.000000	1.979373
2001.000000	1.984517
2000.000000	1.967486
1999.000000	1.994784
1998.000000	1.981297
1997.000000	1.936789
1996.000000	1.937235
1995.000000	1.907615
1994.000000	1.874317
1993.000000	1.866736
1992.000000	1.866940
1991.000000	1.850264
1990.000000	1.865436
1989.000000	1.853313
1988.000000	1.803387
1987.000000	1.773018
1986.000000	1.796903
1985.000000	1.783068
1984.000000	1.774782
1983.000000	1.750041
1982.000000	1.743475
1981.000000	1.768037
1980.000000	1.727236
1979.000000	1.721143
1978.000000	1.714254
1977.000000	1.662982
1976.000000	1.652603
1975.000000	1.676803
1974.000000	1.627888
1973.000000	1.681125
1972.000000	1.668735
1971.000000	1.645209
1970.000000	1.657748
1969.000000	1.638027
1968.000000	1.652963
1967.000000	1.607270
1966.000000	1.664051
1965.000000	1.637410
1964.000000	1.587342
1963.000000	1.586917
1962.000000	1.569704
1961.000000	1.595882
1960.000000	1.607576
1959.000000	1.566834
1958.000000	1.559410
1957.000000	1.629280
1956.000000	1.600573
1955.000000	1.587101
1954.000000	1.550427
1953.000000	1.502630
1952.000000	1.569477
1951.000000	1.568076
1950.000000	1.582325
1949.000000	1.666216
1948.000000	1.571213
1947.000000	1.535235
1946.000000	1.566447
1945.000000	1.552617
1944.000000	1.558566
1943.000000	1.650260
1942.000000	1.559756
1941.000000	1.608653
1940.000000	1.642188
1939.000000	1.612335
1938.000000	1.641342
1937.000000	1.681635
1936.000000	1.647372
1935.000000	1.654796
1934.000000	1.640275
1933.000000	1.671533
1932.000000	1.720954
1931.000000	1.673296
1930.000000	1.672227
1929.000000	1.700373
1928.000000	1.702601
1927.000000	1.763877
1926.000000	1.801029
1925.000000	1.791159
1924.000000	1.764739
1923.000000	1.803816
1922.000000	1.908862
1921.000000	2.033301
1920.000000	1.994704
1919.000000	1.999591
1918.000000	2.016854
1917.000000	2.059904
1916.000000	1.962959
1915.000000	2.073157
1914.000000	2.230164
1913.000000	2.296053
1912.000000	2.282661
1911.000000	2.334168
1910.000000	2.351759
1909.000000	2.357954
1908.000000	2.508105
1907.000000	2.559527
1906.000000	2.530126
1905.000000	2.666777
1904.000000	2.749204
1903.000000	2.830980
1902.000000	2.876811
1901.000000	2.944785
1900.000000	3.066199
1899.000000	3.145115
1898.000000	3.291349
1897.000000	3.334625
1896.000000	3.378823
1895.000000	3.481237
1894.000000	3.526664
1893.000000	3.664532
1892.000000	3.802572
1891.000000	3.817881
1890.000000	3.950355
1889.000000	4.048628
1888.000000	4.141980
1887.000000	4.233022
1886.000000	4.276338
1885.000000	4.388116
1884.000000	4.485100
1883.000000	4.607300
1882.000000	4.647797
1881.000000	4.751623
1880.000000	4.843186
1879.000000	4.926757
1878.000000	4.991629
1877.000000	5.026884
1876.000000	5.131071
1875.000000	5.191718
1874.000000	5.228173
1873.000000	5.263392
1872.000000	5.317488
1871.000000	5.348554
1870.000000	5.393568
1869.000000	5.409796
1868.000000	5.462568
1867.000000	5.454990
1866.000000	5.441470
1865.000000	5.412211
1864.000000	5.438333
1863.000000	5.454573
1862.000000	5.437966
1861.000000	5.443664
1860.000000	5.469996
1859.000000	5.443825
1858.000000	5.476131
1857.000000	5.536985
1856.000000	5.523766
1855.000000	5.500220
1854.000000	5.538999
1853.000000	5.550935
1852.000000	5.522484
1851.000000	5.510894
1850.000000	5.517009
1849.000000	5.540446
1848.000000	5.562848
1847.000000	5.568813
1846.000000	5.585288
1845.000000	5.583488
1844.000000	5.548857
1843.000000	5.554809
1842.000000	5.540412
1841.000000	5.517996
1840.000000	5.513985
1839.000000	5.481184
1838.000000	5.484962
1837.000000	5.487815
1836.000000	5.437191
1835.000000	5.443792
1834.000000	5.416985
1833.000000	5.377548
1832.000000	5.372233
1831.000000	5.352802
1830.000000	5.336691
1829.000000	5.298941
1828.000000	5.276661
1827.000000	5.298450
1826.000000	5.267601
1825.000000	5.241045
1824.000000	5.246183
1823.000000	5.245827
1822.000000	5.224833
1821.000000	5.224153
1820.000000	5.234506
1819.000000	5.203612
1818.000000	5.193398
1817.000000	5.203728
1816.000000	5.176498
1815.000000	5.160676
1814.000000	5.143650
1813.000000	5.130730
1812.000000	5.134080
1811.000000	5.128473
1810.000000	5.133808
1809.000000	5.140617
1808.000000	5.119545
1807.000000	5.096041
1806.000000	5.083374
1805.000000	5.086574
1804.000000	5.080767
1803.000000	5.083654
1802.000000	5.081546
1801.000000	5.101591
1800.000000	5.100220
1799.000000	5.086871
1798.000000	5.094586
1797.000000	5.079266
1796.000000	5.078679
1795.000000	5.079836
1794.000000	5.098386
1793.000000	5.106293
1792.000000	5.103335
1791.000000	5.116876
1790.000000	5.113083
1789.000000	5.120979
1788.000000	5.133868
1787.000000	5.124646
1786.000000	5.113095
1785.000000	5.129589
1784.000000	5.149847
1783.000000	5.133964
1782.000000	5.131630
1781.000000	5.133256
1780.000000	5.139170
1779.000000	5.137443
1778.000000	5.128236
1777.000000	5.113517
1776.000000	5.105944
1775.000000	5.092312
1774.000000	5.048139
1773.000000	5.032294
1772.000000	5.012492
1771.000000	5.011694
1770.000000	5.022403
1769.000000	4.994324
1768.000000	4.969139
1767.000000	4.953967
1766.000000	4.975000
1765.000000	4.946779
1764.000000	4.891679
1763.000000	4.903036
1762.000000	4.894596
1761.000000	4.890738
1760.000000	4.891143
1759.000000	4.863547
1758.000000	4.856312
1757.000000	4.837916
1756.000000	4.815499
1755.000000	4.826308
1754.000000	4.810102
1753.000000	4.787412
1752.000000	4.784503
1751.000000	4.781977
1750.000000	4.747283
1749.000000	4.752369
1748.000000	4.751874
1747.000000	4.731195
1746.000000	4.722092
1745.000000	4.677887
1744.000000	4.657266
1743.000000	4.638556
1742.000000	4.647407
1741.000000	4.635236
1740.000000	4.623051
1739.000000	4.616405
1738.000000	4.571318
1737.000000	4.565637
1736.000000	4.553238
1735.000000	4.548953
1734.000000	4.554853
1733.000000	4.564633
1732.000000	4.559108
1731.000000	4.561458
1730.000000	4.555302
1729.000000	4.529758
1728.000000	4.580019
1727.000000	4.582818
1726.000000	4.571890
1725.000000	4.585681
1724.000000	4.610701
1723.000000	4.619406
1722.000000	4.648967
1721.000000	4.638295
1720.000000	4.668423
1719.000000	4.716333
1718.000000	4.720562
1717.000000	4.717166
1716.000000	4.741129
1715.000000	4.775885
1714.000000	4.784960
1713.000000	4.789719
1712.000000	4.821953
1711.000000	4.840940
1710.000000	4.845259
1709.000000	4.838670
1708.000000	4.858939
1707.000000	4.871515
1706.000000	4.864876
1705.000000	4.904844
1704.000000	4.910533
1703.000000	4.909929
1702.000000	4.905041
1701.000000	4.914775
1700.000000	4.920256
1699.000000	4.897068
1698.000000	4.924257
1697.000000	4.930793
1696.000000	4.947714
1695.000000	4.965928
1694.000000	4.953326
1693.000000	4.949608
1692.000000	4.968942
1691.000000	4.995142
1690.000000	5.030005
1689.000000	5.017986
1688.000000	5.040219
1687.000000	5.087961
1686.000000	5.133907
1685.000000	5.148836
1684.000000	5.161922
1683.000000	5.204792
1682.000000	5.250581
1681.000000	5.300280
1680.000000	5.305264
1679.000000	5.368182
1678.000000	5.399218
1677.000000	5.406584
1676.000000	5.435458
1675.000000	5.481662
1674.000000	5.516380
1673.000000	5.541080
1672.000000	5.553026
1671.000000	5.594801
1670.000000	5.632338
1669.000000	5.655176
1668.000000	5.659570
1667.000000	5.711286
1666.000000	5.712299
1665.000000	5.732268
1664.000000	5.706917
1663.000000	5.728772
1662.000000	5.773182
1661.000000	5.800328
1660.000000	5.814109
1659.000000	5.839644
1658.000000	5.835414
1657.000000	5.863474
1656.000000	5.868937
1655.000000	5.865435
1654.000000	5.876362
1653.000000	5.896051
1652.000000	5.901601
1651.000000	5.876576
1650.000000	5.867723
1649.000000	5.878955
1648.000000	5.880351
1647.000000	5.863248
1646.000000	5.866366
1645.000000	5.842942
1644.000000	5.851520
1643.000000	5.826119
1642.000000	5.810549
1641.000000	5.800227
1640.000000	5.804895
1639.000000	5.798983
1638.000000	5.802662
1637.000000	5.782385
1636.000000	5.757112
1635.000000	5.745397
1634.000000	5.747415
1633.000000	5.737155
1632.000000	5.725648
1631.000000	5.700615
1630.000000	5.694905
1629.000000	5.698104
1628.000000	5.680705
1627.000000	5.673630
1626.000000	5.655521
1625.000000	5.644712
1624.000000	5.634738
1623.000000	5.630436
1622.000000	5.619331
1621.000000	5.595985
1620.000000	5.585192
1619.000000	5.571572
1618.000000	5.555437
1617.000000	5.552432
1616.000000	5.528183
1615.000000	5.499644
1614.000000	5.494880
1613.000000	5.489359
1612.000000	5.475213
1611.000000	5.475342
1610.000000	5.466620
1609.000000	5.446093
1608.000000	5.434251
1607.000000	5.413388
1606.000000	5.396648
1605.000000	5.396415
1604.000000	5.375316
1603.000000	5.366326
1602.000000	5.356861
1601.000000	5.354356
1600.000000	5.345540
1599.000000	5.324822
1598.000000	5.319488
1597.000000	5.318871
1596.000000	5.309866
1595.000000	5.297367
1594.000000	5.284621
1593.000000	5.269429
1592.000000	5.258891
1591.000000	5.255026
1590.000000	5.251571
1589.000000	5.238351
1588.000000	5.223968
1587.000000	5.212180
1586.000000	5.191162
1585.000000	5.182591
1584.000000	5.185287
1583.000000	5.187629
1582.000000	5.178017
1581.000000	5.159194
1580.000000	5.153066
1579.000000	5.136660
1578.000000	5.126452
1577.000000	5.123750
1576.000000	5.121291
1575.000000	5.092341
1574.000000	5.073268
1573.000000	5.069782
1572.000000	5.068815
1571.000000	5.068709
1570.000000	5.051807
1569.000000	5.038414
1568.000000	5.028065
1567.000000	5.017605
1566.000000	5.008322
1565.000000	5.001707
1564.000000	4.975398
1563.000000	4.970354
1562.000000	4.956977
1561.000000	4.950270
1560.000000	4.945067
1559.000000	4.928261
1558.000000	4.919681
1557.000000	4.927664
1556.000000	4.910432
1555.000000	4.896578
1554.000000	4.885319
1553.000000	4.879452
1552.000000	4.869101
1551.000000	4.858243
1550.000000	4.841896
1549.000000	4.825368
1548.000000	4.809644
1547.000000	4.794399
1546.000000	4.778901
1545.000000	4.765536
1544.000000	4.738849
1543.000000	4.720207
1542.000000	4.696037
1541.000000	4.678688
1540.000000	4.670940
1539.000000	4.634057
1538.000000	4.608103
1537.000000	4.600605
1536.000000	4.566472
1535.000000	4.540958
1534.000000	4.524742
1533.000000	4.516745
1532.000000	4.501508
1531.000000	4.495687
1530.000000	4.498321
1529.000000	4.534737
1528.000000	4.555693
1527.000000	4.541030
1526.000000	4.509079
1525.000000	4.480418
1524.000000	4.435193
1523.000000	4.419892
1522.000000	4.423541
1521.000000	4.396726
1520.000000	4.385399
1519.000000	4.382182
1518.000000	4.373665
1517.000000	4.340198
1516.000000	4.334914
1515.000000	4.344775
1514.000000	4.335509
1513.000000	4.336039
1512.000000	4.334370
1511.000000	4.319251
1510.000000	4.306047
1509.000000	4.310318
1508.000000	4.303090
1507.000000	4.294119
1506.000000	4.269927
1505.000000	4.266577
1504.000000	4.256160
1503.000000	4.256571
1502.000000	4.257518
1501.000000	4.259912
1500.000000	4.246956
1499.000000	4.236716
1498.000000	4.249951
1497.000000	4.256873
1496.000000	4.248520
1495.000000	4.252965
1494.000000	4.245878
1493.000000	4.249054
1492.000000	4.250113
1491.000000	4.260605
1490.000000	4.263821
1489.000000	4.273105
1488.000000	4.289437
1487.000000	4.277171
1486.000000	4.271923
1485.000000	4.268643
1484.000000	4.302531
1483.000000	4.300211
1482.000000	4.310337
1481.000000	4.304328
1480.000000	4.301925
1479.000000	4.293294
1478.000000	4.302226
1477.000000	4.313476
1476.000000	4.313286
1475.000000	4.312097
1474.000000	4.304030
1473.000000	4.300791
1472.000000	4.302868
1471.000000	4.302447
1470.000000	4.309775
1469.000000	4.303641
1468.000000	4.311276
1467.000000	4.339961
1466.000000	4.360786
1465.000000	4.337693
1464.000000	4.322086
1463.000000	4.317963
1462.000000	4.351897
1461.000000	4.376844
1460.000000	4.372690
1459.000000	4.365665
1458.000000	4.393571
1457.000000	4.400260
1456.000000	4.399508
1455.000000	4.388830
1454.000000	4.385972
1453.000000	4.385335
1452.000000	4.414555
1451.000000	4.442782
1450.000000	4.434678
1449.000000	4.427871
1448.000000	4.446370
1447.000000	4.452468
1446.000000	4.458117
1445.000000	4.500687
1444.000000	4.529267
1443.000000	4.542989
1442.000000	4.548708
1441.000000	4.548923
1440.000000	4.563194
1439.000000	4.582133
1438.000000	4.598785
1437.000000	4.601086
1436.000000	4.629646
1435.000000	4.646188
1434.000000	4.660497
1433.000000	4.689516
1432.000000	4.711366
1431.000000	4.744335
1430.000000	4.768111
1429.000000	4.803909
1428.000000	4.832857
1427.000000	4.867325
1426.000000	4.900004
1425.000000	4.932548
1424.000000	4.979090
1423.000000	4.999555
1422.000000	5.030901
1421.000000	5.074529
1420.000000	5.095438
1419.000000	5.127920
1418.000000	5.176399
1417.000000	5.206477
1416.000000	5.248106
1415.000000	5.294303
1414.000000	5.335971
1413.000000	5.365058
1412.000000	5.401515
1411.000000	5.459922
1410.000000	5.500824
1409.000000	5.557783
1408.000000	5.603703
1407.000000	5.638396
1406.000000	5.664203
1405.000000	5.700098
1404.000000	5.750002
1403.000000	5.792982
1402.000000	5.843396
1401.000000	5.894430
1400.000000	5.932969
1399.000000	5.961304
1398.000000	5.980528
1397.000000	5.990690
1396.000000	6.026226
1395.000000	6.066625
1394.000000	6.100057
1393.000000	6.131836
1392.000000	6.158714
1391.000000	6.196301
1390.000000	6.218029
1389.000000	6.228095
1388.000000	6.274558
1387.000000	6.326843
1386.000000	6.343102
1385.000000	6.344289
1384.000000	6.351827
1383.000000	6.373486
1382.000000	6.410033
1381.000000	6.420426
1380.000000	6.431200
1379.000000	6.461769
1378.000000	6.466637
1377.000000	6.457460
1376.000000	6.467701
1375.000000	6.495156
1374.000000	6.506475
1373.000000	6.510292
1372.000000	6.515915
1371.000000	6.514575
1370.000000	6.518301
1369.000000	6.535977
1368.000000	6.546957
1367.000000	6.561245
1366.000000	6.577311
1365.000000	6.602611
1364.000000	6.637197
1363.000000	6.642771
1362.000000	6.625716
1361.000000	6.631556
1360.000000	6.638942
1359.000000	6.621796
1358.000000	6.616745
1357.000000	6.648964
1356.000000	6.666539
1355.000000	6.648265
1354.000000	6.641435
1353.000000	6.667205
1352.000000	6.687899
1351.000000	6.658789
1350.000000	6.653296
1349.000000	6.669198
1348.000000	6.686783
1347.000000	6.683983
1346.000000	6.693682
1345.000000	6.700894
1344.000000	6.688039
1343.000000	6.694255
1342.000000	6.714485
1341.000000	6.724616
1340.000000	6.712993
1339.000000	6.713606
1338.000000	6.713240
1337.000000	6.731932
1336.000000	6.747706
1335.000000	6.745677
1334.000000	6.734560
1333.000000	6.737518
1332.000000	6.734972
1331.000000	6.746848
1330.000000	6.760739
1329.000000	6.754129
1328.000000	6.736479
1327.000000	6.747905
1326.000000	6.754870
1325.000000	6.745001
1324.000000	6.744381
1323.000000	6.749514
1322.000000	6.743881
1321.000000	6.753685
1320.000000	6.757873
1319.000000	6.742408
1318.000000	6.735807
1317.000000	6.726548
1316.000000	6.723631
1315.000000	6.725999
1314.000000	6.721657
1313.000000	6.714021
1312.000000	6.722977
1311.000000	6.742284
1310.000000	6.717718
1309.000000	6.729246
1308.000000	6.744003
1307.000000	6.725625
1306.000000	6.708797
1305.000000	6.696690
1304.000000	6.725324
1303.000000	6.741696
1302.000000	6.738798
1301.000000	6.723707
1300.000000	6.718789
1299.000000	6.712877
1298.000000	6.706459
1297.000000	6.693045
1296.000000	6.709709
1295.000000	6.719293
1294.000000	6.715575
1293.000000	6.718381
1292.000000	6.729400
1291.000000	6.731858
1290.000000	6.727541
1289.000000	6.750047
1288.000000	6.728053
1287.000000	6.720785
1286.000000	6.683123
1285.000000	6.680984
1284.000000	6.670033
1283.000000	6.671360
1282.000000	6.681461
1281.000000	6.680599
1280.000000	6.700984
1279.000000	6.680777
1278.000000	6.677624
1277.000000	6.685163
1276.000000	6.676640
1275.000000	6.661249
1274.000000	6.643876
1273.000000	6.646363
1272.000000	6.637827
1271.000000	6.640141
1270.000000	6.622468
1269.000000	6.621265
1268.000000	6.611767
1267.000000	6.632843
1266.000000	6.617832
1265.000000	6.583581
1264.000000	6.621850
1263.000000	6.631957
1262.000000	6.624382
1261.000000	6.614060
1260.000000	6.606897
1259.000000	6.583510
1258.000000	6.629076
1257.000000	6.618048
1256.000000	6.610105
1255.000000	6.622077
1254.000000	6.597936
1253.000000	6.601321
1252.000000	6.616433
1251.000000	6.608687
1250.000000	6.604999
1249.000000	6.587470
1248.000000	6.595167
1247.000000	6.616847
1246.000000	6.610981
1245.000000	6.605817
1244.000000	6.610709
1243.000000	6.612771
1242.000000	6.605588
1241.000000	6.590498
1240.000000	6.584464
1239.000000	6.576614
1238.000000	6.595408
1237.000000	6.554337
1236.000000	6.548187
1235.000000	6.547991
1234.000000	6.553353
1233.000000	6.518777
1232.000000	6.516196
1231.000000	6.522342
1230.000000	6.521198
1229.000000	6.476436
1228.000000	6.486573
1227.000000	6.481188
1226.000000	6.479286
1225.000000	6.466391
1224.000000	6.483057
1223.000000	6.480597
1222.000000	6.461553
1221.000000	6.436578
1220.000000	6.411922
1219.000000	6.394921
1218.000000	6.386208
1217.000000	6.389721
1216.000000	6.375734
1215.000000	6.352591
1214.000000	6.344165
1213.000000	6.343349
1212.000000	6.353738
1211.000000	6.329590
1210.000000	6.303164
1209.000000	6.310158
1208.000000	6.310218
1207.000000	6.314543
1206.000000	6.304767
1205.000000	6.270978
1204.000000	6.237640
1203.000000	6.233586
1202.000000	6.252710
1201.000000	6.257551
1200.000000	6.242563
1199.000000	6.242381
1198.000000	6.247919
1197.000000	6.230782
1196.000000	6.216532
1195.000000	6.215420
1194.000000	6.195898
1193.000000	6.189023
1192.000000	6.191273
1191.000000	6.191459
1190.000000	6.164457
1189.000000	6.126980
1188.000000	6.131201
1187.000000	6.146961
1186.000000	6.132011
1185.000000	6.112907
1184.000000	6.126264
1183.000000	6.140225
1182.000000	6.147365
1181.000000	6.151359
1180.000000	6.154749
1179.000000	6.175271
1178.000000	6.186995
1177.000000	6.199045
1176.000000	6.210930
1175.000000	6.227760
1174.000000	6.230854
1173.000000	6.251840
1172.000000	6.258251
1171.000000	6.259086
1170.000000	6.277391
1169.000000	6.287145
1168.000000	6.280964
1167.000000	6.289704
1166.000000	6.302697
1165.000000	6.311762
1164.000000	6.324508
1163.000000	6.335476
1162.000000	6.349063
1161.000000	6.362021
1160.000000	6.369879
1159.000000	6.388844
1158.000000	6.381166
1157.000000	6.366396
1156.000000	6.376247
1155.000000	6.388140
1154.000000	6.394679
1153.000000	6.410655
1152.000000	6.446108
1151.000000	6.461270
1150.000000	6.459371
1149.000000	6.466615
1148.000000	6.477767
1147.000000	6.478155
1146.000000	6.488203
1145.000000	6.510327
1144.000000	6.506587
1143.000000	6.506709
1142.000000	6.500698
1141.000000	6.487996
1140.000000	6.507369
1139.000000	6.524159
1138.000000	6.520168
1137.000000	6.540265
1136.000000	6.552464
1135.000000	6.548572
1134.000000	6.553759
1133.000000	6.559875
1132.000000	6.558005
1131.000000	6.562145
1130.000000	6.570609
1129.000000	6.559269
1128.000000	6.545709
1127.000000	6.555294
1126.000000	6.552768
1125.000000	6.556343
1124.000000	6.567595
1123.000000	6.572319
1122.000000	6.584502
1121.000000	6.582598
1120.000000	6.575167
1119.000000	6.568007
1118.000000	6.567016
1117.000000	6.567749
1116.000000	6.572638
1115.000000	6.576763
1114.000000	6.561354
1113.000000	6.562272
1112.000000	6.558287
1111.000000	6.562352
1110.000000	6.558247
1109.000000	6.562131
1108.000000	6.579796
1107.000000	6.579860
1106.000000	6.579869
1105.000000	6.564534
1104.000000	6.570622
1103.000000	6.543373
1102.000000	6.530532
1101.000000	6.534187
1100.000000	6.536869
1099.000000	6.537933
1098.000000	6.546800
1097.000000	6.549756
1096.000000	6.560796
1095.000000	6.560288
1094.000000	6.532845
1093.000000	6.527095
1092.000000	6.530117
1091.000000	6.531534
1090.000000	6.535872
1089.000000	6.537227
1088.000000	6.539056
1087.000000	6.518756
1086.000000	6.513084
1085.000000	6.507020
1084.000000	6.518820
1083.000000	6.532055
1082.000000	6.533120
1081.000000	6.518534
1080.000000	6.506235
1079.000000	6.516600
1078.000000	6.508740
1077.000000	6.512573
1076.000000	6.509842
1075.000000	6.525111
1074.000000	6.502073
1073.000000	6.484387
1072.000000	6.462967
1071.000000	6.470734
1070.000000	6.500664
1069.000000	6.502076
1068.000000	6.498347
1067.000000	6.509043
1066.000000	6.462777
1065.000000	6.458810
1064.000000	6.476444
1063.000000	6.483769
1062.000000	6.491126
1061.000000	6.478580
1060.000000	6.500453
1059.000000	6.447644
1058.000000	6.465137
1057.000000	6.449881
1056.000000	6.469429
1055.000000	6.471048
1054.000000	6.472898
1053.000000	6.445014
1052.000000	6.446293
1051.000000	6.434424
1050.000000	6.458341
1049.000000	6.472287
1048.000000	6.412910
1047.000000	6.447604
1046.000000	6.447274
1045.000000	6.454033
1044.000000	6.428550
1043.000000	6.407455
1042.000000	6.427243
1041.000000	6.442216
1040.000000	6.441320
1039.000000	6.417536
1038.000000	6.408346
1037.000000	6.418312
1036.000000	6.439948
1035.000000	6.406829
1034.000000	6.408607
1033.000000	6.437530
1032.000000	6.440328
1031.000000	6.423252
1030.000000	6.419365
1029.000000	6.424523
1028.000000	6.435169
1027.000000	6.416367
1026.000000	6.410676
1025.000000	6.428165
1024.000000	6.430482
1023.000000	6.419692
1022.000000	6.412899
1021.000000	6.418466
1020.000000	6.396598
1019.000000	6.400479
1018.000000	6.417202
1017.000000	6.418224
1016.000000	6.431366
1015.000000	6.424435
1014.000000	6.428778
1013.000000	6.411603
1012.000000	6.413083
1011.000000	6.420887
1010.000000	6.414744
1009.000000	6.415711
1008.000000	6.412502
1007.000000	6.397445
1006.000000	6.415821
1005.000000	6.423816
1004.000000	6.409896
1003.000000	6.418174
1002.000000	6.413582
1001.000000	6.406418
1000.000000	6.415165
999.000000	6.422704
998.000000	6.434515
997.000000	6.442603
996.000000	6.427486
995.000000	6.421497
994.000000	6.410120
993.000000	6.418318
992.000000	6.425888
991.000000	6.442075
990.000000	6.441783
989.000000	6.446849
988.000000	6.449344
987.000000	6.454966
986.000000	6.471569
985.000000	6.491856
984.000000	6.508550
983.000000	6.514645
982.000000	6.511454
981.000000	6.505533
980.000000	6.505392
979.000000	6.530443
978.000000	6.537016
977.000000	6.533520
976.000000	6.541577
975.000000	6.525766
974.000000	6.529384
973.000000	6.542098
972.000000	6.537880
971.000000	6.543244
970.000000	6.534689
969.000000	6.542286
968.000000	6.536731
967.000000	6.546856
966.000000	6.556892
965.000000	6.539184
964.000000	6.535144
963.000000	6.538435
962.000000	6.527943
961.000000	6.528573
960.000000	6.527317
959.000000	6.525299
958.000000	6.526790
957.000000	6.526200
956.000000	6.529882
955.000000	6.531945
954.000000	6.516391
953.000000	6.506550
952.000000	6.511524
951.000000	6.518270
950.000000	6.509520
949.000000	6.515662
948.000000	6.516633
947.000000	6.517818
946.000000	6.532161
945.000000	6.527941
944.000000	6.508894
943.000000	6.504282
942.000000	6.514828
941.000000	6.511083
940.000000	6.509543
939.000000	6.520845
938.000000	6.506842
937.000000	6.483101
936.000000	6.477995
935.000000	6.467658
934.000000	6.471700
933.000000	6.474623
932.000000	6.482342
931.000000	6.481037
930.000000	6.463992
929.000000	6.450700
928.000000	6.439319
927.000000	6.436780
926.000000	6.430545
925.000000	6.416514
924.000000	6.429678
923.000000	6.467273
922.000000	6.474004
921.000000	6.438868
920.000000	6.421978
919.000000	6.425652
918.000000	6.418036
917.000000	6.409973
916.000000	6.410831
915.000000	6.421492
914.000000	6.435016
913.000000	6.446122
912.000000	6.424040
911.000000	6.418907
910.000000	6.405951
909.000000	6.402664
908.000000	6.423025
907.000000	6.438404
906.000000	6.424630
905.000000	6.404187
904.000000	6.392829
903.000000	6.398704
902.000000	6.416227
901.000000	6.422295
900.000000	6.385300
899.000000	6.380264
898.000000	6.410022
897.000000	6.427232
896.000000	6.412286
895.000000	6.376638
894.000000	6.426135
893.000000	6.428912
892.000000	6.386680
891.000000	6.397969
890.000000	6.374608
889.000000	6.353983
888.000000	6.375224
887.000000	6.326895
886.000000	6.286373
885.000000	6.346257
884.000000	6.363174
883.000000	6.311410
882.000000	6.330511
881.000000	6.316768
880.000000	6.389877
879.000000	6.353297
878.000000	6.329816
877.000000	6.345823
876.000000	6.363994
875.000000	6.291103
874.000000	6.335840
873.000000	6.325037
872.000000	6.282835
871.000000	6.307541
870.000000	6.276590
869.000000	6.231760
868.000000	6.193271
867.000000	6.305978
866.000000	6.257641
865.000000	6.284786
864.000000	6.382549
863.000000	6.248354
862.000000	6.156927
861.000000	6.100603
860.000000	6.244784
859.000000	6.099661
858.000000	6.104787
857.000000	6.098396
856.000000	6.118909
855.000000	6.144271
854.000000	6.099401
853.000000	6.064263
852.000000	6.109869
851.000000	6.068320
850.000000	6.037989
849.000000	6.058071
848.000000	6.027465
847.000000	6.069356
846.000000	6.008501
845.000000	5.988613
844.000000	5.953359
843.000000	6.025551
842.000000	5.986623
841.000000	5.969103
840.000000	5.948787
839.000000	5.939485
838.000000	5.923786
837.000000	5.941302
836.000000	5.901579
835.000000	5.905772
834.000000	5.902515
833.000000	5.907467
832.000000	5.843490
831.000000	5.870488
830.000000	5.881543
829.000000	5.807589
828.000000	5.826062
827.000000	5.821439
826.000000	5.786337
825.000000	5.784602
824.000000	5.771962
823.000000	5.770382
822.000000	5.759607
821.000000	5.757318
820.000000	5.732825
819.000000	5.727764
818.000000	5.743415
817.000000	5.695682
816.000000	5.684804
815.000000	5.668085
814.000000	5.654699
813.000000	5.657273
812.000000	5.657855
811.000000	5.647250
810.000000	5.628544
809.000000	5.654542
808.000000	5.644433
807.000000	5.660430
806.000000	5.635503
805.000000	5.639730
804.000000	5.611865
803.000000	5.579800
802.000000	5.588673
801.000000	5.587677
800.000000	5.546013
799.000000	5.542941
798.000000	5.548969
797.000000	5.547859
796.000000	5.511581
795.000000	5.493839
794.000000	5.481481
793.000000	5.447822
792.000000	5.455282
791.000000	5.466197
790.000000	5.447763
789.000000	5.451327
788.000000	5.406716
787.000000	5.399063
786.000000	5.404678
785.000000	5.381812
784.000000	5.370910
783.000000	5.356342
782.000000	5.328542
781.000000	5.341931
780.000000	5.310863
779.000000	5.316329
778.000000	5.287332
777.000000	5.258894
776.000000	5.263812
775.000000	5.253471
774.000000	5.237593
773.000000	5.241634
772.000000	5.229187
771.000000	5.193015
770.000000	5.186060
769.000000	5.190087
768.000000	5.179080
767.000000	5.164152
766.000000	5.148330
765.000000	5.133616
764.000000	5.108591
763.000000	5.090243
762.000000	5.100886
761.000000	5.080097
760.000000	5.071412
759.000000	5.064740
758.000000	5.033207
757.000000	5.030529
756.000000	5.005525
755.000000	4.998302
754.000000	4.982870
753.000000	4.965581
752.000000	4.964959
751.000000	4.937454
750.000000	4.924144
749.000000	4.911594
748.000000	4.892649
747.000000	4.881712
746.000000	4.870641
745.000000	4.858644
744.000000	4.832856
743.000000	4.820773
742.000000	4.798700
741.000000	4.790844
740.000000	4.782777
739.000000	4.764521
738.000000	4.737597
737.000000	4.726712
736.000000	4.710369
735.000000	4.698708
734.000000	4.678639
733.000000	4.661289
732.000000	4.651743
731.000000	4.638889
730.000000	4.627302
729.000000	4.604847
728.000000	4.588928
727.000000	4.576800
726.000000	4.561010
725.000000	4.547378
724.000000	4.535381
723.000000	4.525707
722.000000	4.503705
721.000000	4.481307
720.000000	4.473572
719.000000	4.448852
718.000000	4.430152
717.000000	4.414384
716.000000	4.392140
715.000000	4.378667
714.000000	4.362223
713.000000	4.339094
712.000000	4.313028
711.000000	4.299588
710.000000	4.290950
709.000000	4.274610
708.000000	4.259194
707.000000	4.243516
706.000000	4.224996
705.000000	4.214704
704.000000	4.198915
703.000000	4.181523
702.000000	4.165822
701.000000	4.145891
700.000000	4.126048
699.000000	4.106178
698.000000	4.093640
697.000000	4.077904
696.000000	4.066569
695.000000	4.045789
694.000000	4.014762
693.000000	3.998609
692.000000	3.982736
691.000000	3.964286
690.000000	3.950575
689.000000	3.926996
688.000000	3.896562
687.000000	3.874825
686.000000	3.860874
685.000000	3.847182
684.000000	3.826819
683.000000	3.812601
682.000000	3.793521
681.000000	3.776114
680.000000	3.755232
679.000000	3.742469
678.000000	3.724539
677.000000	3.701565
676.000000	3.683560
675.000000	3.662691
674.000000	3.644762
673.000000	3.633696
672.000000	3.614631
671.000000	3.599377
670.000000	3.582260
669.000000	3.559374
668.000000	3.540727
667.000000	3.524038
666.000000	3.503709
665.000000	3.487410
664.000000	3.467791
663.000000	3.450214
662.000000	3.429179
661.000000	3.411972
660.000000	3.397385
659.000000	3.382632
658.000000	3.357770
657.000000	3.339958
656.000000	3.326112
655.000000	3.310628
654.000000	3.292846
653.000000	3.270990
652.000000	3.248191
651.000000	3.228256
650.000000	3.207834
649.000000	3.191786
648.000000	3.176219
647.000000	3.161770
646.000000	3.137823
645.000000	3.115174
644.000000	3.103149
643.000000	3.085138
642.000000	3.068919
641.000000	3.045487
640.000000	3.021951
639.000000	3.004277
638.000000	2.985783
637.000000	2.972112
636.000000	2.957961
635.000000	2.935728
634.000000	2.912264
633.000000	2.895987
632.000000	2.873777
631.000000	2.862751
630.000000	2.843220
629.000000	2.823487
628.000000	2.802554
627.000000	2.788783
626.000000	2.774387
625.000000	2.752776
624.000000	2.739393
623.000000	2.715277
622.000000	2.697910
621.000000	2.676233
620.000000	2.661169
619.000000	2.642123
618.000000	2.627386
617.000000	2.610780
616.000000	2.593303
615.000000	2.573775
614.000000	2.554836
613.000000	2.541625
612.000000	2.516221
611.000000	2.504711
610.000000	2.483963
609.000000	2.466132
608.000000	2.446765
607.000000	2.439033
606.000000	2.414458
605.000000	2.392827
604.000000	2.375674
603.000000	2.359271
602.000000	2.344513
601.000000	2.322721
600.000000	2.303818
599.000000	2.288335
598.000000	2.269840
597.000000	2.255643
596.000000	2.237923
595.000000	2.222224
594.000000	2.203633
593.000000	2.189308
592.000000	2.165523
591.000000	2.153936
590.000000	2.127604
589.000000	2.116788
588.000000	2.103016
587.000000	2.079066
586.000000	2.064640
585.000000	2.045906
584.000000	2.030135
583.000000	2.014609
582.000000	2.004448
581.000000	1.981238
580.000000	1.965191
579.000000	1.945793
578.000000	1.936483
577.000000	1.917067
576.000000	1.901131
575.000000	1.883045
574.000000	1.861984
573.000000	1.846228
572.000000	1.825157
571.000000	1.819765
570.000000	1.801273
569.000000	1.783782
568.000000	1.763964
567.000000	1.745983
566.000000	1.736227
565.000000	1.722569
564.000000	1.704480
563.000000	1.683982
562.000000	1.667179
561.000000	1.668421
560.000000	1.645718
559.000000	1.635743
558.000000	1.623976
557.000000	1.609040
556.000000	1.592081
555.000000	1.578043
554.000000	1.551948
553.000000	1.543034
552.000000	1.532095
551.000000	1.523221
550.000000	1.503891
549.000000	1.484934
548.000000	1.471075
547.000000	1.456206
546.000000	1.439196
545.000000	1.429024
544.000000	1.410160
543.000000	1.392559
542.000000	1.376227
541.000000	1.364789
540.000000	1.353200
539.000000	1.335533
538.000000	1.320899
537.000000	1.310294
536.000000	1.294380
535.000000	1.275009
534.000000	1.266263
533.000000	1.259783
532.000000	1.236109
531.000000	1.222759
530.000000	1.215798
529.000000	1.209088
528.000000	1.186491
527.000000	1.170467
526.000000	1.153682
525.000000	1.138120
524.000000	1.117502
523.000000	1.104981
522.000000	1.101572
521.000000	1.087059
520.000000	1.076782
519.000000	1.063004
518.000000	1.043261
517.000000	1.030302
516.000000	1.015213
515.000000	1.001025
514.000000	0.990130
513.000000	0.975229
512.000000	0.964657
511.000000	0.956079
510.000000	0.943991
509.000000	0.931870
508.000000	0.916547
507.000000	0.910482
506.000000	0.898762
505.000000	0.880192
504.000000	0.869022
503.000000	0.862020
502.000000	0.849613
501.000000	0.835068
500.000000	0.822379
499.000000	0.813004
498.000000	0.800518
497.000000	0.790039
496.000000	0.776765
495.000000	0.763958
494.000000	0.752454
493.000000	0.745250
492.000000	0.737773
491.000000	0.729043
490.000000	0.718779
489.000000	0.709481
488.000000	0.701364
487.000000	0.692763
486.000000	0.683132
485.000000	0.676568
484.000000	0.668414
483.000000	0.661709
482.000000	0.652668
481.000000	0.640891
480.000000	0.632982
479.000000	0.621740
478.000000	0.608815
477.000000	0.597967
476.000000	0.587631
475.000000	0.578113
474.000000	0.570781
473.000000	0.562827
472.000000	0.551329
471.000000	0.542161
470.000000	0.532912
469.000000	0.522581
468.000000	0.514629
467.000000	0.506375
466.000000	0.496543
465.000000	0.486309
464.000000	0.475289
463.000000	0.467151
462.000000	0.458926
461.000000	0.448805
460.000000	0.439892
459.000000	0.429855
458.000000	0.420813
457.000000	0.414324
456.000000	0.406373
455.000000	0.396944
454.000000	0.388817
453.000000	0.380888
452.000000	0.372805
451.000000	0.366380
450.000000	0.362210
449.000000	0.356861
448.000000	0.346584
447.000000	0.337037
446.000000	0.334793
445.000000	0.332648
444.000000	0.328434
443.000000	0.320392
442.000000	0.311243
441.000000	0.302517
440.000000	0.294442
439.000000	0.289469
438.000000	0.285990
437.000000	0.278952
436.000000	0.271548
435.000000	0.263847
434.000000	0.256853
433.000000	0.253832
432.000000	0.251093
431.000000	0.245623
430.000000	0.237350
429.000000	0.227677
428.000000	0.222944
427.000000	0.220743
426.000000	0.216363
425.000000	0.209625
424.000000	0.203054
423.000000	0.197355
422.000000	0.192673
421.000000	0.187273
420.000000	0.183938
419.000000	0.179556
418.000000	0.175290
417.000000	0.169325
416.000000	0.164671
415.000000	0.159628
414.000000	0.157758
413.000000	0.150503
412.000000	0.147481
411.000000	0.139602
410.000000	0.135404
409.000000	0.133354
408.000000	0.132391
407.000000	0.127829
406.000000	0.121595
405.000000	0.112981
404.000000	0.113528
403.000000	0.111173
402.000000	0.108138
401.000000	0.102366
400.000000	0.097250
399.000000	0.095842
398.000000	0.090420
397.000000	0.092217
396.000000	0.088281
395.000000	0.085280
394.000000	0.082196
393.000000	0.078376
392.000000	0.072265
391.000000	0.072744
390.000000	0.071891
389.000000	0.066612
388.000000	0.066740
387.000000	0.062496
386.000000	0.059056
385.000000	0.058893
384.000000	0.058138
383.000000	0.054298
382.000000	0.053617
381.000000	0.046846
380.000000	0.044121
379.000000	0.044750
378.000000	0.047061
377.000000	0.065588
376.000000	0.067903
375.000000	0.064874
374.000000	0.064702
373.000000	0.056023
372.000000	0.052200
371.000000	0.046988
370.000000	0.047870
369.000000	0.043162
368.000000	0.042652
367.000000	0.040536
366.000000	0.034043
365.000000	0.032280
364.000000	0.031776
363.000000	0.023700
362.000000	0.028703
361.000000	0.025924
360.000000	0.029989
359.000000	0.026433
358.000000	0.022569
357.000000	0.022288
356.000000	0.021448
355.000000	0.020410
354.000000	0.020116
353.000000	0.015155
352.000000	0.018721
351.000000	0.018356
350.000000	0.018521
349.000000	0.018060
348.000000	0.017861
347.000000	0.016357
346.000000	0.016269
345.000000	0.017298
344.000000	0.025085
343.000000	0.008600
342.000000	0.014844
341.000000	0.012887
340.000000	0.012985
339.000000	0.011693
338.000000	0.009136
337.000000	0.010545
336.000000	0.014625
335.000000	0.012698
334.000000	0.013137
333.000000	0.011625
332.000000	0.009108
331.000000	0.001116
330.000000	0.013303
329.000000	0.013762
328.000000	0.000651
327.000000	0.000372
326.000000	0.011996
325.000000	0.007059
324.000000	0.000558
323.000000	0.005393
322.000000	0.009018
321.000000	-0.001117
320.000000	0.011956
319.000000	0.013089
318.000000	0.013565
317.000000	0.011256
316.000000	0.015131
315.000000	0.016070
314.000000	0.018353
313.000000	0.016030
312.000000	0.014479
311.000000	0.011046
310.000000	0.010242
309.000000	0.014297
308.000000	0.015409
307.000000	0.012346
306.000000	0.010344
305.000000	0.010059
304.000000	0.011280
303.000000	0.005824
302.000000	0.012279
301.000000	0.008222
300.000000	0.011008
299.000000	0.008876
298.000000	0.011722
297.000000	0.011643
296.000000	0.014051
295.000000	0.011458
294.000000	0.015082
293.000000	0.011081
292.000000	0.003045
291.000000	0.009422
290.000000	0.016318
289.000000	0.011051
288.000000	0.012145
287.000000	0.013179
286.000000	0.012441
285.000000	0.012155
284.000000	0.018801
283.000000	0.014942
282.000000	0.013211
281.000000	0.012023
280.000000	0.013421
279.000000	0.017433
278.000000	0.018300
277.000000	0.015985
276.000000	0.017517
275.000000	0.013077
274.000000	0.016594
273.000000	0.019219
272.000000	0.018997
271.000000	0.018606
270.000000	0.018399
269.000000	0.016363
268.000000	0.017955
267.000000	0.022654
266.000000	0.028479
265.000000	0.024391
264.000000	0.023591
263.000000	0.023838
262.000000	0.026979
261.000000	0.026633
260.000000	0.029116
259.000000	0.026658
258.000000	0.025112
257.000000	0.025233
256.000000	0.024733
255.000000	0.026199
254.000000	0.024717
253.000000	0.020529
252.000000	0.023472
251.000000	0.024467
250.000000	0.023417
249.000000	0.027124
248.000000	0.025195
247.000000	0.020199
246.000000	0.019225
245.000000	0.018339
244.000000	0.019869
243.000000	0.025868
242.000000	0.025195
241.000000	0.014535
240.000000	0.014936
239.000000	0.014197
238.000000	0.013143
237.000000	0.017747
236.000000	0.016821
235.000000	0.007537
234.000000	0.005617
233.000000	0.003607
232.000000	0.005597
231.000000	0.007076
230.000000	0.007173
229.000000	0.001494
228.000000	-0.001593
227.000000	-0.002388
226.000000	-0.007067
225.000000	-0.005892
224.000000	-0.007406
223.000000	-0.012635
222.000000	-0.010974
221.000000	-0.011797
220.000000	-0.017384
219.000000	-0.016882
218.000000	-0.021192
217.000000	-0.015150
216.000000	-0.004488
215.000000	-0.010235
214.000000	-0.017785
213.000000	-0.022396
212.000000	-0.014984
211.000000	-0.008008
210.000000	-0.009294
209.000000	-0.017507
208.000000	-0.025683
207.000000	-0.032796
206.000000	-0.029123
205.000000	-0.021135
204.000000	-0.025592
203.000000	-0.052862
202.000000	-0.050355
201.000000	-0.055154
200.000000	-0.069128
