PE IR       SUBTECH     SPECTRUM    ASCII       PEDS        4.00        
   -1
Peau028_1.ASC
23/06/14
15:10:05.00
23/06/14
15:12:57.00
uco
Sample 028 By uco Date Wednesday, June 14 2023
450.000000
#HDR
-1
-1
#GR
cm-1
A
1.0
0.0
4000.000000
-1.000000
3551
8
0.039954
0.005074
#DATA
4000.000000	0.005211
3999.000000	0.005237
3998.000000	0.005257
3997.000000	0.005257
3996.000000	0.005255
3995.000000	0.005255
3994.000000	0.005263
3993.000000	0.005277
3992.000000	0.005287
3991.000000	0.005289
3990.000000	0.005290
3989.000000	0.005296
3988.000000	0.005311
3987.000000	0.005324
3986.000000	0.005327
3985.000000	0.005316
3984.000000	0.005297
3983.000000	0.005283
3982.000000	0.005283
3981.000000	0.005297
3980.000000	0.005318
3979.000000	0.005337
3978.000000	0.005347
3977.000000	0.005349
3976.000000	0.005348
3975.000000	0.005347
3974.000000	0.005347
3973.000000	0.005348
3972.000000	0.005351
3971.000000	0.005356
3970.000000	0.005362
3969.000000	0.005365
3968.000000	0.005365
3967.000000	0.005365
3966.000000	0.005369
3965.000000	0.005376
3964.000000	0.005382
3963.000000	0.005381
3962.000000	0.005376
3961.000000	0.005377
3960.000000	0.005391
3959.000000	0.005417
3958.000000	0.005445
3957.000000	0.005460
3956.000000	0.005456
3955.000000	0.005436
3954.000000	0.005407
3953.000000	0.005379
3952.000000	0.005357
3951.000000	0.005345
3950.000000	0.005347
3949.000000	0.005360
3948.000000	0.005378
3947.000000	0.005395
3946.000000	0.005409
3945.000000	0.005425
3944.000000	0.005445
3943.000000	0.005465
3942.000000	0.005478
3941.000000	0.005484
3940.000000	0.005487
3939.000000	0.005492
3938.000000	0.005495
3937.000000	0.005491
3936.000000	0.005477
3935.000000	0.005454
3934.000000	0.005431
3933.000000	0.005417
3932.000000	0.005418
3931.000000	0.005429
3930.000000	0.005441
3929.000000	0.005447
3928.000000	0.005449
3927.000000	0.005452
3926.000000	0.005455
3925.000000	0.005455
3924.000000	0.005448
3923.000000	0.005440
3922.000000	0.005440
3921.000000	0.005451
3920.000000	0.005472
3919.000000	0.005497
3918.000000	0.005517
3917.000000	0.005525
3916.000000	0.005519
3915.000000	0.005509
3914.000000	0.005504
3913.000000	0.005508
3912.000000	0.005518
3911.000000	0.005522
3910.000000	0.005513
3909.000000	0.005494
3908.000000	0.005474
3907.000000	0.005464
3906.000000	0.005467
3905.000000	0.005477
3904.000000	0.005483
3903.000000	0.005479
3902.000000	0.005467
3901.000000	0.005450
3900.000000	0.005436
3899.000000	0.005432
3898.000000	0.005441
3897.000000	0.005461
3896.000000	0.005485
3895.000000	0.005509
3894.000000	0.005535
3893.000000	0.005560
3892.000000	0.005576
3891.000000	0.005575
3890.000000	0.005564
3889.000000	0.005558
3888.000000	0.005561
3887.000000	0.005562
3886.000000	0.005550
3885.000000	0.005531
3884.000000	0.005523
3883.000000	0.005533
3882.000000	0.005552
3881.000000	0.005561
3880.000000	0.005551
3879.000000	0.005534
3878.000000	0.005531
3877.000000	0.005547
3876.000000	0.005571
3875.000000	0.005585
3874.000000	0.005581
3873.000000	0.005567
3872.000000	0.005555
3871.000000	0.005539
3870.000000	0.005514
3869.000000	0.005489
3868.000000	0.005486
3867.000000	0.005503
3866.000000	0.005519
3865.000000	0.005515
3864.000000	0.005495
3863.000000	0.005477
3862.000000	0.005473
3861.000000	0.005484
3860.000000	0.005501
3859.000000	0.005515
3858.000000	0.005520
3857.000000	0.005521
3856.000000	0.005529
3855.000000	0.005547
3854.000000	0.005561
3853.000000	0.005560
3852.000000	0.005550
3851.000000	0.005540
3850.000000	0.005532
3849.000000	0.005527
3848.000000	0.005527
3847.000000	0.005535
3846.000000	0.005551
3845.000000	0.005570
3844.000000	0.005588
3843.000000	0.005603
3842.000000	0.005617
3841.000000	0.005633
3840.000000	0.005645
3839.000000	0.005645
3838.000000	0.005626
3837.000000	0.005594
3836.000000	0.005562
3835.000000	0.005542
3834.000000	0.005534
3833.000000	0.005532
3832.000000	0.005531
3831.000000	0.005532
3830.000000	0.005541
3829.000000	0.005560
3828.000000	0.005583
3827.000000	0.005599
3826.000000	0.005605
3825.000000	0.005612
3824.000000	0.005631
3823.000000	0.005654
3822.000000	0.005659
3821.000000	0.005637
3820.000000	0.005609
3819.000000	0.005600
3818.000000	0.005608
3817.000000	0.005610
3816.000000	0.005588
3815.000000	0.005557
3814.000000	0.005549
3813.000000	0.005570
3812.000000	0.005600
3811.000000	0.005621
3810.000000	0.005633
3809.000000	0.005644
3808.000000	0.005653
3807.000000	0.005652
3806.000000	0.005640
3805.000000	0.005625
3804.000000	0.005611
3803.000000	0.005593
3802.000000	0.005567
3801.000000	0.005545
3800.000000	0.005550
3799.000000	0.005581
3798.000000	0.005617
3797.000000	0.005634
3796.000000	0.005625
3795.000000	0.005606
3794.000000	0.005592
3793.000000	0.005589
3792.000000	0.005592
3791.000000	0.005598
3790.000000	0.005602
3789.000000	0.005606
3788.000000	0.005611
3787.000000	0.005623
3786.000000	0.005640
3785.000000	0.005659
3784.000000	0.005676
3783.000000	0.005688
3782.000000	0.005696
3781.000000	0.005697
3780.000000	0.005688
3779.000000	0.005673
3778.000000	0.005659
3777.000000	0.005651
3776.000000	0.005642
3775.000000	0.005626
3774.000000	0.005602
3773.000000	0.005583
3772.000000	0.005578
3771.000000	0.005586
3770.000000	0.005600
3769.000000	0.005610
3768.000000	0.005613
3767.000000	0.005609
3766.000000	0.005601
3765.000000	0.005598
3764.000000	0.005606
3763.000000	0.005624
3762.000000	0.005640
3761.000000	0.005639
3760.000000	0.005623
3759.000000	0.005600
3758.000000	0.005578
3757.000000	0.005553
3756.000000	0.005521
3755.000000	0.005482
3754.000000	0.005441
3753.000000	0.005407
3752.000000	0.005390
3751.000000	0.005394
3750.000000	0.005405
3749.000000	0.005410
3748.000000	0.005418
3747.000000	0.005444
3746.000000	0.005490
3745.000000	0.005524
3744.000000	0.005516
3743.000000	0.005482
3742.000000	0.005452
3741.000000	0.005431
3740.000000	0.005416
3739.000000	0.005408
3738.000000	0.005410
3737.000000	0.005416
3736.000000	0.005414
3735.000000	0.005399
3734.000000	0.005381
3733.000000	0.005368
3732.000000	0.005359
3731.000000	0.005359
3730.000000	0.005375
3729.000000	0.005412
3728.000000	0.005463
3727.000000	0.005511
3726.000000	0.005544
3725.000000	0.005561
3724.000000	0.005564
3723.000000	0.005556
3722.000000	0.005546
3721.000000	0.005545
3720.000000	0.005554
3719.000000	0.005565
3718.000000	0.005567
3717.000000	0.005559
3716.000000	0.005548
3715.000000	0.005540
3714.000000	0.005539
3713.000000	0.005542
3712.000000	0.005549
3711.000000	0.005552
3710.000000	0.005541
3709.000000	0.005507
3708.000000	0.005458
3707.000000	0.005409
3706.000000	0.005375
3705.000000	0.005363
3704.000000	0.005366
3703.000000	0.005372
3702.000000	0.005375
3701.000000	0.005373
3700.000000	0.005372
3699.000000	0.005371
3698.000000	0.005367
3697.000000	0.005355
3696.000000	0.005341
3695.000000	0.005332
3694.000000	0.005329
3693.000000	0.005315
3692.000000	0.005276
3691.000000	0.005213
3690.000000	0.005156
3689.000000	0.005136
3688.000000	0.005158
3687.000000	0.005202
3686.000000	0.005246
3685.000000	0.005281
3684.000000	0.005310
3683.000000	0.005343
3682.000000	0.005383
3681.000000	0.005418
3680.000000	0.005429
3679.000000	0.005413
3678.000000	0.005382
3677.000000	0.005345
3676.000000	0.005303
3675.000000	0.005267
3674.000000	0.005247
3673.000000	0.005250
3672.000000	0.005266
3671.000000	0.005277
3670.000000	0.005279
3669.000000	0.005278
3668.000000	0.005282
3667.000000	0.005291
3666.000000	0.005299
3665.000000	0.005306
3664.000000	0.005313
3663.000000	0.005319
3662.000000	0.005323
3661.000000	0.005328
3660.000000	0.005343
3659.000000	0.005378
3658.000000	0.005429
3657.000000	0.005476
3656.000000	0.005502
3655.000000	0.005509
3654.000000	0.005512
3653.000000	0.005522
3652.000000	0.005534
3651.000000	0.005546
3650.000000	0.005565
3649.000000	0.005597
3648.000000	0.005638
3647.000000	0.005673
3646.000000	0.005694
3645.000000	0.005702
3644.000000	0.005701
3643.000000	0.005696
3642.000000	0.005694
3641.000000	0.005705
3640.000000	0.005736
3639.000000	0.005782
3638.000000	0.005831
3637.000000	0.005869
3636.000000	0.005891
3635.000000	0.005896
3634.000000	0.005883
3633.000000	0.005862
3632.000000	0.005851
3631.000000	0.005863
3630.000000	0.005902
3629.000000	0.005958
3628.000000	0.006022
3627.000000	0.006089
3626.000000	0.006156
3625.000000	0.006205
3624.000000	0.006219
3623.000000	0.006192
3622.000000	0.006143
3621.000000	0.006106
3620.000000	0.006114
3619.000000	0.006174
3618.000000	0.006255
3617.000000	0.006314
3616.000000	0.006338
3615.000000	0.006339
3614.000000	0.006342
3613.000000	0.006360
3612.000000	0.006389
3611.000000	0.006415
3610.000000	0.006431
3609.000000	0.006443
3608.000000	0.006456
3607.000000	0.006473
3606.000000	0.006493
3605.000000	0.006517
3604.000000	0.006543
3603.000000	0.006573
3602.000000	0.006607
3601.000000	0.006641
3600.000000	0.006670
3599.000000	0.006694
3598.000000	0.006718
3597.000000	0.006743
3596.000000	0.006770
3595.000000	0.006797
3594.000000	0.006826
3593.000000	0.006861
3592.000000	0.006901
3591.000000	0.006941
3590.000000	0.006975
3589.000000	0.006999
3588.000000	0.007017
3587.000000	0.007036
3586.000000	0.007062
3585.000000	0.007101
3584.000000	0.007150
3583.000000	0.007207
3582.000000	0.007263
3581.000000	0.007313
3580.000000	0.007347
3579.000000	0.007366
3578.000000	0.007379
3577.000000	0.007396
3576.000000	0.007424
3575.000000	0.007456
3574.000000	0.007485
3573.000000	0.007505
3572.000000	0.007518
3571.000000	0.007529
3570.000000	0.007549
3569.000000	0.007591
3568.000000	0.007657
3567.000000	0.007737
3566.000000	0.007812
3565.000000	0.007870
3564.000000	0.007910
3563.000000	0.007932
3562.000000	0.007941
3561.000000	0.007948
3560.000000	0.007965
3559.000000	0.007996
3558.000000	0.008039
3557.000000	0.008085
3556.000000	0.008130
3555.000000	0.008176
3554.000000	0.008225
3553.000000	0.008276
3552.000000	0.008327
3551.000000	0.008369
3550.000000	0.008397
3549.000000	0.008409
3548.000000	0.008410
3547.000000	0.008414
3546.000000	0.008433
3545.000000	0.008473
3544.000000	0.008525
3543.000000	0.008574
3542.000000	0.008611
3541.000000	0.008638
3540.000000	0.008661
3539.000000	0.008686
3538.000000	0.008716
3537.000000	0.008754
3536.000000	0.008800
3535.000000	0.008847
3534.000000	0.008887
3533.000000	0.008915
3532.000000	0.008930
3531.000000	0.008938
3530.000000	0.008946
3529.000000	0.008963
3528.000000	0.008992
3527.000000	0.009033
3526.000000	0.009083
3525.000000	0.009141
3524.000000	0.009202
3523.000000	0.009255
3522.000000	0.009290
3521.000000	0.009306
3520.000000	0.009312
3519.000000	0.009320
3518.000000	0.009337
3517.000000	0.009360
3516.000000	0.009383
3515.000000	0.009404
3514.000000	0.009423
3513.000000	0.009445
3512.000000	0.009477
3511.000000	0.009519
3510.000000	0.009569
3509.000000	0.009620
3508.000000	0.009668
3507.000000	0.009706
3506.000000	0.009734
3505.000000	0.009754
3504.000000	0.009767
3503.000000	0.009775
3502.000000	0.009778
3501.000000	0.009783
3500.000000	0.009797
3499.000000	0.009825
3498.000000	0.009866
3497.000000	0.009915
3496.000000	0.009964
3495.000000	0.010008
3494.000000	0.010046
3493.000000	0.010082
3492.000000	0.010120
3491.000000	0.010159
3490.000000	0.010189
3489.000000	0.010205
3488.000000	0.010208
3487.000000	0.010207
3486.000000	0.010218
3485.000000	0.010243
3484.000000	0.010277
3483.000000	0.010310
3482.000000	0.010337
3481.000000	0.010360
3480.000000	0.010384
3479.000000	0.010411
3478.000000	0.010441
3477.000000	0.010471
3476.000000	0.010501
3475.000000	0.010530
3474.000000	0.010563
3473.000000	0.010597
3472.000000	0.010627
3471.000000	0.010650
3470.000000	0.010667
3469.000000	0.010686
3468.000000	0.010709
3467.000000	0.010735
3466.000000	0.010757
3465.000000	0.010775
3464.000000	0.010789
3463.000000	0.010803
3462.000000	0.010817
3461.000000	0.010828
3460.000000	0.010840
3459.000000	0.010859
3458.000000	0.010888
3457.000000	0.010926
3456.000000	0.010968
3455.000000	0.011008
3454.000000	0.011044
3453.000000	0.011074
3452.000000	0.011099
3451.000000	0.011115
3450.000000	0.011124
3449.000000	0.011132
3448.000000	0.011148
3447.000000	0.011177
3446.000000	0.011219
3445.000000	0.011267
3444.000000	0.011316
3443.000000	0.011362
3442.000000	0.011404
3441.000000	0.011441
3440.000000	0.011469
3439.000000	0.011491
3438.000000	0.011511
3437.000000	0.011533
3436.000000	0.011555
3435.000000	0.011576
3434.000000	0.011596
3433.000000	0.011621
3432.000000	0.011650
3431.000000	0.011679
3430.000000	0.011698
3429.000000	0.011708
3428.000000	0.011718
3427.000000	0.011740
3426.000000	0.011780
3425.000000	0.011829
3424.000000	0.011877
3423.000000	0.011920
3422.000000	0.011958
3421.000000	0.011993
3420.000000	0.012026
3419.000000	0.012058
3418.000000	0.012096
3417.000000	0.012143
3416.000000	0.012195
3415.000000	0.012244
3414.000000	0.012283
3413.000000	0.012311
3412.000000	0.012333
3411.000000	0.012352
3410.000000	0.012371
3409.000000	0.012397
3408.000000	0.012431
3407.000000	0.012467
3406.000000	0.012496
3405.000000	0.012512
3404.000000	0.012517
3403.000000	0.012521
3402.000000	0.012536
3401.000000	0.012573
3400.000000	0.012631
3399.000000	0.012697
3398.000000	0.012756
3397.000000	0.012804
3396.000000	0.012844
3395.000000	0.012880
3394.000000	0.012913
3393.000000	0.012942
3392.000000	0.012966
3391.000000	0.012986
3390.000000	0.013002
3389.000000	0.013015
3388.000000	0.013025
3387.000000	0.013033
3386.000000	0.013047
3385.000000	0.013072
3384.000000	0.013112
3383.000000	0.013160
3382.000000	0.013205
3381.000000	0.013238
3380.000000	0.013258
3379.000000	0.013278
3378.000000	0.013304
3377.000000	0.013341
3376.000000	0.013385
3375.000000	0.013433
3374.000000	0.013480
3373.000000	0.013522
3372.000000	0.013558
3371.000000	0.013590
3370.000000	0.013622
3369.000000	0.013658
3368.000000	0.013699
3367.000000	0.013741
3366.000000	0.013780
3365.000000	0.013816
3364.000000	0.013853
3363.000000	0.013898
3362.000000	0.013952
3361.000000	0.014014
3360.000000	0.014078
3359.000000	0.014140
3358.000000	0.014198
3357.000000	0.014249
3356.000000	0.014292
3355.000000	0.014330
3354.000000	0.014372
3353.000000	0.014425
3352.000000	0.014491
3351.000000	0.014562
3350.000000	0.014625
3349.000000	0.014678
3348.000000	0.014726
3347.000000	0.014780
3346.000000	0.014847
3345.000000	0.014924
3344.000000	0.015002
3343.000000	0.015075
3342.000000	0.015139
3341.000000	0.015195
3340.000000	0.015245
3339.000000	0.015292
3338.000000	0.015344
3337.000000	0.015404
3336.000000	0.015467
3335.000000	0.015519
3334.000000	0.015552
3333.000000	0.015568
3332.000000	0.015580
3331.000000	0.015598
3330.000000	0.015627
3329.000000	0.015669
3328.000000	0.015718
3327.000000	0.015767
3326.000000	0.015812
3325.000000	0.015850
3324.000000	0.015887
3323.000000	0.015924
3322.000000	0.015963
3321.000000	0.016003
3320.000000	0.016045
3319.000000	0.016089
3318.000000	0.016132
3317.000000	0.016172
3316.000000	0.016206
3315.000000	0.016239
3314.000000	0.016274
3313.000000	0.016311
3312.000000	0.016344
3311.000000	0.016370
3310.000000	0.016386
3309.000000	0.016391
3308.000000	0.016387
3307.000000	0.016378
3306.000000	0.016377
3305.000000	0.016389
3304.000000	0.016418
3303.000000	0.016460
3302.000000	0.016508
3301.000000	0.016556
3300.000000	0.016593
3299.000000	0.016610
3298.000000	0.016606
3297.000000	0.016591
3296.000000	0.016581
3295.000000	0.016590
3294.000000	0.016621
3293.000000	0.016662
3292.000000	0.016701
3291.000000	0.016732
3290.000000	0.016761
3289.000000	0.016791
3288.000000	0.016815
3287.000000	0.016826
3286.000000	0.016818
3285.000000	0.016797
3284.000000	0.016771
3283.000000	0.016751
3282.000000	0.016740
3281.000000	0.016737
3280.000000	0.016733
3279.000000	0.016717
3278.000000	0.016690
3277.000000	0.016659
3276.000000	0.016631
3275.000000	0.016612
3274.000000	0.016601
3273.000000	0.016592
3272.000000	0.016582
3271.000000	0.016569
3270.000000	0.016557
3269.000000	0.016548
3268.000000	0.016536
3267.000000	0.016512
3266.000000	0.016472
3265.000000	0.016422
3264.000000	0.016376
3263.000000	0.016346
3262.000000	0.016339
3261.000000	0.016349
3260.000000	0.016364
3259.000000	0.016367
3258.000000	0.016347
3257.000000	0.016310
3256.000000	0.016269
3255.000000	0.016234
3254.000000	0.016203
3253.000000	0.016173
3252.000000	0.016141
3251.000000	0.016113
3250.000000	0.016092
3249.000000	0.016075
3248.000000	0.016058
3247.000000	0.016037
3246.000000	0.016012
3245.000000	0.015986
3244.000000	0.015965
3243.000000	0.015949
3242.000000	0.015937
3241.000000	0.015920
3240.000000	0.015889
3239.000000	0.015844
3238.000000	0.015794
3237.000000	0.015748
3236.000000	0.015706
3235.000000	0.015665
3234.000000	0.015627
3233.000000	0.015602
3232.000000	0.015587
3231.000000	0.015574
3230.000000	0.015551
3229.000000	0.015520
3228.000000	0.015496
3227.000000	0.015492
3226.000000	0.015505
3225.000000	0.015518
3224.000000	0.015516
3223.000000	0.015491
3222.000000	0.015450
3221.000000	0.015401
3220.000000	0.015356
3219.000000	0.015324
3218.000000	0.015308
3217.000000	0.015302
3216.000000	0.015297
3215.000000	0.015289
3214.000000	0.015279
3213.000000	0.015264
3212.000000	0.015237
3211.000000	0.015193
3210.000000	0.015141
3209.000000	0.015096
3208.000000	0.015066
3207.000000	0.015050
3206.000000	0.015041
3205.000000	0.015032
3204.000000	0.015015
3203.000000	0.014988
3202.000000	0.014955
3201.000000	0.014927
3200.000000	0.014910
3199.000000	0.014904
3198.000000	0.014897
3197.000000	0.014879
3196.000000	0.014847
3195.000000	0.014807
3194.000000	0.014768
3193.000000	0.014736
3192.000000	0.014707
3191.000000	0.014675
3190.000000	0.014640
3189.000000	0.014608
3188.000000	0.014583
3187.000000	0.014560
3186.000000	0.014528
3185.000000	0.014487
3184.000000	0.014446
3183.000000	0.014413
3182.000000	0.014388
3181.000000	0.014366
3180.000000	0.014344
3179.000000	0.014320
3178.000000	0.014289
3177.000000	0.014245
3176.000000	0.014183
3175.000000	0.014108
3174.000000	0.014033
3173.000000	0.013975
3172.000000	0.013942
3171.000000	0.013929
3170.000000	0.013921
3169.000000	0.013900
3168.000000	0.013860
3167.000000	0.013809
3166.000000	0.013761
3165.000000	0.013723
3164.000000	0.013693
3163.000000	0.013664
3162.000000	0.013635
3161.000000	0.013603
3160.000000	0.013569
3159.000000	0.013532
3158.000000	0.013491
3157.000000	0.013449
3156.000000	0.013412
3155.000000	0.013385
3154.000000	0.013367
3153.000000	0.013350
3152.000000	0.013327
3151.000000	0.013294
3150.000000	0.013254
3149.000000	0.013212
3148.000000	0.013171
3147.000000	0.013134
3146.000000	0.013104
3145.000000	0.013080
3144.000000	0.013058
3143.000000	0.013035
3142.000000	0.013010
3141.000000	0.012988
3140.000000	0.012968
3139.000000	0.012945
3138.000000	0.012918
3137.000000	0.012888
3136.000000	0.012857
3135.000000	0.012823
3134.000000	0.012789
3133.000000	0.012755
3132.000000	0.012728
3131.000000	0.012717
3130.000000	0.012723
3129.000000	0.012736
3128.000000	0.012739
3127.000000	0.012719
3126.000000	0.012677
3125.000000	0.012631
3124.000000	0.012598
3123.000000	0.012584
3122.000000	0.012589
3121.000000	0.012600
3120.000000	0.012601
3119.000000	0.012585
3118.000000	0.012560
3117.000000	0.012542
3116.000000	0.012543
3115.000000	0.012558
3114.000000	0.012572
3113.000000	0.012577
3112.000000	0.012577
3111.000000	0.012581
3110.000000	0.012594
3109.000000	0.012611
3108.000000	0.012623
3107.000000	0.012627
3106.000000	0.012629
3105.000000	0.012633
3104.000000	0.012638
3103.000000	0.012642
3102.000000	0.012645
3101.000000	0.012650
3100.000000	0.012655
3099.000000	0.012659
3098.000000	0.012661
3097.000000	0.012667
3096.000000	0.012674
3095.000000	0.012679
3094.000000	0.012680
3093.000000	0.012684
3092.000000	0.012703
3091.000000	0.012741
3090.000000	0.012791
3089.000000	0.012835
3088.000000	0.012855
3087.000000	0.012844
3086.000000	0.012816
3085.000000	0.012797
3084.000000	0.012803
3083.000000	0.012832
3082.000000	0.012862
3081.000000	0.012875
3080.000000	0.012870
3079.000000	0.012859
3078.000000	0.012861
3077.000000	0.012883
3076.000000	0.012918
3075.000000	0.012949
3074.000000	0.012966
3073.000000	0.012971
3072.000000	0.012973
3071.000000	0.012977
3070.000000	0.012979
3069.000000	0.012974
3068.000000	0.012967
3067.000000	0.012963
3066.000000	0.012965
3065.000000	0.012971
3064.000000	0.012977
3063.000000	0.012978
3062.000000	0.012970
3061.000000	0.012949
3060.000000	0.012914
3059.000000	0.012868
3058.000000	0.012819
3057.000000	0.012776
3056.000000	0.012742
3055.000000	0.012714
3054.000000	0.012687
3053.000000	0.012663
3052.000000	0.012644
3051.000000	0.012629
3050.000000	0.012612
3049.000000	0.012587
3048.000000	0.012549
3047.000000	0.012501
3046.000000	0.012443
3045.000000	0.012377
3044.000000	0.012308
3043.000000	0.012251
3042.000000	0.012220
3041.000000	0.012217
3040.000000	0.012227
3039.000000	0.012226
3038.000000	0.012201
3037.000000	0.012155
3036.000000	0.012103
3035.000000	0.012055
3034.000000	0.012015
3033.000000	0.011979
3032.000000	0.011942
3031.000000	0.011898
3030.000000	0.011846
3029.000000	0.011792
3028.000000	0.011742
3027.000000	0.011700
3026.000000	0.011663
3025.000000	0.011623
3024.000000	0.011577
3023.000000	0.011525
3022.000000	0.011468
3021.000000	0.011408
3020.000000	0.011344
3019.000000	0.011281
3018.000000	0.011222
3017.000000	0.011172
3016.000000	0.011129
3015.000000	0.011094
3014.000000	0.011065
3013.000000	0.011037
3012.000000	0.011002
3011.000000	0.010961
3010.000000	0.010924
3009.000000	0.010898
3008.000000	0.010880
3007.000000	0.010855
3006.000000	0.010813
3005.000000	0.010764
3004.000000	0.010727
3003.000000	0.010718
3002.000000	0.010733
3001.000000	0.010750
3000.000000	0.010748
2999.000000	0.010728
2998.000000	0.010708
2997.000000	0.010711
2996.000000	0.010740
2995.000000	0.010784
2994.000000	0.010824
2993.000000	0.010848
2992.000000	0.010852
2991.000000	0.010844
2990.000000	0.010846
2989.000000	0.010880
2988.000000	0.010954
2987.000000	0.011056
2986.000000	0.011165
2985.000000	0.011271
2984.000000	0.011379
2983.000000	0.011495
2982.000000	0.011623
2981.000000	0.011753
2980.000000	0.011874
2979.000000	0.011980
2978.000000	0.012077
2977.000000	0.012178
2976.000000	0.012295
2975.000000	0.012433
2974.000000	0.012591
2973.000000	0.012760
2972.000000	0.012930
2971.000000	0.013101
2970.000000	0.013282
2969.000000	0.013481
2968.000000	0.013697
2967.000000	0.013917
2966.000000	0.014131
2965.000000	0.014338
2964.000000	0.014538
2963.000000	0.014723
2962.000000	0.014885
2961.000000	0.015023
2960.000000	0.015139
2959.000000	0.015238
2958.000000	0.015312
2957.000000	0.015354
2956.000000	0.015362
2955.000000	0.015346
2954.000000	0.015323
2953.000000	0.015306
2952.000000	0.015300
2951.000000	0.015298
2950.000000	0.015294
2949.000000	0.015287
2948.000000	0.015281
2947.000000	0.015284
2946.000000	0.015310
2945.000000	0.015371
2944.000000	0.015471
2943.000000	0.015602
2942.000000	0.015753
2941.000000	0.015911
2940.000000	0.016077
2939.000000	0.016256
2938.000000	0.016454
2937.000000	0.016666
2936.000000	0.016876
2935.000000	0.017068
2934.000000	0.017242
2933.000000	0.017403
2932.000000	0.017553
2931.000000	0.017683
2930.000000	0.017788
2929.000000	0.017875
2928.000000	0.017958
2927.000000	0.018046
2926.000000	0.018130
2925.000000	0.018198
2924.000000	0.018238
2923.000000	0.018251
2922.000000	0.018245
2921.000000	0.018229
2920.000000	0.018199
2919.000000	0.018142
2918.000000	0.018039
2917.000000	0.017878
2916.000000	0.017659
2915.000000	0.017388
2914.000000	0.017080
2913.000000	0.016751
2912.000000	0.016421
2911.000000	0.016109
2910.000000	0.015829
2909.000000	0.015588
2908.000000	0.015377
2907.000000	0.015180
2906.000000	0.014986
2905.000000	0.014793
2904.000000	0.014602
2903.000000	0.014412
2902.000000	0.014231
2901.000000	0.014068
2900.000000	0.013928
2899.000000	0.013804
2898.000000	0.013682
2897.000000	0.013558
2896.000000	0.013436
2895.000000	0.013319
2894.000000	0.013205
2893.000000	0.013096
2892.000000	0.013001
2891.000000	0.012931
2890.000000	0.012886
2889.000000	0.012856
2888.000000	0.012831
2887.000000	0.012809
2886.000000	0.012796
2885.000000	0.012795
2884.000000	0.012808
2883.000000	0.012834
2882.000000	0.012874
2881.000000	0.012928
2880.000000	0.012993
2879.000000	0.013067
2878.000000	0.013157
2877.000000	0.013267
2876.000000	0.013391
2875.000000	0.013508
2874.000000	0.013596
2873.000000	0.013649
2872.000000	0.013677
2871.000000	0.013688
2870.000000	0.013688
2869.000000	0.013684
2868.000000	0.013688
2867.000000	0.013709
2866.000000	0.013746
2865.000000	0.013794
2864.000000	0.013853
2863.000000	0.013923
2862.000000	0.014000
2861.000000	0.014082
2860.000000	0.014169
2859.000000	0.014262
2858.000000	0.014359
2857.000000	0.014453
2856.000000	0.014535
2855.000000	0.014601
2854.000000	0.014654
2853.000000	0.014693
2852.000000	0.014708
2851.000000	0.014673
2850.000000	0.014567
2849.000000	0.014380
2848.000000	0.014124
2847.000000	0.013822
2846.000000	0.013504
2845.000000	0.013199
2844.000000	0.012927
2843.000000	0.012693
2842.000000	0.012489
2841.000000	0.012312
2840.000000	0.012162
2839.000000	0.012039
2838.000000	0.011934
2837.000000	0.011836
2836.000000	0.011741
2835.000000	0.011653
2834.000000	0.011575
2833.000000	0.011506
2832.000000	0.011445
2831.000000	0.011390
2830.000000	0.011338
2829.000000	0.011286
2828.000000	0.011232
2827.000000	0.011180
2826.000000	0.011136
2825.000000	0.011101
2824.000000	0.011071
2823.000000	0.011045
2822.000000	0.011026
2821.000000	0.011018
2820.000000	0.011019
2819.000000	0.011019
2818.000000	0.011011
2817.000000	0.010994
2816.000000	0.010974
2815.000000	0.010955
2814.000000	0.010937
2813.000000	0.010916
2812.000000	0.010887
2811.000000	0.010848
2810.000000	0.010804
2809.000000	0.010763
2808.000000	0.010731
2807.000000	0.010710
2806.000000	0.010694
2805.000000	0.010680
2804.000000	0.010664
2803.000000	0.010646
2802.000000	0.010624
2801.000000	0.010596
2800.000000	0.010569
2799.000000	0.010549
2798.000000	0.010540
2797.000000	0.010537
2796.000000	0.010533
2795.000000	0.010523
2794.000000	0.010510
2793.000000	0.010501
2792.000000	0.010494
2791.000000	0.010483
2790.000000	0.010462
2789.000000	0.010433
2788.000000	0.010403
2787.000000	0.010375
2786.000000	0.010353
2785.000000	0.010341
2784.000000	0.010343
2783.000000	0.010354
2782.000000	0.010361
2781.000000	0.010350
2780.000000	0.010320
2779.000000	0.010283
2778.000000	0.010254
2777.000000	0.010237
2776.000000	0.010227
2775.000000	0.010213
2774.000000	0.010193
2773.000000	0.010170
2772.000000	0.010156
2771.000000	0.010154
2770.000000	0.010158
2769.000000	0.010157
2768.000000	0.010147
2767.000000	0.010132
2766.000000	0.010115
2765.000000	0.010099
2764.000000	0.010083
2763.000000	0.010071
2762.000000	0.010064
2761.000000	0.010059
2760.000000	0.010049
2759.000000	0.010034
2758.000000	0.010014
2757.000000	0.009991
2756.000000	0.009967
2755.000000	0.009949
2754.000000	0.009940
2753.000000	0.009939
2752.000000	0.009935
2751.000000	0.009926
2750.000000	0.009922
2749.000000	0.009933
2748.000000	0.009953
2747.000000	0.009963
2746.000000	0.009949
2745.000000	0.009915
2744.000000	0.009880
2743.000000	0.009858
2742.000000	0.009851
2741.000000	0.009857
2740.000000	0.009871
2739.000000	0.009887
2738.000000	0.009892
2737.000000	0.009875
2736.000000	0.009843
2735.000000	0.009814
2734.000000	0.009800
2733.000000	0.009801
2732.000000	0.009807
2731.000000	0.009810
2730.000000	0.009807
2729.000000	0.009801
2728.000000	0.009792
2727.000000	0.009782
2726.000000	0.009771
2725.000000	0.009760
2724.000000	0.009749
2723.000000	0.009738
2722.000000	0.009727
2721.000000	0.009715
2720.000000	0.009702
2719.000000	0.009693
2718.000000	0.009690
2717.000000	0.009691
2716.000000	0.009689
2715.000000	0.009677
2714.000000	0.009657
2713.000000	0.009637
2712.000000	0.009627
2711.000000	0.009629
2710.000000	0.009636
2709.000000	0.009634
2708.000000	0.009616
2707.000000	0.009585
2706.000000	0.009554
2705.000000	0.009530
2704.000000	0.009519
2703.000000	0.009518
2702.000000	0.009526
2701.000000	0.009537
2700.000000	0.009545
2699.000000	0.009549
2698.000000	0.009547
2697.000000	0.009542
2696.000000	0.009535
2695.000000	0.009530
2694.000000	0.009532
2693.000000	0.009540
2692.000000	0.009546
2691.000000	0.009542
2690.000000	0.009528
2689.000000	0.009508
2688.000000	0.009488
2687.000000	0.009471
2686.000000	0.009458
2685.000000	0.009450
2684.000000	0.009448
2683.000000	0.009453
2682.000000	0.009461
2681.000000	0.009466
2680.000000	0.009460
2679.000000	0.009443
2678.000000	0.009423
2677.000000	0.009409
2676.000000	0.009407
2675.000000	0.009418
2674.000000	0.009436
2673.000000	0.009447
2672.000000	0.009438
2671.000000	0.009412
2670.000000	0.009382
2669.000000	0.009369
2668.000000	0.009378
2667.000000	0.009398
2666.000000	0.009416
2665.000000	0.009421
2664.000000	0.009416
2663.000000	0.009408
2662.000000	0.009405
2661.000000	0.009409
2660.000000	0.009412
2659.000000	0.009405
2658.000000	0.009391
2657.000000	0.009382
2656.000000	0.009386
2655.000000	0.009397
2654.000000	0.009405
2653.000000	0.009400
2652.000000	0.009383
2651.000000	0.009361
2650.000000	0.009341
2649.000000	0.009326
2648.000000	0.009314
2647.000000	0.009295
2646.000000	0.009265
2645.000000	0.009227
2644.000000	0.009190
2643.000000	0.009164
2642.000000	0.009149
2641.000000	0.009145
2640.000000	0.009145
2639.000000	0.009143
2638.000000	0.009134
2637.000000	0.009118
2636.000000	0.009094
2635.000000	0.009061
2634.000000	0.009020
2633.000000	0.008983
2632.000000	0.008962
2631.000000	0.008961
2630.000000	0.008974
2629.000000	0.008983
2628.000000	0.008978
2627.000000	0.008959
2626.000000	0.008935
2625.000000	0.008912
2624.000000	0.008894
2623.000000	0.008883
2622.000000	0.008878
2621.000000	0.008873
2620.000000	0.008855
2619.000000	0.008821
2618.000000	0.008779
2617.000000	0.008736
2616.000000	0.008698
2615.000000	0.008668
2614.000000	0.008652
2613.000000	0.008649
2612.000000	0.008651
2611.000000	0.008648
2610.000000	0.008645
2609.000000	0.008648
2608.000000	0.008654
2607.000000	0.008653
2606.000000	0.008639
2605.000000	0.008619
2604.000000	0.008601
2603.000000	0.008588
2602.000000	0.008577
2601.000000	0.008564
2600.000000	0.008546
2599.000000	0.008522
2598.000000	0.008502
2597.000000	0.008494
2596.000000	0.008489
2595.000000	0.008469
2594.000000	0.008427
2593.000000	0.008381
2592.000000	0.008350
2591.000000	0.008342
2590.000000	0.008349
2589.000000	0.008363
2588.000000	0.008380
2587.000000	0.008396
2586.000000	0.008400
2585.000000	0.008387
2584.000000	0.008363
2583.000000	0.008344
2582.000000	0.008340
2581.000000	0.008348
2580.000000	0.008355
2579.000000	0.008355
2578.000000	0.008352
2577.000000	0.008353
2576.000000	0.008354
2575.000000	0.008348
2574.000000	0.008334
2573.000000	0.008321
2572.000000	0.008312
2571.000000	0.008302
2570.000000	0.008286
2569.000000	0.008269
2568.000000	0.008256
2567.000000	0.008247
2566.000000	0.008238
2565.000000	0.008226
2564.000000	0.008216
2563.000000	0.008205
2562.000000	0.008191
2561.000000	0.008172
2560.000000	0.008152
2559.000000	0.008143
2558.000000	0.008150
2557.000000	0.008168
2556.000000	0.008181
2555.000000	0.008178
2554.000000	0.008157
2553.000000	0.008127
2552.000000	0.008097
2551.000000	0.008075
2550.000000	0.008063
2549.000000	0.008068
2548.000000	0.008091
2547.000000	0.008130
2546.000000	0.008177
2545.000000	0.008211
2544.000000	0.008219
2543.000000	0.008202
2542.000000	0.008178
2541.000000	0.008157
2540.000000	0.008138
2539.000000	0.008119
2538.000000	0.008110
2537.000000	0.008121
2536.000000	0.008146
2535.000000	0.008167
2534.000000	0.008176
2533.000000	0.008171
2532.000000	0.008156
2531.000000	0.008137
2530.000000	0.008127
2529.000000	0.008140
2528.000000	0.008166
2527.000000	0.008185
2526.000000	0.008188
2525.000000	0.008188
2524.000000	0.008202
2523.000000	0.008234
2522.000000	0.008273
2521.000000	0.008305
2520.000000	0.008311
2519.000000	0.008281
2518.000000	0.008220
2517.000000	0.008155
2516.000000	0.008109
2515.000000	0.008094
2514.000000	0.008107
2513.000000	0.008135
2512.000000	0.008159
2511.000000	0.008169
2510.000000	0.008162
2509.000000	0.008143
2508.000000	0.008121
2507.000000	0.008103
2506.000000	0.008098
2505.000000	0.008100
2504.000000	0.008084
2503.000000	0.008027
2502.000000	0.007945
2501.000000	0.007883
2500.000000	0.007871
2499.000000	0.007901
2498.000000	0.007947
2497.000000	0.007994
2496.000000	0.008033
2495.000000	0.008051
2494.000000	0.008036
2493.000000	0.007992
2492.000000	0.007936
2491.000000	0.007884
2490.000000	0.007843
2489.000000	0.007818
2488.000000	0.007812
2487.000000	0.007817
2486.000000	0.007823
2485.000000	0.007821
2484.000000	0.007814
2483.000000	0.007802
2482.000000	0.007783
2481.000000	0.007750
2480.000000	0.007706
2479.000000	0.007666
2478.000000	0.007648
2477.000000	0.007659
2476.000000	0.007684
2475.000000	0.007702
2474.000000	0.007702
2473.000000	0.007686
2472.000000	0.007658
2471.000000	0.007618
2470.000000	0.007575
2469.000000	0.007549
2468.000000	0.007555
2467.000000	0.007587
2466.000000	0.007618
2465.000000	0.007628
2464.000000	0.007615
2463.000000	0.007598
2462.000000	0.007590
2461.000000	0.007595
2460.000000	0.007601
2459.000000	0.007598
2458.000000	0.007593
2457.000000	0.007601
2456.000000	0.007624
2455.000000	0.007647
2454.000000	0.007652
2453.000000	0.007633
2452.000000	0.007608
2451.000000	0.007604
2450.000000	0.007631
2449.000000	0.007677
2448.000000	0.007712
2447.000000	0.007720
2446.000000	0.007705
2445.000000	0.007684
2444.000000	0.007669
2443.000000	0.007660
2442.000000	0.007655
2441.000000	0.007650
2440.000000	0.007639
2439.000000	0.007621
2438.000000	0.007606
2437.000000	0.007605
2436.000000	0.007612
2435.000000	0.007604
2434.000000	0.007573
2433.000000	0.007539
2432.000000	0.007533
2431.000000	0.007555
2430.000000	0.007579
2429.000000	0.007578
2428.000000	0.007550
2427.000000	0.007518
2426.000000	0.007505
2425.000000	0.007512
2424.000000	0.007521
2423.000000	0.007515
2422.000000	0.007491
2421.000000	0.007457
2420.000000	0.007425
2419.000000	0.007408
2418.000000	0.007409
2417.000000	0.007420
2416.000000	0.007424
2415.000000	0.007416
2414.000000	0.007406
2413.000000	0.007411
2412.000000	0.007431
2411.000000	0.007456
2410.000000	0.007472
2409.000000	0.007476
2408.000000	0.007463
2407.000000	0.007438
2406.000000	0.007413
2405.000000	0.007398
2404.000000	0.007391
2403.000000	0.007385
2402.000000	0.007382
2401.000000	0.007390
2400.000000	0.007409
2399.000000	0.007430
2398.000000	0.007445
2397.000000	0.007451
2396.000000	0.007450
2395.000000	0.007441
2394.000000	0.007420
2393.000000	0.007390
2392.000000	0.007366
2391.000000	0.007362
2390.000000	0.007386
2389.000000	0.007423
2388.000000	0.007450
2387.000000	0.007452
2386.000000	0.007433
2385.000000	0.007399
2384.000000	0.007347
2383.000000	0.007279
2382.000000	0.007207
2381.000000	0.007146
2380.000000	0.007108
2379.000000	0.007101
2378.000000	0.007134
2377.000000	0.007207
2376.000000	0.007297
2375.000000	0.007371
2374.000000	0.007410
2373.000000	0.007411
2372.000000	0.007383
2371.000000	0.007345
2370.000000	0.007320
2369.000000	0.007306
2368.000000	0.007286
2367.000000	0.007266
2366.000000	0.007278
2365.000000	0.007340
2364.000000	0.007421
2363.000000	0.007484
2362.000000	0.007517
2361.000000	0.007524
2360.000000	0.007504
2359.000000	0.007465
2358.000000	0.007428
2357.000000	0.007412
2356.000000	0.007433
2355.000000	0.007496
2354.000000	0.007553
2353.000000	0.007549
2352.000000	0.007495
2351.000000	0.007459
2350.000000	0.007473
2349.000000	0.007521
2348.000000	0.007565
2347.000000	0.007562
2346.000000	0.007520
2345.000000	0.007512
2344.000000	0.007581
2343.000000	0.007686
2342.000000	0.007753
2341.000000	0.007746
2340.000000	0.007691
2339.000000	0.007644
2338.000000	0.007626
2337.000000	0.007628
2336.000000	0.007632
2335.000000	0.007627
2334.000000	0.007594
2333.000000	0.007523
2332.000000	0.007443
2331.000000	0.007406
2330.000000	0.007439
2329.000000	0.007533
2328.000000	0.007671
2327.000000	0.007830
2326.000000	0.007972
2325.000000	0.008058
2324.000000	0.008069
2323.000000	0.008020
2322.000000	0.007955
2321.000000	0.007923
2320.000000	0.007945
2319.000000	0.008000
2318.000000	0.008039
2317.000000	0.008023
2316.000000	0.007941
2315.000000	0.007816
2314.000000	0.007691
2313.000000	0.007613
2312.000000	0.007602
2311.000000	0.007636
2310.000000	0.007663
2309.000000	0.007643
2308.000000	0.007572
2307.000000	0.007483
2306.000000	0.007422
2305.000000	0.007416
2304.000000	0.007450
2303.000000	0.007485
2302.000000	0.007492
2301.000000	0.007474
2300.000000	0.007452
2299.000000	0.007448
2298.000000	0.007471
2297.000000	0.007515
2296.000000	0.007558
2295.000000	0.007573
2294.000000	0.007557
2293.000000	0.007534
2292.000000	0.007526
2291.000000	0.007534
2290.000000	0.007547
2289.000000	0.007550
2288.000000	0.007543
2287.000000	0.007530
2286.000000	0.007525
2285.000000	0.007541
2284.000000	0.007569
2283.000000	0.007582
2282.000000	0.007562
2281.000000	0.007515
2280.000000	0.007453
2279.000000	0.007382
2278.000000	0.007310
2277.000000	0.007261
2276.000000	0.007260
2275.000000	0.007297
2274.000000	0.007343
2273.000000	0.007374
2272.000000	0.007376
2271.000000	0.007345
2270.000000	0.007282
2269.000000	0.007205
2268.000000	0.007142
2267.000000	0.007122
2266.000000	0.007154
2265.000000	0.007219
2264.000000	0.007272
2263.000000	0.007283
2262.000000	0.007270
2261.000000	0.007277
2260.000000	0.007312
2259.000000	0.007327
2258.000000	0.007280
2257.000000	0.007183
2256.000000	0.007090
2255.000000	0.007047
2254.000000	0.007064
2253.000000	0.007115
2252.000000	0.007146
2251.000000	0.007106
2250.000000	0.007001
2249.000000	0.006906
2248.000000	0.006892
2247.000000	0.006965
2246.000000	0.007082
2245.000000	0.007203
2244.000000	0.007304
2243.000000	0.007347
2242.000000	0.007294
2241.000000	0.007159
2240.000000	0.007008
2239.000000	0.006907
2238.000000	0.006886
2237.000000	0.006930
2236.000000	0.006993
2235.000000	0.007017
2234.000000	0.006972
2233.000000	0.006902
2232.000000	0.006880
2231.000000	0.006934
2230.000000	0.007008
2229.000000	0.007027
2228.000000	0.006971
2227.000000	0.006877
2226.000000	0.006785
2225.000000	0.006712
2224.000000	0.006665
2223.000000	0.006658
2222.000000	0.006700
2221.000000	0.006776
2220.000000	0.006856
2219.000000	0.006906
2218.000000	0.006897
2217.000000	0.006820
2216.000000	0.006708
2215.000000	0.006636
2214.000000	0.006671
2213.000000	0.006804
2212.000000	0.006954
2211.000000	0.007041
2210.000000	0.007048
2209.000000	0.006994
2208.000000	0.006889
2207.000000	0.006748
2206.000000	0.006613
2205.000000	0.006530
2204.000000	0.006508
2203.000000	0.006526
2202.000000	0.006561
2201.000000	0.006592
2200.000000	0.006582
2199.000000	0.006515
2198.000000	0.006436
2197.000000	0.006424
2196.000000	0.006504
2195.000000	0.006637
2194.000000	0.006776
2193.000000	0.006896
2192.000000	0.006970
2191.000000	0.006964
2190.000000	0.006881
2189.000000	0.006769
2188.000000	0.006684
2187.000000	0.006652
2186.000000	0.006670
2185.000000	0.006707
2184.000000	0.006697
2183.000000	0.006588
2182.000000	0.006413
2181.000000	0.006282
2180.000000	0.006276
2179.000000	0.006372
2178.000000	0.006493
2177.000000	0.006567
2176.000000	0.006554
2175.000000	0.006471
2174.000000	0.006383
2173.000000	0.006351
2172.000000	0.006362
2171.000000	0.006369
2170.000000	0.006389
2169.000000	0.006494
2168.000000	0.006688
2167.000000	0.006863
2166.000000	0.006914
2165.000000	0.006868
2164.000000	0.006846
2163.000000	0.006906
2162.000000	0.006976
2161.000000	0.006914
2160.000000	0.006619
2159.000000	0.006134
2158.000000	0.005638
2157.000000	0.005314
2156.000000	0.005186
2155.000000	0.005166
2154.000000	0.005192
2153.000000	0.005260
2152.000000	0.005366
2151.000000	0.005472
2150.000000	0.005555
2149.000000	0.005628
2148.000000	0.005712
2147.000000	0.005808
2146.000000	0.005900
2145.000000	0.005966
2144.000000	0.005981
2143.000000	0.005950
2142.000000	0.005920
2141.000000	0.005952
2140.000000	0.006060
2139.000000	0.006197
2138.000000	0.006298
2137.000000	0.006305
2136.000000	0.006195
2135.000000	0.006025
2134.000000	0.005927
2133.000000	0.005995
2132.000000	0.006185
2131.000000	0.006360
2130.000000	0.006436
2129.000000	0.006441
2128.000000	0.006439
2127.000000	0.006461
2126.000000	0.006502
2125.000000	0.006553
2124.000000	0.006596
2123.000000	0.006609
2122.000000	0.006596
2121.000000	0.006586
2120.000000	0.006599
2119.000000	0.006625
2118.000000	0.006647
2117.000000	0.006682
2116.000000	0.006755
2115.000000	0.006859
2114.000000	0.006954
2113.000000	0.006998
2112.000000	0.006978
2111.000000	0.006909
2110.000000	0.006826
2109.000000	0.006762
2108.000000	0.006725
2107.000000	0.006705
2106.000000	0.006701
2105.000000	0.006724
2104.000000	0.006778
2103.000000	0.006839
2102.000000	0.006865
2101.000000	0.006826
2100.000000	0.006723
2099.000000	0.006604
2098.000000	0.006529
2097.000000	0.006521
2096.000000	0.006548
2095.000000	0.006575
2094.000000	0.006609
2093.000000	0.006668
2092.000000	0.006726
2091.000000	0.006725
2090.000000	0.006654
2089.000000	0.006564
2088.000000	0.006511
2087.000000	0.006499
2086.000000	0.006507
2085.000000	0.006519
2084.000000	0.006536
2083.000000	0.006563
2082.000000	0.006610
2081.000000	0.006671
2080.000000	0.006706
2079.000000	0.006677
2078.000000	0.006606
2077.000000	0.006564
2076.000000	0.006587
2075.000000	0.006633
2074.000000	0.006653
2073.000000	0.006647
2072.000000	0.006650
2071.000000	0.006661
2070.000000	0.006649
2069.000000	0.006604
2068.000000	0.006557
2067.000000	0.006547
2066.000000	0.006581
2065.000000	0.006621
2064.000000	0.006608
2063.000000	0.006523
2062.000000	0.006415
2061.000000	0.006358
2060.000000	0.006375
2059.000000	0.006429
2058.000000	0.006471
2057.000000	0.006474
2056.000000	0.006439
2055.000000	0.006391
2054.000000	0.006390
2053.000000	0.006467
2052.000000	0.006570
2051.000000	0.006590
2050.000000	0.006477
2049.000000	0.006292
2048.000000	0.006142
2047.000000	0.006077
2046.000000	0.006089
2045.000000	0.006156
2044.000000	0.006235
2043.000000	0.006265
2042.000000	0.006218
2041.000000	0.006131
2040.000000	0.006073
2039.000000	0.006082
2038.000000	0.006139
2037.000000	0.006157
2036.000000	0.006040
2035.000000	0.005794
2034.000000	0.005564
2033.000000	0.005476
2032.000000	0.005465
2031.000000	0.005379
2030.000000	0.005239
2029.000000	0.005233
2028.000000	0.005431
2027.000000	0.005665
2026.000000	0.005747
2025.000000	0.005683
2024.000000	0.005599
2023.000000	0.005561
2022.000000	0.005551
2021.000000	0.005556
2020.000000	0.005583
2019.000000	0.005619
2018.000000	0.005644
2017.000000	0.005639
2016.000000	0.005570
2015.000000	0.005412
2014.000000	0.005217
2013.000000	0.005090
2012.000000	0.005078
2011.000000	0.005132
2010.000000	0.005200
2009.000000	0.005277
2008.000000	0.005347
2007.000000	0.005362
2006.000000	0.005324
2005.000000	0.005306
2004.000000	0.005350
2003.000000	0.005409
2002.000000	0.005438
2001.000000	0.005473
2000.000000	0.005573
1999.000000	0.005721
1998.000000	0.005822
1997.000000	0.005786
1996.000000	0.005619
1995.000000	0.005438
1994.000000	0.005391
1993.000000	0.005525
1992.000000	0.005727
1991.000000	0.005850
1990.000000	0.005874
1989.000000	0.005872
1988.000000	0.005864
1987.000000	0.005794
1986.000000	0.005672
1985.000000	0.005608
1984.000000	0.005694
1983.000000	0.005911
1982.000000	0.006198
1981.000000	0.006498
1980.000000	0.006714
1979.000000	0.006700
1978.000000	0.006397
1977.000000	0.005947
1976.000000	0.005582
1975.000000	0.005399
1974.000000	0.005342
1973.000000	0.005341
1972.000000	0.005372
1971.000000	0.005430
1970.000000	0.005487
1969.000000	0.005499
1968.000000	0.005430
1967.000000	0.005305
1966.000000	0.005212
1965.000000	0.005213
1964.000000	0.005267
1963.000000	0.005287
1962.000000	0.005250
1961.000000	0.005196
1960.000000	0.005149
1959.000000	0.005108
1958.000000	0.005109
1957.000000	0.005211
1956.000000	0.005408
1955.000000	0.005615
1954.000000	0.005756
1953.000000	0.005805
1952.000000	0.005758
1951.000000	0.005629
1950.000000	0.005477
1949.000000	0.005378
1948.000000	0.005341
1947.000000	0.005308
1946.000000	0.005247
1945.000000	0.005201
1944.000000	0.005223
1943.000000	0.005319
1942.000000	0.005453
1941.000000	0.005577
1940.000000	0.005641
1939.000000	0.005619
1938.000000	0.005539
1937.000000	0.005464
1936.000000	0.005440
1935.000000	0.005476
1934.000000	0.005562
1933.000000	0.005675
1932.000000	0.005752
1931.000000	0.005737
1930.000000	0.005655
1929.000000	0.005575
1928.000000	0.005529
1927.000000	0.005496
1926.000000	0.005477
1925.000000	0.005501
1924.000000	0.005552
1923.000000	0.005563
1922.000000	0.005525
1921.000000	0.005504
1920.000000	0.005548
1919.000000	0.005620
1918.000000	0.005661
1917.000000	0.005677
1916.000000	0.005705
1915.000000	0.005745
1914.000000	0.005769
1913.000000	0.005770
1912.000000	0.005755
1911.000000	0.005726
1910.000000	0.005699
1909.000000	0.005690
1908.000000	0.005691
1907.000000	0.005669
1906.000000	0.005622
1905.000000	0.005602
1904.000000	0.005644
1903.000000	0.005719
1902.000000	0.005774
1901.000000	0.005783
1900.000000	0.005748
1899.000000	0.005678
1898.000000	0.005594
1897.000000	0.005538
1896.000000	0.005527
1895.000000	0.005529
1894.000000	0.005517
1893.000000	0.005509
1892.000000	0.005531
1891.000000	0.005566
1890.000000	0.005578
1889.000000	0.005572
1888.000000	0.005592
1887.000000	0.005661
1886.000000	0.005749
1885.000000	0.005809
1884.000000	0.005804
1883.000000	0.005731
1882.000000	0.005621
1881.000000	0.005511
1880.000000	0.005427
1879.000000	0.005383
1878.000000	0.005391
1877.000000	0.005449
1876.000000	0.005532
1875.000000	0.005596
1874.000000	0.005616
1873.000000	0.005603
1872.000000	0.005581
1871.000000	0.005565
1870.000000	0.005565
1869.000000	0.005580
1868.000000	0.005597
1867.000000	0.005607
1866.000000	0.005612
1865.000000	0.005616
1864.000000	0.005606
1863.000000	0.005568
1862.000000	0.005520
1861.000000	0.005500
1860.000000	0.005524
1859.000000	0.005570
1858.000000	0.005614
1857.000000	0.005647
1856.000000	0.005661
1855.000000	0.005649
1854.000000	0.005625
1853.000000	0.005605
1852.000000	0.005579
1851.000000	0.005534
1850.000000	0.005465
1849.000000	0.005375
1848.000000	0.005269
1847.000000	0.005164
1846.000000	0.005110
1845.000000	0.005138
1844.000000	0.005209
1843.000000	0.005254
1842.000000	0.005274
1841.000000	0.005302
1840.000000	0.005347
1839.000000	0.005386
1838.000000	0.005415
1837.000000	0.005451
1836.000000	0.005480
1835.000000	0.005448
1834.000000	0.005342
1833.000000	0.005216
1832.000000	0.005142
1831.000000	0.005141
1830.000000	0.005165
1829.000000	0.005183
1828.000000	0.005210
1827.000000	0.005256
1826.000000	0.005302
1825.000000	0.005330
1824.000000	0.005357
1823.000000	0.005401
1822.000000	0.005453
1821.000000	0.005488
1820.000000	0.005490
1819.000000	0.005455
1818.000000	0.005392
1817.000000	0.005329
1816.000000	0.005290
1815.000000	0.005282
1814.000000	0.005310
1813.000000	0.005368
1812.000000	0.005435
1811.000000	0.005463
1810.000000	0.005439
1809.000000	0.005410
1808.000000	0.005412
1807.000000	0.005441
1806.000000	0.005474
1805.000000	0.005511
1804.000000	0.005556
1803.000000	0.005607
1802.000000	0.005658
1801.000000	0.005712
1800.000000	0.005778
1799.000000	0.005846
1798.000000	0.005890
1797.000000	0.005896
1796.000000	0.005864
1795.000000	0.005820
1794.000000	0.005790
1793.000000	0.005767
1792.000000	0.005720
1791.000000	0.005644
1790.000000	0.005579
1789.000000	0.005545
1788.000000	0.005533
1787.000000	0.005524
1786.000000	0.005508
1785.000000	0.005483
1784.000000	0.005445
1783.000000	0.005412
1782.000000	0.005409
1781.000000	0.005417
1780.000000	0.005415
1779.000000	0.005390
1778.000000	0.005357
1777.000000	0.005312
1776.000000	0.005238
1775.000000	0.005157
1774.000000	0.005116
1773.000000	0.005125
1772.000000	0.005142
1771.000000	0.005160
1770.000000	0.005219
1769.000000	0.005333
1768.000000	0.005449
1767.000000	0.005508
1766.000000	0.005524
1765.000000	0.005558
1764.000000	0.005642
1763.000000	0.005751
1762.000000	0.005843
1761.000000	0.005928
1760.000000	0.006068
1759.000000	0.006294
1758.000000	0.006610
1757.000000	0.006980
1756.000000	0.007349
1755.000000	0.007699
1754.000000	0.008066
1753.000000	0.008500
1752.000000	0.009017
1751.000000	0.009571
1750.000000	0.010119
1749.000000	0.010672
1748.000000	0.011203
1747.000000	0.011669
1746.000000	0.012068
1745.000000	0.012420
1744.000000	0.012704
1743.000000	0.012876
1742.000000	0.012953
1741.000000	0.013001
1740.000000	0.012994
1739.000000	0.012856
1738.000000	0.012632
1737.000000	0.012433
1736.000000	0.012286
1735.000000	0.012061
1734.000000	0.011617
1733.000000	0.011147
1732.000000	0.010889
1731.000000	0.010751
1730.000000	0.010565
1729.000000	0.010285
1728.000000	0.009955
1727.000000	0.009628
1726.000000	0.009319
1725.000000	0.009036
1724.000000	0.008772
1723.000000	0.008479
1722.000000	0.008153
1721.000000	0.007849
1720.000000	0.007623
1719.000000	0.007457
1718.000000	0.007283
1717.000000	0.007132
1716.000000	0.007091
1715.000000	0.007123
1714.000000	0.007164
1713.000000	0.007227
1712.000000	0.007326
1711.000000	0.007431
1710.000000	0.007508
1709.000000	0.007572
1708.000000	0.007680
1707.000000	0.007869
1706.000000	0.008099
1705.000000	0.008277
1704.000000	0.008351
1703.000000	0.008371
1702.000000	0.008484
1701.000000	0.008794
1700.000000	0.009168
1699.000000	0.009456
1698.000000	0.009748
1697.000000	0.010188
1696.000000	0.010738
1695.000000	0.011239
1694.000000	0.011663
1693.000000	0.012079
1692.000000	0.012505
1691.000000	0.012908
1690.000000	0.013265
1689.000000	0.013550
1688.000000	0.013738
1687.000000	0.013868
1686.000000	0.014091
1685.000000	0.014591
1684.000000	0.015255
1683.000000	0.015836
1682.000000	0.016358
1681.000000	0.016909
1680.000000	0.017438
1679.000000	0.017862
1678.000000	0.018210
1677.000000	0.018631
1676.000000	0.019221
1675.000000	0.019870
1674.000000	0.020415
1673.000000	0.020873
1672.000000	0.021362
1671.000000	0.021958
1670.000000	0.022677
1669.000000	0.023456
1668.000000	0.024174
1667.000000	0.024753
1666.000000	0.025214
1665.000000	0.025681
1664.000000	0.026262
1663.000000	0.026930
1662.000000	0.027580
1661.000000	0.028164
1660.000000	0.028698
1659.000000	0.029153
1658.000000	0.029450
1657.000000	0.029546
1656.000000	0.029528
1655.000000	0.029603
1654.000000	0.030022
1653.000000	0.030701
1652.000000	0.031267
1651.000000	0.031617
1650.000000	0.031847
1649.000000	0.032060
1648.000000	0.032346
1647.000000	0.032659
1646.000000	0.032883
1645.000000	0.033047
1644.000000	0.033216
1643.000000	0.033376
1642.000000	0.033507
1641.000000	0.033598
1640.000000	0.033638
1639.000000	0.033615
1638.000000	0.033575
1637.000000	0.033623
1636.000000	0.033791
1635.000000	0.033979
1634.000000	0.034113
1633.000000	0.034217
1632.000000	0.034281
1631.000000	0.034280
1630.000000	0.034218
1629.000000	0.034107
1628.000000	0.033929
1627.000000	0.033663
1626.000000	0.033335
1625.000000	0.033003
1624.000000	0.032684
1623.000000	0.032328
1622.000000	0.031915
1621.000000	0.031463
1620.000000	0.030983
1619.000000	0.030466
1618.000000	0.029909
1617.000000	0.029309
1616.000000	0.028716
1615.000000	0.028220
1614.000000	0.027818
1613.000000	0.027429
1612.000000	0.026987
1611.000000	0.026484
1610.000000	0.025963
1609.000000	0.025458
1608.000000	0.024967
1607.000000	0.024494
1606.000000	0.024054
1605.000000	0.023636
1604.000000	0.023228
1603.000000	0.022834
1602.000000	0.022464
1601.000000	0.022116
1600.000000	0.021784
1599.000000	0.021477
1598.000000	0.021209
1597.000000	0.020975
1596.000000	0.020762
1595.000000	0.020568
1594.000000	0.020401
1593.000000	0.020256
1592.000000	0.020123
1591.000000	0.020007
1590.000000	0.019923
1589.000000	0.019871
1588.000000	0.019842
1587.000000	0.019838
1586.000000	0.019873
1585.000000	0.019930
1584.000000	0.019984
1583.000000	0.020049
1582.000000	0.020136
1581.000000	0.020210
1580.000000	0.020228
1579.000000	0.020216
1578.000000	0.020264
1577.000000	0.020445
1576.000000	0.020712
1575.000000	0.020969
1574.000000	0.021184
1573.000000	0.021351
1572.000000	0.021493
1571.000000	0.021678
1570.000000	0.021960
1569.000000	0.022290
1568.000000	0.022610
1567.000000	0.022939
1566.000000	0.023313
1565.000000	0.023692
1564.000000	0.023967
1563.000000	0.024066
1562.000000	0.024047
1561.000000	0.024088
1560.000000	0.024474
1559.000000	0.025171
1558.000000	0.025791
1557.000000	0.026294
1556.000000	0.026807
1555.000000	0.027334
1554.000000	0.027825
1553.000000	0.028242
1552.000000	0.028625
1551.000000	0.029015
1550.000000	0.029396
1549.000000	0.029714
1548.000000	0.029952
1547.000000	0.030155
1546.000000	0.030368
1545.000000	0.030567
1544.000000	0.030684
1543.000000	0.030707
1542.000000	0.030732
1541.000000	0.030889
1540.000000	0.031128
1539.000000	0.031303
1538.000000	0.031405
1537.000000	0.031472
1536.000000	0.031495
1535.000000	0.031486
1534.000000	0.031446
1533.000000	0.031356
1532.000000	0.031255
1531.000000	0.031172
1530.000000	0.031093
1529.000000	0.031017
1528.000000	0.030938
1527.000000	0.030824
1526.000000	0.030638
1525.000000	0.030392
1524.000000	0.030154
1523.000000	0.029975
1522.000000	0.029844
1521.000000	0.029714
1520.000000	0.029611
1519.000000	0.029589
1518.000000	0.029618
1517.000000	0.029604
1516.000000	0.029478
1515.000000	0.029277
1514.000000	0.029078
1513.000000	0.028896
1512.000000	0.028698
1511.000000	0.028435
1510.000000	0.028104
1509.000000	0.027750
1508.000000	0.027396
1507.000000	0.026951
1506.000000	0.026489
1505.000000	0.026270
1504.000000	0.026264
1503.000000	0.026262
1502.000000	0.026153
1501.000000	0.025925
1500.000000	0.025625
1499.000000	0.025308
1498.000000	0.025009
1497.000000	0.024757
1496.000000	0.024552
1495.000000	0.024371
1494.000000	0.024213
1493.000000	0.024097
1492.000000	0.024025
1491.000000	0.023956
1490.000000	0.023842
1489.000000	0.023720
1488.000000	0.023657
1487.000000	0.023644
1486.000000	0.023674
1485.000000	0.023764
1484.000000	0.023911
1483.000000	0.024094
1482.000000	0.024285
1481.000000	0.024487
1480.000000	0.024703
1479.000000	0.024930
1478.000000	0.025179
1477.000000	0.025467
1476.000000	0.025778
1475.000000	0.026098
1474.000000	0.026483
1473.000000	0.026989
1472.000000	0.027572
1471.000000	0.028144
1470.000000	0.028685
1469.000000	0.029202
1468.000000	0.029680
1467.000000	0.030102
1466.000000	0.030495
1465.000000	0.030885
1464.000000	0.031270
1463.000000	0.031635
1462.000000	0.031969
1461.000000	0.032267
1460.000000	0.032529
1459.000000	0.032808
1458.000000	0.033204
1457.000000	0.033735
1456.000000	0.034280
1455.000000	0.034772
1454.000000	0.035225
1453.000000	0.035635
1452.000000	0.035976
1451.000000	0.036237
1450.000000	0.036462
1449.000000	0.036708
1448.000000	0.036957
1447.000000	0.037171
1446.000000	0.037371
1445.000000	0.037583
1444.000000	0.037795
1443.000000	0.037972
1442.000000	0.038106
1441.000000	0.038210
1440.000000	0.038286
1439.000000	0.038345
1438.000000	0.038425
1437.000000	0.038556
1436.000000	0.038703
1435.000000	0.038846
1434.000000	0.038990
1433.000000	0.039116
1432.000000	0.039189
1431.000000	0.039213
1430.000000	0.039246
1429.000000	0.039345
1428.000000	0.039494
1427.000000	0.039649
1426.000000	0.039800
1425.000000	0.039918
1424.000000	0.039954
1423.000000	0.039903
1422.000000	0.039840
1421.000000	0.039831
1420.000000	0.039861
1419.000000	0.039849
1418.000000	0.039789
1417.000000	0.039751
1416.000000	0.039719
1415.000000	0.039634
1414.000000	0.039488
1413.000000	0.039310
1412.000000	0.039106
1411.000000	0.038874
1410.000000	0.038633
1409.000000	0.038411
1408.000000	0.038198
1407.000000	0.037971
1406.000000	0.037738
1405.000000	0.037506
1404.000000	0.037275
1403.000000	0.037063
1402.000000	0.036896
1401.000000	0.036771
1400.000000	0.036634
1399.000000	0.036440
1398.000000	0.036208
1397.000000	0.035969
1396.000000	0.035687
1395.000000	0.035341
1394.000000	0.035019
1393.000000	0.034814
1392.000000	0.034696
1391.000000	0.034565
1390.000000	0.034368
1389.000000	0.034114
1388.000000	0.033815
1387.000000	0.033481
1386.000000	0.033161
1385.000000	0.032898
1384.000000	0.032670
1383.000000	0.032436
1382.000000	0.032187
1381.000000	0.031944
1380.000000	0.031705
1379.000000	0.031450
1378.000000	0.031175
1377.000000	0.030892
1376.000000	0.030592
1375.000000	0.030251
1374.000000	0.029874
1373.000000	0.029509
1372.000000	0.029194
1371.000000	0.028922
1370.000000	0.028665
1369.000000	0.028388
1368.000000	0.028068
1367.000000	0.027715
1366.000000	0.027370
1365.000000	0.027061
1364.000000	0.026785
1363.000000	0.026525
1362.000000	0.026276
1361.000000	0.026050
1360.000000	0.025843
1359.000000	0.025649
1358.000000	0.025479
1357.000000	0.025346
1356.000000	0.025245
1355.000000	0.025161
1354.000000	0.025085
1353.000000	0.025020
1352.000000	0.024970
1351.000000	0.024939
1350.000000	0.024937
1349.000000	0.024963
1348.000000	0.025008
1347.000000	0.025065
1346.000000	0.025130
1345.000000	0.025199
1344.000000	0.025270
1343.000000	0.025351
1342.000000	0.025462
1341.000000	0.025610
1340.000000	0.025776
1339.000000	0.025927
1338.000000	0.026049
1337.000000	0.026142
1336.000000	0.026197
1335.000000	0.026205
1334.000000	0.026169
1333.000000	0.026103
1332.000000	0.026015
1331.000000	0.025903
1330.000000	0.025764
1329.000000	0.025598
1328.000000	0.025404
1327.000000	0.025196
1326.000000	0.024997
1325.000000	0.024822
1324.000000	0.024664
1323.000000	0.024509
1322.000000	0.024351
1321.000000	0.024197
1320.000000	0.024058
1319.000000	0.023940
1318.000000	0.023843
1317.000000	0.023752
1316.000000	0.023644
1315.000000	0.023503
1314.000000	0.023333
1313.000000	0.023150
1312.000000	0.022966
1311.000000	0.022783
1310.000000	0.022594
1309.000000	0.022401
1308.000000	0.022209
1307.000000	0.022028
1306.000000	0.021863
1305.000000	0.021708
1304.000000	0.021556
1303.000000	0.021410
1302.000000	0.021277
1301.000000	0.021153
1300.000000	0.021024
1299.000000	0.020884
1298.000000	0.020736
1297.000000	0.020594
1296.000000	0.020478
1295.000000	0.020401
1294.000000	0.020364
1293.000000	0.020353
1292.000000	0.020355
1291.000000	0.020370
1290.000000	0.020408
1289.000000	0.020464
1288.000000	0.020523
1287.000000	0.020576
1286.000000	0.020629
1285.000000	0.020684
1284.000000	0.020731
1283.000000	0.020758
1282.000000	0.020770
1281.000000	0.020787
1280.000000	0.020819
1279.000000	0.020856
1278.000000	0.020885
1277.000000	0.020904
1276.000000	0.020923
1275.000000	0.020954
1274.000000	0.021005
1273.000000	0.021078
1272.000000	0.021170
1271.000000	0.021274
1270.000000	0.021388
1269.000000	0.021516
1268.000000	0.021660
1267.000000	0.021819
1266.000000	0.021989
1265.000000	0.022170
1264.000000	0.022364
1263.000000	0.022574
1262.000000	0.022791
1261.000000	0.023006
1260.000000	0.023217
1259.000000	0.023430
1258.000000	0.023651
1257.000000	0.023875
1256.000000	0.024089
1255.000000	0.024280
1254.000000	0.024442
1253.000000	0.024578
1252.000000	0.024705
1251.000000	0.024854
1250.000000	0.025046
1249.000000	0.025275
1248.000000	0.025512
1247.000000	0.025736
1246.000000	0.025948
1245.000000	0.026155
1244.000000	0.026355
1243.000000	0.026550
1242.000000	0.026753
1241.000000	0.026972
1240.000000	0.027182
1239.000000	0.027345
1238.000000	0.027441
1237.000000	0.027480
1236.000000	0.027475
1235.000000	0.027433
1234.000000	0.027357
1233.000000	0.027254
1232.000000	0.027125
1231.000000	0.026958
1230.000000	0.026747
1229.000000	0.026494
1228.000000	0.026203
1227.000000	0.025869
1226.000000	0.025489
1225.000000	0.025075
1224.000000	0.024646
1223.000000	0.024220
1222.000000	0.023813
1221.000000	0.023429
1220.000000	0.023069
1219.000000	0.022731
1218.000000	0.022419
1217.000000	0.022139
1216.000000	0.021900
1215.000000	0.021709
1214.000000	0.021570
1213.000000	0.021467
1212.000000	0.021386
1211.000000	0.021324
1210.000000	0.021296
1209.000000	0.021314
1208.000000	0.021369
1207.000000	0.021445
1206.000000	0.021532
1205.000000	0.021623
1204.000000	0.021706
1203.000000	0.021766
1202.000000	0.021796
1201.000000	0.021799
1200.000000	0.021773
1199.000000	0.021709
1198.000000	0.021601
1197.000000	0.021467
1196.000000	0.021328
1195.000000	0.021201
1194.000000	0.021087
1193.000000	0.020981
1192.000000	0.020881
1191.000000	0.020786
1190.000000	0.020695
1189.000000	0.020607
1188.000000	0.020527
1187.000000	0.020465
1186.000000	0.020432
1185.000000	0.020436
1184.000000	0.020465
1183.000000	0.020504
1182.000000	0.020545
1181.000000	0.020597
1180.000000	0.020676
1179.000000	0.020787
1178.000000	0.020920
1177.000000	0.021062
1176.000000	0.021203
1175.000000	0.021346
1174.000000	0.021495
1173.000000	0.021650
1172.000000	0.021808
1171.000000	0.021963
1170.000000	0.022114
1169.000000	0.022256
1168.000000	0.022389
1167.000000	0.022516
1166.000000	0.022635
1165.000000	0.022744
1164.000000	0.022831
1163.000000	0.022888
1162.000000	0.022912
1161.000000	0.022903
1160.000000	0.022863
1159.000000	0.022798
1158.000000	0.022713
1157.000000	0.022599
1156.000000	0.022433
1155.000000	0.022195
1154.000000	0.021890
1153.000000	0.021540
1152.000000	0.021169
1151.000000	0.020795
1150.000000	0.020430
1149.000000	0.020072
1148.000000	0.019707
1147.000000	0.019320
1146.000000	0.018915
1145.000000	0.018512
1144.000000	0.018136
1143.000000	0.017794
1142.000000	0.017482
1141.000000	0.017186
1140.000000	0.016894
1139.000000	0.016609
1138.000000	0.016345
1137.000000	0.016110
1136.000000	0.015903
1135.000000	0.015718
1134.000000	0.015552
1133.000000	0.015410
1132.000000	0.015291
1131.000000	0.015194
1130.000000	0.015120
1129.000000	0.015075
1128.000000	0.015063
1127.000000	0.015078
1126.000000	0.015103
1125.000000	0.015124
1124.000000	0.015140
1123.000000	0.015153
1122.000000	0.015171
1121.000000	0.015207
1120.000000	0.015271
1119.000000	0.015367
1118.000000	0.015479
1117.000000	0.015593
1116.000000	0.015710
1115.000000	0.015838
1114.000000	0.015984
1113.000000	0.016147
1112.000000	0.016322
1111.000000	0.016496
1110.000000	0.016648
1109.000000	0.016752
1108.000000	0.016802
1107.000000	0.016812
1106.000000	0.016803
1105.000000	0.016783
1104.000000	0.016753
1103.000000	0.016723
1102.000000	0.016708
1101.000000	0.016721
1100.000000	0.016762
1099.000000	0.016821
1098.000000	0.016891
1097.000000	0.016977
1096.000000	0.017085
1095.000000	0.017214
1094.000000	0.017340
1093.000000	0.017429
1092.000000	0.017460
1091.000000	0.017447
1090.000000	0.017423
1089.000000	0.017407
1088.000000	0.017390
1087.000000	0.017347
1086.000000	0.017270
1085.000000	0.017171
1084.000000	0.017065
1083.000000	0.016953
1082.000000	0.016827
1081.000000	0.016682
1080.000000	0.016511
1079.000000	0.016312
1078.000000	0.016089
1077.000000	0.015861
1076.000000	0.015652
1075.000000	0.015472
1074.000000	0.015301
1073.000000	0.015124
1072.000000	0.014955
1071.000000	0.014823
1070.000000	0.014729
1069.000000	0.014640
1068.000000	0.014534
1067.000000	0.014440
1066.000000	0.014407
1065.000000	0.014451
1064.000000	0.014546
1063.000000	0.014647
1062.000000	0.014717
1061.000000	0.014730
1060.000000	0.014677
1059.000000	0.014576
1058.000000	0.014470
1057.000000	0.014392
1056.000000	0.014339
1055.000000	0.014286
1054.000000	0.014215
1053.000000	0.014127
1052.000000	0.014034
1051.000000	0.013945
1050.000000	0.013866
1049.000000	0.013812
1048.000000	0.013797
1047.000000	0.013820
1046.000000	0.013863
1045.000000	0.013906
1044.000000	0.013942
1043.000000	0.013982
1042.000000	0.014047
1041.000000	0.014151
1040.000000	0.014292
1039.000000	0.014451
1038.000000	0.014616
1037.000000	0.014800
1036.000000	0.015031
1035.000000	0.015318
1034.000000	0.015623
1033.000000	0.015890
1032.000000	0.016083
1031.000000	0.016191
1030.000000	0.016216
1029.000000	0.016169
1028.000000	0.016090
1027.000000	0.016032
1026.000000	0.016012
1025.000000	0.016001
1024.000000	0.015962
1023.000000	0.015890
1022.000000	0.015800
1021.000000	0.015693
1020.000000	0.015563
1019.000000	0.015422
1018.000000	0.015303
1017.000000	0.015222
1016.000000	0.015160
1015.000000	0.015089
1014.000000	0.014997
1013.000000	0.014885
1012.000000	0.014752
1011.000000	0.014602
1010.000000	0.014445
1009.000000	0.014291
1008.000000	0.014139
1007.000000	0.013974
1006.000000	0.013792
1005.000000	0.013607
1004.000000	0.013452
1003.000000	0.013344
1002.000000	0.013262
1001.000000	0.013158
1000.000000	0.012998
999.000000	0.012800
998.000000	0.012606
997.000000	0.012439
996.000000	0.012298
995.000000	0.012183
994.000000	0.012101
993.000000	0.012042
992.000000	0.011976
991.000000	0.011877
990.000000	0.011751
989.000000	0.011623
988.000000	0.011509
987.000000	0.011406
986.000000	0.011313
985.000000	0.011232
984.000000	0.011168
983.000000	0.011120
982.000000	0.011087
981.000000	0.011070
980.000000	0.011067
979.000000	0.011083
978.000000	0.011122
977.000000	0.011184
976.000000	0.011258
975.000000	0.011328
974.000000	0.011377
973.000000	0.011393
972.000000	0.011366
971.000000	0.011305
970.000000	0.011237
969.000000	0.011186
968.000000	0.011151
967.000000	0.011105
966.000000	0.011026
965.000000	0.010919
964.000000	0.010809
963.000000	0.010719
962.000000	0.010648
961.000000	0.010575
960.000000	0.010479
959.000000	0.010357
958.000000	0.010229
957.000000	0.010116
956.000000	0.010023
955.000000	0.009936
954.000000	0.009842
953.000000	0.009744
952.000000	0.009651
951.000000	0.009566
950.000000	0.009476
949.000000	0.009368
948.000000	0.009242
947.000000	0.009111
946.000000	0.008997
945.000000	0.008917
944.000000	0.008876
943.000000	0.008859
942.000000	0.008842
941.000000	0.008806
940.000000	0.008746
939.000000	0.008670
938.000000	0.008586
937.000000	0.008497
936.000000	0.008401
935.000000	0.008302
934.000000	0.008202
933.000000	0.008111
932.000000	0.008038
931.000000	0.007986
930.000000	0.007947
929.000000	0.007903
928.000000	0.007845
927.000000	0.007770
926.000000	0.007679
925.000000	0.007575
924.000000	0.007471
923.000000	0.007384
922.000000	0.007317
921.000000	0.007259
920.000000	0.007199
919.000000	0.007137
918.000000	0.007071
917.000000	0.006986
916.000000	0.006871
915.000000	0.006735
914.000000	0.006602
913.000000	0.006487
912.000000	0.006381
911.000000	0.006275
910.000000	0.006173
909.000000	0.006090
908.000000	0.006025
907.000000	0.005958
906.000000	0.005883
905.000000	0.005814
904.000000	0.005766
903.000000	0.005724
902.000000	0.005658
901.000000	0.005560
900.000000	0.005454
899.000000	0.005364
898.000000	0.005295
897.000000	0.005246
896.000000	0.005222
895.000000	0.005215
894.000000	0.005196
893.000000	0.005147
892.000000	0.005094
891.000000	0.005081
890.000000	0.005129
889.000000	0.005247
888.000000	0.005479
887.000000	0.005897
886.000000	0.006545
885.000000	0.007381
884.000000	0.008315
883.000000	0.009287
882.000000	0.010319
881.000000	0.011504
880.000000	0.012923
879.000000	0.014548
878.000000	0.016204
877.000000	0.017638
876.000000	0.018637
875.000000	0.019103
874.000000	0.019036
873.000000	0.018485
872.000000	0.017523
871.000000	0.016263
870.000000	0.014864
869.000000	0.013493
868.000000	0.012285
867.000000	0.011298
866.000000	0.010517
865.000000	0.009873
864.000000	0.009308
863.000000	0.008813
862.000000	0.008410
861.000000	0.008101
860.000000	0.007856
859.000000	0.007638
858.000000	0.007431
857.000000	0.007244
856.000000	0.007086
855.000000	0.006961
854.000000	0.006869
853.000000	0.006810
852.000000	0.006791
851.000000	0.006816
850.000000	0.006875
849.000000	0.006925
848.000000	0.006908
847.000000	0.006796
846.000000	0.006608
845.000000	0.006394
844.000000	0.006207
843.000000	0.006081
842.000000	0.006026
841.000000	0.006025
840.000000	0.006034
839.000000	0.006010
838.000000	0.005942
837.000000	0.005855
836.000000	0.005776
835.000000	0.005709
834.000000	0.005641
833.000000	0.005569
832.000000	0.005504
831.000000	0.005456
830.000000	0.005417
829.000000	0.005374
828.000000	0.005330
827.000000	0.005297
826.000000	0.005277
825.000000	0.005258
824.000000	0.005227
823.000000	0.005194
822.000000	0.005187
821.000000	0.005217
820.000000	0.005255
819.000000	0.005257
818.000000	0.005205
817.000000	0.005135
816.000000	0.005097
815.000000	0.005115
814.000000	0.005171
813.000000	0.005239
812.000000	0.005302
811.000000	0.005344
810.000000	0.005351
809.000000	0.005320
808.000000	0.005270
807.000000	0.005228
806.000000	0.005198
805.000000	0.005174
804.000000	0.005159
803.000000	0.005166
802.000000	0.005196
801.000000	0.005233
800.000000	0.005254
799.000000	0.005248
798.000000	0.005224
797.000000	0.005197
796.000000	0.005175
795.000000	0.005165
794.000000	0.005178
793.000000	0.005219
792.000000	0.005279
791.000000	0.005337
790.000000	0.005392
789.000000	0.005467
788.000000	0.005572
787.000000	0.005669
786.000000	0.005705
785.000000	0.005677
784.000000	0.005641
783.000000	0.005650
782.000000	0.005695
781.000000	0.005725
780.000000	0.005713
779.000000	0.005676
778.000000	0.005656
777.000000	0.005686
776.000000	0.005765
775.000000	0.005854
774.000000	0.005902
773.000000	0.005892
772.000000	0.005853
771.000000	0.005828
770.000000	0.005820
769.000000	0.005811
768.000000	0.005792
767.000000	0.005772
766.000000	0.005767
765.000000	0.005788
764.000000	0.005853
763.000000	0.005963
762.000000	0.006090
761.000000	0.006188
760.000000	0.006243
759.000000	0.006270
758.000000	0.006283
757.000000	0.006280
756.000000	0.006258
755.000000	0.006220
754.000000	0.006180
753.000000	0.006156
752.000000	0.006173
751.000000	0.006238
750.000000	0.006321
749.000000	0.006380
748.000000	0.006406
747.000000	0.006424
746.000000	0.006450
745.000000	0.006479
744.000000	0.006505
743.000000	0.006545
742.000000	0.006614
741.000000	0.006695
740.000000	0.006757
739.000000	0.006776
738.000000	0.006762
737.000000	0.006754
736.000000	0.006795
735.000000	0.006903
734.000000	0.007050
733.000000	0.007194
732.000000	0.007319
731.000000	0.007429
730.000000	0.007518
729.000000	0.007578
728.000000	0.007627
727.000000	0.007692
726.000000	0.007770
725.000000	0.007838
724.000000	0.007892
723.000000	0.007959
722.000000	0.008066
721.000000	0.008206
720.000000	0.008366
719.000000	0.008568
718.000000	0.008866
717.000000	0.009338
716.000000	0.010043
715.000000	0.010960
714.000000	0.011914
713.000000	0.012617
712.000000	0.012846
711.000000	0.012598
710.000000	0.012068
709.000000	0.011505
708.000000	0.011078
707.000000	0.010838
706.000000	0.010752
705.000000	0.010751
704.000000	0.010770
703.000000	0.010787
702.000000	0.010806
701.000000	0.010828
700.000000	0.010842
699.000000	0.010841
698.000000	0.010829
697.000000	0.010821
696.000000	0.010819
695.000000	0.010826
694.000000	0.010842
693.000000	0.010861
692.000000	0.010883
691.000000	0.010912
690.000000	0.010937
689.000000	0.010951
688.000000	0.010969
687.000000	0.011036
686.000000	0.011167
685.000000	0.011320
684.000000	0.011444
683.000000	0.011519
682.000000	0.011533
681.000000	0.011482
680.000000	0.011413
679.000000	0.011410
678.000000	0.011496
677.000000	0.011627
676.000000	0.011743
675.000000	0.011815
674.000000	0.011836
673.000000	0.011789
672.000000	0.011663
671.000000	0.011466
670.000000	0.011216
669.000000	0.010974
668.000000	0.010992
667.000000	0.011289
666.000000	0.011416
665.000000	0.011450
664.000000	0.011566
663.000000	0.011704
662.000000	0.011766
661.000000	0.011743
660.000000	0.011707
659.000000	0.011696
658.000000	0.011704
657.000000	0.011758
656.000000	0.011870
655.000000	0.011983
654.000000	0.012049
653.000000	0.012092
652.000000	0.012147
651.000000	0.012206
650.000000	0.012270
649.000000	0.012371
648.000000	0.012497
647.000000	0.012580
646.000000	0.012618
645.000000	0.012685
644.000000	0.012821
643.000000	0.012989
642.000000	0.013152
641.000000	0.013326
640.000000	0.013515
639.000000	0.013667
638.000000	0.013755
637.000000	0.013821
636.000000	0.013878
635.000000	0.013879
634.000000	0.013808
633.000000	0.013727
632.000000	0.013685
631.000000	0.013658
630.000000	0.013625
629.000000	0.013629
628.000000	0.013697
627.000000	0.013772
626.000000	0.013793
625.000000	0.013789
624.000000	0.013830
623.000000	0.013937
622.000000	0.014071
621.000000	0.014184
620.000000	0.014248
619.000000	0.014265
618.000000	0.014280
617.000000	0.014349
616.000000	0.014473
615.000000	0.014587
614.000000	0.014648
613.000000	0.014677
612.000000	0.014706
611.000000	0.014723
610.000000	0.014706
609.000000	0.014663
608.000000	0.014613
607.000000	0.014569
606.000000	0.014553
605.000000	0.014565
604.000000	0.014541
603.000000	0.014407
602.000000	0.014189
601.000000	0.013987
600.000000	0.013849
599.000000	0.013727
598.000000	0.013586
597.000000	0.013456
596.000000	0.013352
595.000000	0.013229
594.000000	0.013070
593.000000	0.012944
592.000000	0.012914
591.000000	0.012941
590.000000	0.012936
589.000000	0.012860
588.000000	0.012722
587.000000	0.012544
586.000000	0.012370
585.000000	0.012281
584.000000	0.012314
583.000000	0.012411
582.000000	0.012492
581.000000	0.012532
580.000000	0.012548
579.000000	0.012546
578.000000	0.012526
577.000000	0.012502
576.000000	0.012465
575.000000	0.012384
574.000000	0.012279
573.000000	0.012231
572.000000	0.012278
571.000000	0.012388
570.000000	0.012542
569.000000	0.012782
568.000000	0.013089
567.000000	0.013312
566.000000	0.013327
565.000000	0.013189
564.000000	0.013048
563.000000	0.012964
562.000000	0.012930
561.000000	0.012981
560.000000	0.013167
559.000000	0.013422
558.000000	0.013602
557.000000	0.013648
556.000000	0.013626
555.000000	0.013618
554.000000	0.013650
553.000000	0.013717
552.000000	0.013787
551.000000	0.013787
550.000000	0.013666
549.000000	0.013482
548.000000	0.013327
547.000000	0.013200
546.000000	0.013036
545.000000	0.012831
544.000000	0.012665
543.000000	0.012583
542.000000	0.012550
541.000000	0.012521
540.000000	0.012506
539.000000	0.012538
538.000000	0.012631
537.000000	0.012768
536.000000	0.012885
535.000000	0.012912
534.000000	0.012855
533.000000	0.012816
532.000000	0.012876
531.000000	0.013003
530.000000	0.013111
529.000000	0.013180
528.000000	0.013230
527.000000	0.013248
526.000000	0.013211
525.000000	0.013159
524.000000	0.013148
523.000000	0.013153
522.000000	0.013108
521.000000	0.013003
520.000000	0.012860
519.000000	0.012667
518.000000	0.012419
517.000000	0.012193
516.000000	0.012061
515.000000	0.011977
514.000000	0.011859
513.000000	0.011734
512.000000	0.011692
511.000000	0.011737
510.000000	0.011787
509.000000	0.011794
508.000000	0.011755
507.000000	0.011616
506.000000	0.011305
505.000000	0.010873
504.000000	0.010475
503.000000	0.010218
502.000000	0.010105
501.000000	0.010107
500.000000	0.010218
499.000000	0.010389
498.000000	0.010510
497.000000	0.010505
496.000000	0.010402
495.000000	0.010277
494.000000	0.010172
493.000000	0.010080
492.000000	0.009967
491.000000	0.009819
490.000000	0.009682
489.000000	0.009647
488.000000	0.009726
487.000000	0.009798
486.000000	0.009737
485.000000	0.009589
484.000000	0.009512
483.000000	0.009542
482.000000	0.009544
481.000000	0.009410
480.000000	0.009185
479.000000	0.008962
478.000000	0.008777
477.000000	0.008628
476.000000	0.008526
475.000000	0.008468
474.000000	0.008420
473.000000	0.008346
472.000000	0.008228
471.000000	0.008063
470.000000	0.007878
469.000000	0.007753
468.000000	0.007753
467.000000	0.007824
466.000000	0.007829
465.000000	0.007684
464.000000	0.007395
463.000000	0.006987
462.000000	0.006504
461.000000	0.006064
460.000000	0.005793
459.000000	0.005708
458.000000	0.005699
457.000000	0.005665
456.000000	0.005624
455.000000	0.005619
454.000000	0.005652
453.000000	0.005698
452.000000	0.005689
451.000000	0.005493
450.000000	0.005074
