PE IR       SUBTECH     SPECTRUM    ASCII       PEDS        4.00        
   -1
Peau025_1.ASC
23/06/14
15:06:57.00
23/06/14
15:12:57.00
uco
Sample 025 By uco Date Wednesday, June 14 2023
450.000000
#HDR
-1
-1
#GR
cm-1
A
1.0
0.0
4000.000000
-1.000000
3551
8
0.035222
0.003522
#DATA
4000.000000	0.004375
3999.000000	0.004388
3998.000000	0.004397
3997.000000	0.004399
3996.000000	0.004399
3995.000000	0.004401
3994.000000	0.004402
3993.000000	0.004400
3992.000000	0.004394
3991.000000	0.004389
3990.000000	0.004390
3989.000000	0.004400
3988.000000	0.004416
3987.000000	0.004430
3986.000000	0.004434
3985.000000	0.004430
3984.000000	0.004420
3983.000000	0.004411
3982.000000	0.004408
3981.000000	0.004409
3980.000000	0.004409
3979.000000	0.004406
3978.000000	0.004399
3977.000000	0.004397
3976.000000	0.004407
3975.000000	0.004427
3974.000000	0.004447
3973.000000	0.004457
3972.000000	0.004455
3971.000000	0.004447
3970.000000	0.004438
3969.000000	0.004427
3968.000000	0.004416
3967.000000	0.004408
3966.000000	0.004412
3965.000000	0.004427
3964.000000	0.004451
3963.000000	0.004476
3962.000000	0.004501
3961.000000	0.004526
3960.000000	0.004552
3959.000000	0.004575
3958.000000	0.004590
3957.000000	0.004588
3956.000000	0.004569
3955.000000	0.004539
3954.000000	0.004512
3953.000000	0.004494
3952.000000	0.004489
3951.000000	0.004493
3950.000000	0.004503
3949.000000	0.004516
3948.000000	0.004530
3947.000000	0.004543
3946.000000	0.004551
3945.000000	0.004557
3944.000000	0.004561
3943.000000	0.004561
3942.000000	0.004551
3941.000000	0.004533
3940.000000	0.004517
3939.000000	0.004514
3938.000000	0.004526
3937.000000	0.004548
3936.000000	0.004570
3935.000000	0.004585
3934.000000	0.004591
3933.000000	0.004587
3932.000000	0.004576
3931.000000	0.004562
3930.000000	0.004550
3929.000000	0.004543
3928.000000	0.004541
3927.000000	0.004545
3926.000000	0.004557
3925.000000	0.004572
3924.000000	0.004581
3923.000000	0.004583
3922.000000	0.004586
3921.000000	0.004602
3920.000000	0.004633
3919.000000	0.004672
3918.000000	0.004701
3917.000000	0.004705
3916.000000	0.004685
3915.000000	0.004654
3914.000000	0.004630
3913.000000	0.004622
3912.000000	0.004623
3911.000000	0.004621
3910.000000	0.004614
3909.000000	0.004605
3908.000000	0.004602
3907.000000	0.004608
3906.000000	0.004621
3905.000000	0.004630
3904.000000	0.004622
3903.000000	0.004593
3902.000000	0.004558
3901.000000	0.004541
3900.000000	0.004550
3899.000000	0.004574
3898.000000	0.004594
3897.000000	0.004604
3896.000000	0.004608
3895.000000	0.004611
3894.000000	0.004619
3893.000000	0.004636
3892.000000	0.004659
3891.000000	0.004680
3890.000000	0.004694
3889.000000	0.004699
3888.000000	0.004704
3887.000000	0.004715
3886.000000	0.004723
3885.000000	0.004711
3884.000000	0.004681
3883.000000	0.004647
3882.000000	0.004628
3881.000000	0.004628
3880.000000	0.004639
3879.000000	0.004652
3878.000000	0.004667
3877.000000	0.004683
3876.000000	0.004700
3875.000000	0.004715
3874.000000	0.004716
3873.000000	0.004698
3872.000000	0.004672
3871.000000	0.004656
3870.000000	0.004648
3869.000000	0.004635
3868.000000	0.004619
3867.000000	0.004611
3866.000000	0.004621
3865.000000	0.004645
3864.000000	0.004670
3863.000000	0.004689
3862.000000	0.004706
3861.000000	0.004720
3860.000000	0.004733
3859.000000	0.004741
3858.000000	0.004740
3857.000000	0.004725
3856.000000	0.004700
3855.000000	0.004676
3854.000000	0.004647
3853.000000	0.004611
3852.000000	0.004590
3851.000000	0.004597
3850.000000	0.004622
3849.000000	0.004655
3848.000000	0.004686
3847.000000	0.004705
3846.000000	0.004710
3845.000000	0.004704
3844.000000	0.004694
3843.000000	0.004690
3842.000000	0.004691
3841.000000	0.004697
3840.000000	0.004710
3839.000000	0.004723
3838.000000	0.004726
3837.000000	0.004713
3836.000000	0.004691
3835.000000	0.004667
3834.000000	0.004647
3833.000000	0.004631
3832.000000	0.004616
3831.000000	0.004605
3830.000000	0.004603
3829.000000	0.004618
3828.000000	0.004649
3827.000000	0.004690
3826.000000	0.004727
3825.000000	0.004749
3824.000000	0.004758
3823.000000	0.004765
3822.000000	0.004775
3821.000000	0.004774
3820.000000	0.004752
3819.000000	0.004713
3818.000000	0.004673
3817.000000	0.004650
3816.000000	0.004644
3815.000000	0.004642
3814.000000	0.004643
3813.000000	0.004651
3812.000000	0.004663
3811.000000	0.004670
3810.000000	0.004664
3809.000000	0.004650
3808.000000	0.004642
3807.000000	0.004641
3806.000000	0.004640
3805.000000	0.004633
3804.000000	0.004625
3803.000000	0.004627
3802.000000	0.004639
3801.000000	0.004645
3800.000000	0.004648
3799.000000	0.004651
3798.000000	0.004655
3797.000000	0.004656
3796.000000	0.004649
3795.000000	0.004641
3794.000000	0.004639
3793.000000	0.004649
3792.000000	0.004663
3791.000000	0.004674
3790.000000	0.004679
3789.000000	0.004684
3788.000000	0.004698
3787.000000	0.004720
3786.000000	0.004745
3785.000000	0.004763
3784.000000	0.004768
3783.000000	0.004762
3782.000000	0.004758
3781.000000	0.004764
3780.000000	0.004779
3779.000000	0.004786
3778.000000	0.004775
3777.000000	0.004750
3776.000000	0.004724
3775.000000	0.004706
3774.000000	0.004698
3773.000000	0.004696
3772.000000	0.004704
3771.000000	0.004719
3770.000000	0.004728
3769.000000	0.004720
3768.000000	0.004698
3767.000000	0.004678
3766.000000	0.004670
3765.000000	0.004673
3764.000000	0.004680
3763.000000	0.004688
3762.000000	0.004699
3761.000000	0.004713
3760.000000	0.004723
3759.000000	0.004733
3758.000000	0.004754
3757.000000	0.004786
3756.000000	0.004812
3755.000000	0.004818
3754.000000	0.004804
3753.000000	0.004783
3752.000000	0.004763
3751.000000	0.004749
3750.000000	0.004744
3749.000000	0.004739
3748.000000	0.004718
3747.000000	0.004682
3746.000000	0.004665
3745.000000	0.004678
3744.000000	0.004688
3743.000000	0.004676
3742.000000	0.004654
3741.000000	0.004636
3740.000000	0.004625
3739.000000	0.004621
3738.000000	0.004633
3737.000000	0.004670
3736.000000	0.004715
3735.000000	0.004726
3734.000000	0.004688
3733.000000	0.004620
3732.000000	0.004555
3731.000000	0.004514
3730.000000	0.004504
3729.000000	0.004524
3728.000000	0.004568
3727.000000	0.004619
3726.000000	0.004655
3725.000000	0.004666
3724.000000	0.004662
3723.000000	0.004654
3722.000000	0.004642
3721.000000	0.004628
3720.000000	0.004618
3719.000000	0.004619
3718.000000	0.004631
3717.000000	0.004648
3716.000000	0.004656
3715.000000	0.004654
3714.000000	0.004651
3713.000000	0.004659
3712.000000	0.004673
3711.000000	0.004678
3710.000000	0.004661
3709.000000	0.004624
3708.000000	0.004584
3707.000000	0.004555
3706.000000	0.004541
3705.000000	0.004540
3704.000000	0.004542
3703.000000	0.004541
3702.000000	0.004534
3701.000000	0.004525
3700.000000	0.004519
3699.000000	0.004518
3698.000000	0.004522
3697.000000	0.004532
3696.000000	0.004543
3695.000000	0.004553
3694.000000	0.004554
3693.000000	0.004535
3692.000000	0.004489
3691.000000	0.004420
3690.000000	0.004350
3689.000000	0.004303
3688.000000	0.004294
3687.000000	0.004318
3686.000000	0.004358
3685.000000	0.004402
3684.000000	0.004442
3683.000000	0.004471
3682.000000	0.004486
3681.000000	0.004496
3680.000000	0.004504
3679.000000	0.004511
3678.000000	0.004517
3677.000000	0.004530
3676.000000	0.004542
3675.000000	0.004538
3674.000000	0.004517
3673.000000	0.004493
3672.000000	0.004476
3671.000000	0.004468
3670.000000	0.004452
3669.000000	0.004421
3668.000000	0.004394
3667.000000	0.004385
3666.000000	0.004396
3665.000000	0.004420
3664.000000	0.004448
3663.000000	0.004473
3662.000000	0.004495
3661.000000	0.004513
3660.000000	0.004529
3659.000000	0.004550
3658.000000	0.004590
3657.000000	0.004653
3656.000000	0.004717
3655.000000	0.004757
3654.000000	0.004764
3653.000000	0.004752
3652.000000	0.004746
3651.000000	0.004766
3650.000000	0.004809
3649.000000	0.004853
3648.000000	0.004882
3647.000000	0.004896
3646.000000	0.004903
3645.000000	0.004911
3644.000000	0.004921
3643.000000	0.004933
3642.000000	0.004946
3641.000000	0.004960
3640.000000	0.004980
3639.000000	0.005014
3638.000000	0.005060
3637.000000	0.005112
3636.000000	0.005160
3635.000000	0.005199
3634.000000	0.005217
3633.000000	0.005207
3632.000000	0.005173
3631.000000	0.005143
3630.000000	0.005149
3629.000000	0.005189
3628.000000	0.005238
3627.000000	0.005281
3626.000000	0.005316
3625.000000	0.005349
3624.000000	0.005376
3623.000000	0.005389
3622.000000	0.005382
3621.000000	0.005370
3620.000000	0.005376
3619.000000	0.005417
3618.000000	0.005486
3617.000000	0.005557
3616.000000	0.005609
3615.000000	0.005638
3614.000000	0.005648
3613.000000	0.005648
3612.000000	0.005644
3611.000000	0.005643
3610.000000	0.005657
3609.000000	0.005689
3608.000000	0.005726
3607.000000	0.005750
3606.000000	0.005757
3605.000000	0.005756
3604.000000	0.005761
3603.000000	0.005781
3602.000000	0.005815
3601.000000	0.005855
3600.000000	0.005892
3599.000000	0.005922
3598.000000	0.005951
3597.000000	0.005982
3596.000000	0.006015
3595.000000	0.006046
3594.000000	0.006066
3593.000000	0.006074
3592.000000	0.006080
3591.000000	0.006094
3590.000000	0.006130
3589.000000	0.006193
3588.000000	0.006266
3587.000000	0.006316
3586.000000	0.006329
3585.000000	0.006319
3584.000000	0.006311
3583.000000	0.006325
3582.000000	0.006363
3581.000000	0.006412
3580.000000	0.006457
3579.000000	0.006494
3578.000000	0.006527
3577.000000	0.006561
3576.000000	0.006596
3575.000000	0.006631
3574.000000	0.006666
3573.000000	0.006704
3572.000000	0.006745
3571.000000	0.006787
3570.000000	0.006829
3569.000000	0.006876
3568.000000	0.006928
3567.000000	0.006973
3566.000000	0.007003
3565.000000	0.007019
3564.000000	0.007028
3563.000000	0.007035
3562.000000	0.007050
3561.000000	0.007083
3560.000000	0.007134
3559.000000	0.007197
3558.000000	0.007259
3557.000000	0.007313
3556.000000	0.007362
3555.000000	0.007411
3554.000000	0.007464
3553.000000	0.007510
3552.000000	0.007539
3551.000000	0.007548
3550.000000	0.007549
3549.000000	0.007555
3548.000000	0.007574
3547.000000	0.007600
3546.000000	0.007628
3545.000000	0.007661
3544.000000	0.007705
3543.000000	0.007758
3542.000000	0.007815
3541.000000	0.007864
3540.000000	0.007898
3539.000000	0.007921
3538.000000	0.007941
3537.000000	0.007966
3536.000000	0.007993
3535.000000	0.008013
3534.000000	0.008026
3533.000000	0.008035
3532.000000	0.008051
3531.000000	0.008076
3530.000000	0.008104
3529.000000	0.008134
3528.000000	0.008166
3527.000000	0.008200
3526.000000	0.008236
3525.000000	0.008269
3524.000000	0.008298
3523.000000	0.008326
3522.000000	0.008363
3521.000000	0.008411
3520.000000	0.008461
3519.000000	0.008499
3518.000000	0.008522
3517.000000	0.008541
3516.000000	0.008574
3515.000000	0.008622
3514.000000	0.008675
3513.000000	0.008718
3512.000000	0.008748
3511.000000	0.008768
3510.000000	0.008779
3509.000000	0.008779
3508.000000	0.008773
3507.000000	0.008776
3506.000000	0.008796
3505.000000	0.008833
3504.000000	0.008873
3503.000000	0.008905
3502.000000	0.008928
3501.000000	0.008948
3500.000000	0.008968
3499.000000	0.008991
3498.000000	0.009019
3497.000000	0.009056
3496.000000	0.009103
3495.000000	0.009153
3494.000000	0.009199
3493.000000	0.009235
3492.000000	0.009262
3491.000000	0.009288
3490.000000	0.009317
3489.000000	0.009355
3488.000000	0.009399
3487.000000	0.009444
3486.000000	0.009477
3485.000000	0.009497
3484.000000	0.009510
3483.000000	0.009529
3482.000000	0.009557
3481.000000	0.009592
3480.000000	0.009623
3479.000000	0.009646
3478.000000	0.009661
3477.000000	0.009676
3476.000000	0.009698
3475.000000	0.009731
3474.000000	0.009770
3473.000000	0.009803
3472.000000	0.009823
3471.000000	0.009829
3470.000000	0.009832
3469.000000	0.009848
3468.000000	0.009888
3467.000000	0.009947
3466.000000	0.010006
3465.000000	0.010047
3464.000000	0.010065
3463.000000	0.010071
3462.000000	0.010079
3461.000000	0.010095
3460.000000	0.010119
3459.000000	0.010152
3458.000000	0.010194
3457.000000	0.010237
3456.000000	0.010274
3455.000000	0.010301
3454.000000	0.010321
3453.000000	0.010345
3452.000000	0.010373
3451.000000	0.010403
3450.000000	0.010429
3449.000000	0.010449
3448.000000	0.010467
3447.000000	0.010491
3446.000000	0.010519
3445.000000	0.010549
3444.000000	0.010576
3443.000000	0.010598
3442.000000	0.010619
3441.000000	0.010645
3440.000000	0.010683
3439.000000	0.010731
3438.000000	0.010776
3437.000000	0.010806
3436.000000	0.010819
3435.000000	0.010822
3434.000000	0.010829
3433.000000	0.010844
3432.000000	0.010867
3431.000000	0.010896
3430.000000	0.010926
3429.000000	0.010956
3428.000000	0.010988
3427.000000	0.011022
3426.000000	0.011060
3425.000000	0.011095
3424.000000	0.011122
3423.000000	0.011146
3422.000000	0.011175
3421.000000	0.011211
3420.000000	0.011250
3419.000000	0.011283
3418.000000	0.011316
3417.000000	0.011352
3416.000000	0.011394
3415.000000	0.011434
3414.000000	0.011466
3413.000000	0.011486
3412.000000	0.011502
3411.000000	0.011517
3410.000000	0.011537
3409.000000	0.011563
3408.000000	0.011600
3407.000000	0.011645
3406.000000	0.011691
3405.000000	0.011720
3404.000000	0.011728
3403.000000	0.011726
3402.000000	0.011735
3401.000000	0.011765
3400.000000	0.011812
3399.000000	0.011865
3398.000000	0.011917
3397.000000	0.011963
3396.000000	0.011999
3395.000000	0.012026
3394.000000	0.012046
3393.000000	0.012066
3392.000000	0.012094
3391.000000	0.012132
3390.000000	0.012178
3389.000000	0.012224
3388.000000	0.012259
3387.000000	0.012283
3386.000000	0.012303
3385.000000	0.012326
3384.000000	0.012353
3383.000000	0.012380
3382.000000	0.012403
3381.000000	0.012424
3380.000000	0.012445
3379.000000	0.012465
3378.000000	0.012484
3377.000000	0.012502
3376.000000	0.012518
3375.000000	0.012538
3374.000000	0.012566
3373.000000	0.012603
3372.000000	0.012647
3371.000000	0.012696
3370.000000	0.012747
3369.000000	0.012797
3368.000000	0.012848
3367.000000	0.012898
3366.000000	0.012946
3365.000000	0.012986
3364.000000	0.013017
3363.000000	0.013042
3362.000000	0.013068
3361.000000	0.013103
3360.000000	0.013150
3359.000000	0.013209
3358.000000	0.013275
3357.000000	0.013343
3356.000000	0.013408
3355.000000	0.013470
3354.000000	0.013532
3353.000000	0.013596
3352.000000	0.013661
3351.000000	0.013724
3350.000000	0.013777
3349.000000	0.013816
3348.000000	0.013843
3347.000000	0.013871
3346.000000	0.013914
3345.000000	0.013974
3344.000000	0.014039
3343.000000	0.014097
3342.000000	0.014139
3341.000000	0.014172
3340.000000	0.014206
3339.000000	0.014249
3338.000000	0.014303
3337.000000	0.014361
3336.000000	0.014415
3335.000000	0.014462
3334.000000	0.014502
3333.000000	0.014537
3332.000000	0.014571
3331.000000	0.014607
3330.000000	0.014649
3329.000000	0.014692
3328.000000	0.014735
3327.000000	0.014774
3326.000000	0.014809
3325.000000	0.014838
3324.000000	0.014863
3323.000000	0.014894
3322.000000	0.014941
3321.000000	0.015001
3320.000000	0.015062
3319.000000	0.015111
3318.000000	0.015146
3317.000000	0.015168
3316.000000	0.015181
3315.000000	0.015189
3314.000000	0.015195
3313.000000	0.015201
3312.000000	0.015205
3311.000000	0.015212
3310.000000	0.015223
3309.000000	0.015240
3308.000000	0.015259
3307.000000	0.015279
3306.000000	0.015304
3305.000000	0.015336
3304.000000	0.015374
3303.000000	0.015421
3302.000000	0.015476
3301.000000	0.015530
3300.000000	0.015569
3299.000000	0.015582
3298.000000	0.015574
3297.000000	0.015560
3296.000000	0.015551
3295.000000	0.015552
3294.000000	0.015562
3293.000000	0.015578
3292.000000	0.015597
3291.000000	0.015619
3290.000000	0.015645
3289.000000	0.015676
3288.000000	0.015707
3287.000000	0.015734
3286.000000	0.015753
3285.000000	0.015757
3284.000000	0.015742
3283.000000	0.015713
3282.000000	0.015678
3281.000000	0.015649
3280.000000	0.015633
3279.000000	0.015627
3278.000000	0.015627
3277.000000	0.015628
3276.000000	0.015626
3275.000000	0.015616
3274.000000	0.015595
3273.000000	0.015558
3272.000000	0.015506
3271.000000	0.015454
3270.000000	0.015417
3269.000000	0.015408
3268.000000	0.015416
3267.000000	0.015423
3266.000000	0.015419
3265.000000	0.015400
3264.000000	0.015370
3263.000000	0.015332
3262.000000	0.015289
3261.000000	0.015249
3260.000000	0.015217
3259.000000	0.015190
3258.000000	0.015163
3257.000000	0.015129
3256.000000	0.015089
3255.000000	0.015045
3254.000000	0.015004
3253.000000	0.014969
3252.000000	0.014945
3251.000000	0.014939
3250.000000	0.014951
3249.000000	0.014971
3248.000000	0.014983
3247.000000	0.014975
3246.000000	0.014943
3245.000000	0.014893
3244.000000	0.014839
3243.000000	0.014799
3242.000000	0.014777
3241.000000	0.014766
3240.000000	0.014749
3239.000000	0.014720
3238.000000	0.014675
3237.000000	0.014618
3236.000000	0.014558
3235.000000	0.014511
3234.000000	0.014491
3233.000000	0.014497
3232.000000	0.014509
3231.000000	0.014505
3230.000000	0.014483
3229.000000	0.014450
3228.000000	0.014416
3227.000000	0.014388
3226.000000	0.014372
3225.000000	0.014369
3224.000000	0.014370
3223.000000	0.014362
3222.000000	0.014340
3221.000000	0.014310
3220.000000	0.014281
3219.000000	0.014262
3218.000000	0.014249
3217.000000	0.014233
3216.000000	0.014208
3215.000000	0.014176
3214.000000	0.014144
3213.000000	0.014117
3212.000000	0.014097
3211.000000	0.014084
3210.000000	0.014077
3209.000000	0.014069
3208.000000	0.014051
3207.000000	0.014018
3206.000000	0.013978
3205.000000	0.013945
3204.000000	0.013928
3203.000000	0.013922
3202.000000	0.013917
3201.000000	0.013901
3200.000000	0.013873
3199.000000	0.013842
3198.000000	0.013821
3197.000000	0.013812
3196.000000	0.013807
3195.000000	0.013795
3194.000000	0.013776
3193.000000	0.013746
3192.000000	0.013702
3191.000000	0.013648
3190.000000	0.013595
3189.000000	0.013555
3188.000000	0.013527
3187.000000	0.013498
3186.000000	0.013461
3185.000000	0.013419
3184.000000	0.013385
3183.000000	0.013366
3182.000000	0.013358
3181.000000	0.013345
3180.000000	0.013318
3179.000000	0.013282
3178.000000	0.013247
3177.000000	0.013219
3176.000000	0.013190
3175.000000	0.013150
3174.000000	0.013099
3173.000000	0.013046
3172.000000	0.012998
3171.000000	0.012962
3170.000000	0.012940
3169.000000	0.012925
3168.000000	0.012905
3167.000000	0.012867
3166.000000	0.012809
3165.000000	0.012742
3164.000000	0.012682
3163.000000	0.012644
3162.000000	0.012628
3161.000000	0.012622
3160.000000	0.012607
3159.000000	0.012573
3158.000000	0.012528
3157.000000	0.012488
3156.000000	0.012460
3155.000000	0.012441
3154.000000	0.012422
3153.000000	0.012396
3152.000000	0.012359
3151.000000	0.012314
3150.000000	0.012270
3149.000000	0.012234
3148.000000	0.012205
3147.000000	0.012177
3146.000000	0.012144
3145.000000	0.012105
3144.000000	0.012062
3143.000000	0.012020
3142.000000	0.011986
3141.000000	0.011963
3140.000000	0.011949
3139.000000	0.011934
3138.000000	0.011915
3137.000000	0.011887
3136.000000	0.011849
3135.000000	0.011801
3134.000000	0.011755
3133.000000	0.011730
3132.000000	0.011732
3131.000000	0.011751
3130.000000	0.011765
3129.000000	0.011762
3128.000000	0.011747
3127.000000	0.011729
3126.000000	0.011712
3125.000000	0.011686
3124.000000	0.011646
3123.000000	0.011596
3122.000000	0.011551
3121.000000	0.011520
3120.000000	0.011504
3119.000000	0.011497
3118.000000	0.011497
3117.000000	0.011501
3116.000000	0.011502
3115.000000	0.011501
3114.000000	0.011501
3113.000000	0.011510
3112.000000	0.011527
3111.000000	0.011545
3110.000000	0.011556
3109.000000	0.011564
3108.000000	0.011572
3107.000000	0.011581
3106.000000	0.011590
3105.000000	0.011599
3104.000000	0.011615
3103.000000	0.011640
3102.000000	0.011671
3101.000000	0.011696
3100.000000	0.011707
3099.000000	0.011703
3098.000000	0.011694
3097.000000	0.011688
3096.000000	0.011691
3095.000000	0.011696
3094.000000	0.011700
3093.000000	0.011702
3092.000000	0.011708
3091.000000	0.011729
3090.000000	0.011766
3089.000000	0.011808
3088.000000	0.011840
3087.000000	0.011854
3086.000000	0.011855
3085.000000	0.011855
3084.000000	0.011861
3083.000000	0.011873
3082.000000	0.011884
3081.000000	0.011887
3080.000000	0.011878
3079.000000	0.011860
3078.000000	0.011845
3077.000000	0.011844
3076.000000	0.011856
3075.000000	0.011874
3074.000000	0.011894
3073.000000	0.011917
3072.000000	0.011941
3071.000000	0.011962
3070.000000	0.011971
3069.000000	0.011967
3068.000000	0.011949
3067.000000	0.011926
3066.000000	0.011904
3065.000000	0.011890
3064.000000	0.011884
3063.000000	0.011882
3062.000000	0.011881
3061.000000	0.011877
3060.000000	0.011864
3059.000000	0.011838
3058.000000	0.011802
3057.000000	0.011763
3056.000000	0.011728
3055.000000	0.011701
3054.000000	0.011681
3053.000000	0.011662
3052.000000	0.011639
3051.000000	0.011609
3050.000000	0.011574
3049.000000	0.011537
3048.000000	0.011502
3047.000000	0.011468
3046.000000	0.011428
3045.000000	0.011372
3044.000000	0.011302
3043.000000	0.011239
3042.000000	0.011208
3041.000000	0.011214
3040.000000	0.011234
3039.000000	0.011237
3038.000000	0.011210
3037.000000	0.011162
3036.000000	0.011112
3035.000000	0.011070
3034.000000	0.011037
3033.000000	0.011004
3032.000000	0.010962
3031.000000	0.010910
3030.000000	0.010857
3029.000000	0.010810
3028.000000	0.010769
3027.000000	0.010726
3026.000000	0.010677
3025.000000	0.010627
3024.000000	0.010583
3023.000000	0.010545
3022.000000	0.010509
3021.000000	0.010467
3020.000000	0.010416
3019.000000	0.010357
3018.000000	0.010295
3017.000000	0.010239
3016.000000	0.010195
3015.000000	0.010168
3014.000000	0.010153
3013.000000	0.010137
3012.000000	0.010109
3011.000000	0.010069
3010.000000	0.010030
3009.000000	0.010000
3008.000000	0.009975
3007.000000	0.009948
3006.000000	0.009918
3005.000000	0.009894
3004.000000	0.009881
3003.000000	0.009875
3002.000000	0.009874
3001.000000	0.009872
3000.000000	0.009858
2999.000000	0.009828
2998.000000	0.009791
2997.000000	0.009769
2996.000000	0.009779
2995.000000	0.009817
2994.000000	0.009865
2993.000000	0.009903
2992.000000	0.009920
2991.000000	0.009920
2990.000000	0.009923
2989.000000	0.009947
2988.000000	0.010000
2987.000000	0.010075
2986.000000	0.010164
2985.000000	0.010264
2984.000000	0.010369
2983.000000	0.010472
2982.000000	0.010571
2981.000000	0.010675
2980.000000	0.010790
2979.000000	0.010911
2978.000000	0.011026
2977.000000	0.011129
2976.000000	0.011230
2975.000000	0.011344
2974.000000	0.011477
2973.000000	0.011625
2972.000000	0.011779
2971.000000	0.011935
2970.000000	0.012100
2969.000000	0.012286
2968.000000	0.012496
2967.000000	0.012714
2966.000000	0.012922
2965.000000	0.013109
2964.000000	0.013273
2963.000000	0.013424
2962.000000	0.013571
2961.000000	0.013718
2960.000000	0.013856
2959.000000	0.013973
2958.000000	0.014061
2957.000000	0.014125
2956.000000	0.014172
2955.000000	0.014204
2954.000000	0.014220
2953.000000	0.014218
2952.000000	0.014204
2951.000000	0.014186
2950.000000	0.014169
2949.000000	0.014153
2948.000000	0.014139
2947.000000	0.014136
2946.000000	0.014155
2945.000000	0.014203
2944.000000	0.014280
2943.000000	0.014382
2942.000000	0.014507
2941.000000	0.014655
2940.000000	0.014826
2939.000000	0.015018
2938.000000	0.015230
2937.000000	0.015454
2936.000000	0.015669
2935.000000	0.015860
2934.000000	0.016024
2933.000000	0.016172
2932.000000	0.016313
2931.000000	0.016447
2930.000000	0.016578
2929.000000	0.016717
2928.000000	0.016868
2927.000000	0.017017
2926.000000	0.017144
2925.000000	0.017235
2924.000000	0.017289
2923.000000	0.017313
2922.000000	0.017320
2921.000000	0.017323
2920.000000	0.017321
2919.000000	0.017297
2918.000000	0.017221
2917.000000	0.017074
2916.000000	0.016856
2915.000000	0.016586
2914.000000	0.016288
2913.000000	0.015981
2912.000000	0.015672
2911.000000	0.015367
2910.000000	0.015077
2909.000000	0.014814
2908.000000	0.014584
2907.000000	0.014382
2906.000000	0.014192
2905.000000	0.013998
2904.000000	0.013796
2903.000000	0.013597
2902.000000	0.013418
2901.000000	0.013272
2900.000000	0.013156
2899.000000	0.013057
2898.000000	0.012956
2897.000000	0.012844
2896.000000	0.012721
2895.000000	0.012596
2894.000000	0.012484
2893.000000	0.012394
2892.000000	0.012323
2891.000000	0.012259
2890.000000	0.012199
2889.000000	0.012145
2888.000000	0.012096
2887.000000	0.012048
2886.000000	0.012004
2885.000000	0.011979
2884.000000	0.011988
2883.000000	0.012031
2882.000000	0.012091
2881.000000	0.012155
2880.000000	0.012222
2879.000000	0.012301
2878.000000	0.012393
2877.000000	0.012493
2876.000000	0.012586
2875.000000	0.012662
2874.000000	0.012718
2873.000000	0.012760
2872.000000	0.012798
2871.000000	0.012832
2870.000000	0.012860
2869.000000	0.012879
2868.000000	0.012892
2867.000000	0.012907
2866.000000	0.012928
2865.000000	0.012957
2864.000000	0.012993
2863.000000	0.013034
2862.000000	0.013082
2861.000000	0.013143
2860.000000	0.013223
2859.000000	0.013325
2858.000000	0.013443
2857.000000	0.013560
2856.000000	0.013660
2855.000000	0.013740
2854.000000	0.013808
2853.000000	0.013869
2852.000000	0.013910
2851.000000	0.013908
2850.000000	0.013838
2849.000000	0.013691
2848.000000	0.013468
2847.000000	0.013188
2846.000000	0.012878
2845.000000	0.012574
2844.000000	0.012302
2843.000000	0.012076
2842.000000	0.011895
2841.000000	0.011749
2840.000000	0.011623
2839.000000	0.011503
2838.000000	0.011383
2837.000000	0.011265
2836.000000	0.011156
2835.000000	0.011062
2834.000000	0.010981
2833.000000	0.010906
2832.000000	0.010828
2831.000000	0.010747
2830.000000	0.010672
2829.000000	0.010613
2828.000000	0.010571
2827.000000	0.010537
2826.000000	0.010504
2825.000000	0.010468
2824.000000	0.010429
2823.000000	0.010389
2822.000000	0.010357
2821.000000	0.010340
2820.000000	0.010333
2819.000000	0.010327
2818.000000	0.010316
2817.000000	0.010302
2816.000000	0.010289
2815.000000	0.010274
2814.000000	0.010256
2813.000000	0.010240
2812.000000	0.010226
2811.000000	0.010200
2810.000000	0.010154
2809.000000	0.010098
2808.000000	0.010053
2807.000000	0.010035
2806.000000	0.010038
2805.000000	0.010045
2804.000000	0.010041
2803.000000	0.010018
2802.000000	0.009980
2801.000000	0.009937
2800.000000	0.009903
2799.000000	0.009888
2798.000000	0.009884
2797.000000	0.009878
2796.000000	0.009861
2795.000000	0.009837
2794.000000	0.009821
2793.000000	0.009817
2792.000000	0.009815
2791.000000	0.009800
2790.000000	0.009771
2789.000000	0.009737
2788.000000	0.009710
2787.000000	0.009694
2786.000000	0.009685
2785.000000	0.009676
2784.000000	0.009664
2783.000000	0.009650
2782.000000	0.009639
2781.000000	0.009631
2780.000000	0.009623
2779.000000	0.009609
2778.000000	0.009588
2777.000000	0.009563
2776.000000	0.009534
2775.000000	0.009498
2774.000000	0.009456
2773.000000	0.009419
2772.000000	0.009402
2771.000000	0.009408
2770.000000	0.009427
2769.000000	0.009443
2768.000000	0.009448
2767.000000	0.009442
2766.000000	0.009432
2765.000000	0.009425
2764.000000	0.009423
2763.000000	0.009421
2762.000000	0.009411
2761.000000	0.009398
2760.000000	0.009389
2759.000000	0.009385
2758.000000	0.009377
2757.000000	0.009362
2756.000000	0.009340
2755.000000	0.009320
2754.000000	0.009304
2753.000000	0.009292
2752.000000	0.009283
2751.000000	0.009279
2750.000000	0.009283
2749.000000	0.009293
2748.000000	0.009298
2747.000000	0.009288
2746.000000	0.009263
2745.000000	0.009233
2744.000000	0.009215
2743.000000	0.009214
2742.000000	0.009224
2741.000000	0.009239
2740.000000	0.009253
2739.000000	0.009261
2738.000000	0.009260
2737.000000	0.009252
2736.000000	0.009243
2735.000000	0.009239
2734.000000	0.009236
2733.000000	0.009226
2732.000000	0.009207
2731.000000	0.009183
2730.000000	0.009159
2729.000000	0.009136
2728.000000	0.009115
2727.000000	0.009100
2726.000000	0.009098
2725.000000	0.009110
2724.000000	0.009127
2723.000000	0.009138
2722.000000	0.009137
2721.000000	0.009124
2720.000000	0.009103
2719.000000	0.009078
2718.000000	0.009056
2717.000000	0.009041
2716.000000	0.009036
2715.000000	0.009036
2714.000000	0.009037
2713.000000	0.009033
2712.000000	0.009025
2711.000000	0.009018
2710.000000	0.009017
2709.000000	0.009022
2708.000000	0.009026
2707.000000	0.009018
2706.000000	0.008998
2705.000000	0.008971
2704.000000	0.008946
2703.000000	0.008928
2702.000000	0.008918
2701.000000	0.008915
2700.000000	0.008913
2699.000000	0.008901
2698.000000	0.008874
2697.000000	0.008842
2696.000000	0.008820
2695.000000	0.008818
2694.000000	0.008830
2693.000000	0.008844
2692.000000	0.008850
2691.000000	0.008848
2690.000000	0.008844
2689.000000	0.008845
2688.000000	0.008851
2687.000000	0.008857
2686.000000	0.008855
2685.000000	0.008845
2684.000000	0.008833
2683.000000	0.008826
2682.000000	0.008829
2681.000000	0.008837
2680.000000	0.008845
2679.000000	0.008849
2678.000000	0.008848
2677.000000	0.008849
2676.000000	0.008853
2675.000000	0.008855
2674.000000	0.008850
2673.000000	0.008838
2672.000000	0.008824
2671.000000	0.008814
2670.000000	0.008810
2669.000000	0.008808
2668.000000	0.008805
2667.000000	0.008800
2666.000000	0.008794
2665.000000	0.008788
2664.000000	0.008784
2663.000000	0.008786
2662.000000	0.008794
2661.000000	0.008807
2660.000000	0.008826
2659.000000	0.008846
2658.000000	0.008862
2657.000000	0.008870
2656.000000	0.008865
2655.000000	0.008849
2654.000000	0.008827
2653.000000	0.008802
2652.000000	0.008774
2651.000000	0.008750
2650.000000	0.008736
2649.000000	0.008733
2648.000000	0.008734
2647.000000	0.008731
2646.000000	0.008719
2645.000000	0.008697
2644.000000	0.008665
2643.000000	0.008629
2642.000000	0.008602
2641.000000	0.008591
2640.000000	0.008591
2639.000000	0.008588
2638.000000	0.008573
2637.000000	0.008549
2636.000000	0.008526
2635.000000	0.008505
2634.000000	0.008479
2633.000000	0.008445
2632.000000	0.008407
2631.000000	0.008381
2630.000000	0.008374
2629.000000	0.008384
2628.000000	0.008395
2627.000000	0.008389
2626.000000	0.008361
2625.000000	0.008321
2624.000000	0.008293
2623.000000	0.008286
2622.000000	0.008288
2621.000000	0.008280
2620.000000	0.008254
2619.000000	0.008221
2618.000000	0.008190
2617.000000	0.008166
2616.000000	0.008144
2615.000000	0.008130
2614.000000	0.008129
2613.000000	0.008137
2612.000000	0.008143
2611.000000	0.008137
2610.000000	0.008118
2609.000000	0.008091
2608.000000	0.008065
2607.000000	0.008047
2606.000000	0.008045
2605.000000	0.008056
2604.000000	0.008074
2603.000000	0.008093
2602.000000	0.008110
2601.000000	0.008121
2600.000000	0.008118
2599.000000	0.008094
2598.000000	0.008054
2597.000000	0.008008
2596.000000	0.007964
2595.000000	0.007925
2594.000000	0.007897
2593.000000	0.007884
2592.000000	0.007881
2591.000000	0.007881
2590.000000	0.007882
2589.000000	0.007887
2588.000000	0.007896
2587.000000	0.007897
2586.000000	0.007878
2585.000000	0.007834
2584.000000	0.007776
2583.000000	0.007730
2582.000000	0.007717
2581.000000	0.007739
2580.000000	0.007781
2579.000000	0.007817
2578.000000	0.007828
2577.000000	0.007812
2576.000000	0.007777
2575.000000	0.007735
2574.000000	0.007700
2573.000000	0.007688
2572.000000	0.007709
2571.000000	0.007755
2570.000000	0.007800
2569.000000	0.007812
2568.000000	0.007785
2567.000000	0.007734
2566.000000	0.007686
2565.000000	0.007655
2564.000000	0.007642
2563.000000	0.007645
2562.000000	0.007661
2561.000000	0.007682
2560.000000	0.007691
2559.000000	0.007678
2558.000000	0.007655
2557.000000	0.007638
2556.000000	0.007630
2555.000000	0.007621
2554.000000	0.007606
2553.000000	0.007589
2552.000000	0.007574
2551.000000	0.007560
2550.000000	0.007550
2549.000000	0.007544
2548.000000	0.007544
2547.000000	0.007553
2546.000000	0.007574
2545.000000	0.007602
2544.000000	0.007625
2543.000000	0.007631
2542.000000	0.007617
2541.000000	0.007596
2540.000000	0.007582
2539.000000	0.007587
2538.000000	0.007610
2537.000000	0.007644
2536.000000	0.007672
2535.000000	0.007684
2534.000000	0.007678
2533.000000	0.007658
2532.000000	0.007627
2531.000000	0.007592
2530.000000	0.007561
2529.000000	0.007544
2528.000000	0.007538
2527.000000	0.007539
2526.000000	0.007548
2525.000000	0.007575
2524.000000	0.007622
2523.000000	0.007679
2522.000000	0.007731
2521.000000	0.007765
2520.000000	0.007765
2519.000000	0.007722
2518.000000	0.007648
2517.000000	0.007578
2516.000000	0.007539
2515.000000	0.007537
2514.000000	0.007559
2513.000000	0.007586
2512.000000	0.007610
2511.000000	0.007633
2510.000000	0.007653
2509.000000	0.007664
2508.000000	0.007653
2507.000000	0.007608
2506.000000	0.007532
2505.000000	0.007445
2504.000000	0.007369
2503.000000	0.007327
2502.000000	0.007326
2501.000000	0.007356
2500.000000	0.007393
2499.000000	0.007416
2498.000000	0.007420
2497.000000	0.007423
2496.000000	0.007437
2495.000000	0.007460
2494.000000	0.007474
2493.000000	0.007461
2492.000000	0.007417
2491.000000	0.007358
2490.000000	0.007305
2489.000000	0.007276
2488.000000	0.007273
2487.000000	0.007288
2486.000000	0.007308
2485.000000	0.007327
2484.000000	0.007346
2483.000000	0.007367
2482.000000	0.007385
2481.000000	0.007381
2480.000000	0.007346
2479.000000	0.007288
2478.000000	0.007235
2477.000000	0.007199
2476.000000	0.007178
2475.000000	0.007160
2474.000000	0.007151
2473.000000	0.007163
2472.000000	0.007196
2471.000000	0.007230
2470.000000	0.007252
2469.000000	0.007264
2468.000000	0.007276
2467.000000	0.007295
2466.000000	0.007314
2465.000000	0.007322
2464.000000	0.007311
2463.000000	0.007288
2462.000000	0.007270
2461.000000	0.007268
2460.000000	0.007283
2459.000000	0.007304
2458.000000	0.007319
2457.000000	0.007317
2456.000000	0.007289
2455.000000	0.007240
2454.000000	0.007192
2453.000000	0.007173
2452.000000	0.007197
2451.000000	0.007250
2450.000000	0.007300
2449.000000	0.007309
2448.000000	0.007262
2447.000000	0.007180
2446.000000	0.007109
2445.000000	0.007078
2444.000000	0.007082
2443.000000	0.007102
2442.000000	0.007131
2441.000000	0.007170
2440.000000	0.007208
2439.000000	0.007222
2438.000000	0.007205
2437.000000	0.007177
2436.000000	0.007164
2435.000000	0.007168
2434.000000	0.007172
2433.000000	0.007160
2432.000000	0.007130
2431.000000	0.007092
2430.000000	0.007056
2429.000000	0.007026
2428.000000	0.007008
2427.000000	0.007003
2426.000000	0.007005
2425.000000	0.006999
2424.000000	0.006981
2423.000000	0.006971
2422.000000	0.006985
2421.000000	0.007011
2420.000000	0.007021
2419.000000	0.007005
2418.000000	0.006987
2417.000000	0.006991
2416.000000	0.007010
2415.000000	0.007026
2414.000000	0.007031
2413.000000	0.007032
2412.000000	0.007027
2411.000000	0.007011
2410.000000	0.006987
2409.000000	0.006959
2408.000000	0.006925
2407.000000	0.006884
2406.000000	0.006856
2405.000000	0.006859
2404.000000	0.006894
2403.000000	0.006939
2402.000000	0.006975
2401.000000	0.006995
2400.000000	0.006999
2399.000000	0.006988
2398.000000	0.006971
2397.000000	0.006963
2396.000000	0.006973
2395.000000	0.006998
2394.000000	0.007025
2393.000000	0.007035
2392.000000	0.007019
2391.000000	0.006989
2390.000000	0.006971
2389.000000	0.006982
2388.000000	0.007010
2387.000000	0.007029
2386.000000	0.007021
2385.000000	0.006980
2384.000000	0.006896
2383.000000	0.006769
2382.000000	0.006624
2381.000000	0.006508
2380.000000	0.006451
2379.000000	0.006452
2378.000000	0.006501
2377.000000	0.006587
2376.000000	0.006693
2375.000000	0.006783
2374.000000	0.006820
2373.000000	0.006790
2372.000000	0.006717
2371.000000	0.006646
2370.000000	0.006605
2369.000000	0.006582
2368.000000	0.006549
2367.000000	0.006508
2366.000000	0.006499
2365.000000	0.006553
2364.000000	0.006657
2363.000000	0.006767
2362.000000	0.006838
2361.000000	0.006848
2360.000000	0.006812
2359.000000	0.006770
2358.000000	0.006745
2357.000000	0.006727
2356.000000	0.006710
2355.000000	0.006719
2354.000000	0.006754
2353.000000	0.006775
2352.000000	0.006763
2351.000000	0.006746
2350.000000	0.006749
2349.000000	0.006768
2348.000000	0.006785
2347.000000	0.006782
2346.000000	0.006782
2345.000000	0.006827
2344.000000	0.006911
2343.000000	0.006975
2342.000000	0.006976
2341.000000	0.006930
2340.000000	0.006883
2339.000000	0.006864
2338.000000	0.006870
2337.000000	0.006880
2336.000000	0.006885
2335.000000	0.006878
2334.000000	0.006846
2333.000000	0.006788
2332.000000	0.006734
2331.000000	0.006720
2330.000000	0.006758
2329.000000	0.006830
2328.000000	0.006931
2327.000000	0.007055
2326.000000	0.007184
2325.000000	0.007283
2324.000000	0.007320
2323.000000	0.007298
2322.000000	0.007257
2321.000000	0.007250
2320.000000	0.007298
2319.000000	0.007362
2318.000000	0.007391
2317.000000	0.007359
2316.000000	0.007285
2315.000000	0.007193
2314.000000	0.007101
2313.000000	0.007024
2312.000000	0.006983
2311.000000	0.006986
2310.000000	0.007022
2309.000000	0.007057
2308.000000	0.007071
2307.000000	0.007059
2306.000000	0.007040
2305.000000	0.007023
2304.000000	0.007012
2303.000000	0.007003
2302.000000	0.007002
2301.000000	0.007014
2300.000000	0.007032
2299.000000	0.007037
2298.000000	0.007036
2297.000000	0.007049
2296.000000	0.007088
2295.000000	0.007136
2294.000000	0.007166
2293.000000	0.007171
2292.000000	0.007172
2291.000000	0.007190
2290.000000	0.007225
2289.000000	0.007259
2288.000000	0.007273
2287.000000	0.007263
2286.000000	0.007250
2285.000000	0.007251
2284.000000	0.007259
2283.000000	0.007247
2282.000000	0.007202
2281.000000	0.007136
2280.000000	0.007079
2279.000000	0.007054
2278.000000	0.007078
2277.000000	0.007142
2276.000000	0.007207
2275.000000	0.007229
2274.000000	0.007193
2273.000000	0.007127
2272.000000	0.007064
2271.000000	0.007006
2270.000000	0.006944
2269.000000	0.006879
2268.000000	0.006828
2267.000000	0.006805
2266.000000	0.006816
2265.000000	0.006853
2264.000000	0.006889
2263.000000	0.006895
2262.000000	0.006872
2261.000000	0.006852
2260.000000	0.006856
2259.000000	0.006869
2258.000000	0.006856
2257.000000	0.006796
2256.000000	0.006694
2255.000000	0.006580
2254.000000	0.006506
2253.000000	0.006511
2252.000000	0.006579
2251.000000	0.006646
2250.000000	0.006662
2249.000000	0.006640
2248.000000	0.006623
2247.000000	0.006634
2246.000000	0.006673
2245.000000	0.006739
2244.000000	0.006830
2243.000000	0.006919
2242.000000	0.006965
2241.000000	0.006954
2240.000000	0.006908
2239.000000	0.006853
2238.000000	0.006789
2237.000000	0.006699
2236.000000	0.006589
2235.000000	0.006496
2234.000000	0.006464
2233.000000	0.006492
2232.000000	0.006535
2231.000000	0.006562
2230.000000	0.006589
2229.000000	0.006632
2228.000000	0.006657
2227.000000	0.006615
2226.000000	0.006529
2225.000000	0.006479
2224.000000	0.006504
2223.000000	0.006546
2222.000000	0.006526
2221.000000	0.006440
2220.000000	0.006355
2219.000000	0.006328
2218.000000	0.006369
2217.000000	0.006454
2216.000000	0.006550
2215.000000	0.006626
2214.000000	0.006674
2213.000000	0.006706
2212.000000	0.006728
2211.000000	0.006717
2210.000000	0.006637
2209.000000	0.006501
2208.000000	0.006372
2207.000000	0.006317
2206.000000	0.006350
2205.000000	0.006420
2204.000000	0.006468
2203.000000	0.006472
2202.000000	0.006443
2201.000000	0.006386
2200.000000	0.006292
2199.000000	0.006197
2198.000000	0.006185
2197.000000	0.006313
2196.000000	0.006531
2195.000000	0.006730
2194.000000	0.006851
2193.000000	0.006902
2192.000000	0.006884
2191.000000	0.006777
2190.000000	0.006606
2189.000000	0.006468
2188.000000	0.006438
2187.000000	0.006485
2186.000000	0.006504
2185.000000	0.006422
2184.000000	0.006240
2183.000000	0.006006
2182.000000	0.005788
2181.000000	0.005648
2180.000000	0.005615
2179.000000	0.005683
2178.000000	0.005826
2177.000000	0.006014
2176.000000	0.006202
2175.000000	0.006333
2174.000000	0.006364
2173.000000	0.006292
2172.000000	0.006151
2171.000000	0.006001
2170.000000	0.005906
2169.000000	0.005906
2168.000000	0.005991
2167.000000	0.006113
2166.000000	0.006220
2165.000000	0.006284
2164.000000	0.006310
2163.000000	0.006319
2162.000000	0.006282
2161.000000	0.006069
2160.000000	0.005533
2159.000000	0.004718
2158.000000	0.003941
2157.000000	0.003522
2156.000000	0.003527
2155.000000	0.003827
2154.000000	0.004294
2153.000000	0.004805
2152.000000	0.005209
2151.000000	0.005413
2150.000000	0.005481
2149.000000	0.005562
2148.000000	0.005713
2147.000000	0.005854
2146.000000	0.005894
2145.000000	0.005832
2144.000000	0.005751
2143.000000	0.005737
2142.000000	0.005810
2141.000000	0.005920
2140.000000	0.005978
2139.000000	0.005946
2138.000000	0.005857
2137.000000	0.005766
2136.000000	0.005700
2135.000000	0.005682
2134.000000	0.005749
2133.000000	0.005882
2132.000000	0.005971
2131.000000	0.005926
2130.000000	0.005789
2129.000000	0.005697
2128.000000	0.005739
2127.000000	0.005890
2126.000000	0.006071
2125.000000	0.006220
2124.000000	0.006303
2123.000000	0.006329
2122.000000	0.006354
2121.000000	0.006435
2120.000000	0.006562
2119.000000	0.006668
2118.000000	0.006705
2117.000000	0.006681
2116.000000	0.006627
2115.000000	0.006555
2114.000000	0.006472
2113.000000	0.006395
2112.000000	0.006329
2111.000000	0.006278
2110.000000	0.006264
2109.000000	0.006320
2108.000000	0.006426
2107.000000	0.006512
2106.000000	0.006524
2105.000000	0.006481
2104.000000	0.006438
2103.000000	0.006420
2102.000000	0.006410
2101.000000	0.006379
2100.000000	0.006320
2099.000000	0.006254
2098.000000	0.006213
2097.000000	0.006206
2096.000000	0.006196
2095.000000	0.006150
2094.000000	0.006097
2093.000000	0.006109
2092.000000	0.006206
2091.000000	0.006330
2090.000000	0.006406
2089.000000	0.006403
2088.000000	0.006335
2087.000000	0.006243
2086.000000	0.006178
2085.000000	0.006178
2084.000000	0.006232
2083.000000	0.006284
2082.000000	0.006292
2081.000000	0.006251
2080.000000	0.006176
2079.000000	0.006099
2078.000000	0.006069
2077.000000	0.006115
2076.000000	0.006201
2075.000000	0.006250
2074.000000	0.006236
2073.000000	0.006208
2072.000000	0.006214
2071.000000	0.006228
2070.000000	0.006200
2069.000000	0.006128
2068.000000	0.006060
2067.000000	0.006043
2066.000000	0.006092
2065.000000	0.006175
2064.000000	0.006224
2063.000000	0.006189
2062.000000	0.006098
2061.000000	0.006036
2060.000000	0.006050
2059.000000	0.006106
2058.000000	0.006150
2057.000000	0.006146
2056.000000	0.006078
2055.000000	0.005959
2054.000000	0.005854
2053.000000	0.005848
2052.000000	0.005944
2051.000000	0.006045
2050.000000	0.006066
2049.000000	0.006003
2048.000000	0.005897
2047.000000	0.005756
2046.000000	0.005591
2045.000000	0.005463
2044.000000	0.005433
2043.000000	0.005491
2042.000000	0.005582
2041.000000	0.005679
2040.000000	0.005770
2039.000000	0.005824
2038.000000	0.005809
2037.000000	0.005726
2036.000000	0.005585
2035.000000	0.005383
2034.000000	0.005145
2033.000000	0.004956
2032.000000	0.004897
2031.000000	0.004972
2030.000000	0.005116
2029.000000	0.005251
2028.000000	0.005318
2027.000000	0.005314
2026.000000	0.005300
2025.000000	0.005324
2024.000000	0.005347
2023.000000	0.005290
2022.000000	0.005157
2021.000000	0.005029
2020.000000	0.004940
2019.000000	0.004847
2018.000000	0.004739
2017.000000	0.004688
2016.000000	0.004751
2015.000000	0.004879
2014.000000	0.004988
2013.000000	0.005033
2012.000000	0.005015
2011.000000	0.004961
2010.000000	0.004916
2009.000000	0.004897
2008.000000	0.004874
2007.000000	0.004826
2006.000000	0.004825
2005.000000	0.004954
2004.000000	0.005161
2003.000000	0.005293
2002.000000	0.005281
2001.000000	0.005202
2000.000000	0.005169
1999.000000	0.005216
1998.000000	0.005312
1997.000000	0.005413
1996.000000	0.005465
1995.000000	0.005440
1994.000000	0.005373
1993.000000	0.005340
1992.000000	0.005371
1991.000000	0.005418
1990.000000	0.005440
1989.000000	0.005440
1988.000000	0.005411
1987.000000	0.005333
1986.000000	0.005242
1985.000000	0.005234
1984.000000	0.005369
1983.000000	0.005613
1982.000000	0.005880
1981.000000	0.006075
1980.000000	0.006087
1979.000000	0.005843
1978.000000	0.005423
1977.000000	0.005059
1976.000000	0.004942
1975.000000	0.005050
1974.000000	0.005226
1973.000000	0.005329
1972.000000	0.005309
1971.000000	0.005218
1970.000000	0.005159
1969.000000	0.005138
1968.000000	0.005010
1967.000000	0.004653
1966.000000	0.004197
1965.000000	0.003926
1964.000000	0.003962
1963.000000	0.004183
1962.000000	0.004421
1961.000000	0.004607
1960.000000	0.004725
1959.000000	0.004757
1958.000000	0.004730
1957.000000	0.004714
1956.000000	0.004739
1955.000000	0.004771
1954.000000	0.004799
1953.000000	0.004869
1952.000000	0.004980
1951.000000	0.005059
1950.000000	0.005061
1949.000000	0.005023
1948.000000	0.004995
1947.000000	0.004961
1946.000000	0.004899
1945.000000	0.004856
1944.000000	0.004914
1943.000000	0.005087
1942.000000	0.005295
1941.000000	0.005422
1940.000000	0.005405
1939.000000	0.005266
1938.000000	0.005092
1937.000000	0.004974
1936.000000	0.004935
1935.000000	0.004946
1934.000000	0.004990
1933.000000	0.005063
1932.000000	0.005121
1931.000000	0.005118
1930.000000	0.005077
1929.000000	0.005078
1928.000000	0.005142
1927.000000	0.005202
1926.000000	0.005205
1925.000000	0.005163
1924.000000	0.005101
1923.000000	0.005019
1922.000000	0.004938
1921.000000	0.004914
1920.000000	0.004970
1919.000000	0.005054
1918.000000	0.005125
1917.000000	0.005202
1916.000000	0.005305
1915.000000	0.005387
1914.000000	0.005393
1913.000000	0.005328
1912.000000	0.005243
1911.000000	0.005184
1910.000000	0.005166
1909.000000	0.005184
1908.000000	0.005205
1907.000000	0.005173
1906.000000	0.005082
1905.000000	0.004991
1904.000000	0.004962
1903.000000	0.004990
1902.000000	0.005027
1901.000000	0.005041
1900.000000	0.005038
1899.000000	0.005030
1898.000000	0.005033
1897.000000	0.005060
1896.000000	0.005096
1895.000000	0.005106
1894.000000	0.005083
1893.000000	0.005060
1892.000000	0.005067
1891.000000	0.005088
1890.000000	0.005087
1889.000000	0.005058
1888.000000	0.005025
1887.000000	0.005011
1886.000000	0.005019
1885.000000	0.005044
1884.000000	0.005067
1883.000000	0.005067
1882.000000	0.005044
1881.000000	0.005017
1880.000000	0.005003
1879.000000	0.004997
1878.000000	0.004998
1877.000000	0.005020
1876.000000	0.005052
1875.000000	0.005052
1874.000000	0.004996
1873.000000	0.004918
1872.000000	0.004869
1871.000000	0.004848
1870.000000	0.004819
1869.000000	0.004776
1868.000000	0.004760
1867.000000	0.004799
1866.000000	0.004874
1865.000000	0.004944
1864.000000	0.004972
1863.000000	0.004957
1862.000000	0.004931
1861.000000	0.004926
1860.000000	0.004944
1859.000000	0.004963
1858.000000	0.004971
1857.000000	0.004977
1856.000000	0.004975
1855.000000	0.004955
1854.000000	0.004920
1853.000000	0.004892
1852.000000	0.004880
1851.000000	0.004864
1850.000000	0.004818
1849.000000	0.004747
1848.000000	0.004680
1847.000000	0.004645
1846.000000	0.004647
1845.000000	0.004661
1844.000000	0.004659
1843.000000	0.004638
1842.000000	0.004609
1841.000000	0.004593
1840.000000	0.004606
1839.000000	0.004636
1838.000000	0.004672
1837.000000	0.004698
1836.000000	0.004692
1835.000000	0.004639
1834.000000	0.004569
1833.000000	0.004532
1832.000000	0.004557
1831.000000	0.004598
1830.000000	0.004603
1829.000000	0.004584
1828.000000	0.004591
1827.000000	0.004633
1826.000000	0.004670
1825.000000	0.004673
1824.000000	0.004665
1823.000000	0.004675
1822.000000	0.004704
1821.000000	0.004735
1820.000000	0.004747
1819.000000	0.004720
1818.000000	0.004657
1817.000000	0.004583
1816.000000	0.004523
1815.000000	0.004482
1814.000000	0.004456
1813.000000	0.004454
1812.000000	0.004472
1811.000000	0.004488
1810.000000	0.004495
1809.000000	0.004512
1808.000000	0.004551
1807.000000	0.004595
1806.000000	0.004626
1805.000000	0.004647
1804.000000	0.004677
1803.000000	0.004729
1802.000000	0.004798
1801.000000	0.004882
1800.000000	0.004964
1799.000000	0.005010
1798.000000	0.004995
1797.000000	0.004926
1796.000000	0.004842
1795.000000	0.004791
1794.000000	0.004785
1793.000000	0.004799
1792.000000	0.004804
1791.000000	0.004785
1790.000000	0.004744
1789.000000	0.004700
1788.000000	0.004673
1787.000000	0.004660
1786.000000	0.004646
1785.000000	0.004611
1784.000000	0.004561
1783.000000	0.004527
1782.000000	0.004513
1781.000000	0.004518
1780.000000	0.004531
1779.000000	0.004533
1778.000000	0.004495
1777.000000	0.004400
1776.000000	0.004288
1775.000000	0.004237
1774.000000	0.004272
1773.000000	0.004329
1772.000000	0.004364
1771.000000	0.004399
1770.000000	0.004469
1769.000000	0.004571
1768.000000	0.004657
1767.000000	0.004694
1766.000000	0.004704
1765.000000	0.004742
1764.000000	0.004830
1763.000000	0.004935
1762.000000	0.005009
1761.000000	0.005070
1760.000000	0.005176
1759.000000	0.005370
1758.000000	0.005646
1757.000000	0.005953
1756.000000	0.006237
1755.000000	0.006477
1754.000000	0.006711
1753.000000	0.007008
1752.000000	0.007407
1751.000000	0.007886
1750.000000	0.008407
1749.000000	0.008925
1748.000000	0.009392
1747.000000	0.009787
1746.000000	0.010123
1745.000000	0.010428
1744.000000	0.010701
1743.000000	0.010931
1742.000000	0.011131
1741.000000	0.011277
1740.000000	0.011261
1739.000000	0.011051
1738.000000	0.010771
1737.000000	0.010579
1736.000000	0.010507
1735.000000	0.010352
1734.000000	0.009982
1733.000000	0.009649
1732.000000	0.009528
1731.000000	0.009476
1730.000000	0.009347
1729.000000	0.009123
1728.000000	0.008856
1727.000000	0.008579
1726.000000	0.008303
1725.000000	0.008045
1724.000000	0.007789
1723.000000	0.007487
1722.000000	0.007138
1721.000000	0.006796
1720.000000	0.006504
1719.000000	0.006247
1718.000000	0.006043
1717.000000	0.005995
1716.000000	0.006123
1715.000000	0.006293
1714.000000	0.006402
1713.000000	0.006472
1712.000000	0.006539
1711.000000	0.006584
1710.000000	0.006593
1709.000000	0.006626
1708.000000	0.006739
1707.000000	0.006919
1706.000000	0.007022
1705.000000	0.007085
1704.000000	0.007027
1703.000000	0.007939
1702.000000	0.008350
1701.000000	0.008637
1700.000000	0.008998
1699.000000	0.009233
1698.000000	0.009419
1697.000000	0.009614
1696.000000	0.009889
1695.000000	0.010207
1694.000000	0.010527
1693.000000	0.010857
1692.000000	0.011207
1691.000000	0.011578
1690.000000	0.011921
1689.000000	0.012300
1688.000000	0.012597
1687.000000	0.013054
1686.000000	0.012344
1685.000000	0.012778
1684.000000	0.013555
1683.000000	0.014087
1682.000000	0.014577
1681.000000	0.015014
1680.000000	0.015460
1679.000000	0.015866
1678.000000	0.016296
1677.000000	0.016830
1676.000000	0.017435
1675.000000	0.017982
1674.000000	0.018422
1673.000000	0.018847
1672.000000	0.019347
1671.000000	0.019942
1670.000000	0.020596
1669.000000	0.021256
1668.000000	0.021861
1667.000000	0.022374
1666.000000	0.022840
1665.000000	0.023355
1664.000000	0.023942
1663.000000	0.024530
1662.000000	0.025054
1661.000000	0.025531
1660.000000	0.025989
1659.000000	0.026369
1658.000000	0.026570
1657.000000	0.026591
1656.000000	0.026626
1655.000000	0.026933
1654.000000	0.027486
1653.000000	0.027950
1652.000000	0.028278
1651.000000	0.028614
1650.000000	0.028897
1649.000000	0.029141
1648.000000	0.029436
1647.000000	0.029743
1646.000000	0.029948
1645.000000	0.030098
1644.000000	0.030264
1643.000000	0.030421
1642.000000	0.030523
1641.000000	0.030561
1640.000000	0.030553
1639.000000	0.030543
1638.000000	0.030632
1637.000000	0.030868
1636.000000	0.031130
1635.000000	0.031245
1634.000000	0.031261
1633.000000	0.031280
1632.000000	0.031305
1631.000000	0.031313
1630.000000	0.031277
1629.000000	0.031169
1628.000000	0.030979
1627.000000	0.030739
1626.000000	0.030512
1625.000000	0.030314
1624.000000	0.030067
1623.000000	0.029679
1622.000000	0.029167
1621.000000	0.028619
1620.000000	0.028083
1619.000000	0.027581
1618.000000	0.027101
1617.000000	0.026581
1616.000000	0.026064
1615.000000	0.025655
1614.000000	0.025341
1613.000000	0.025028
1612.000000	0.024654
1611.000000	0.024213
1610.000000	0.023746
1609.000000	0.023288
1608.000000	0.022846
1607.000000	0.022426
1606.000000	0.022038
1605.000000	0.021669
1604.000000	0.021300
1603.000000	0.020924
1602.000000	0.020559
1601.000000	0.020221
1600.000000	0.019913
1599.000000	0.019638
1598.000000	0.019398
1597.000000	0.019188
1596.000000	0.018991
1595.000000	0.018799
1594.000000	0.018626
1593.000000	0.018478
1592.000000	0.018353
1591.000000	0.018249
1590.000000	0.018175
1589.000000	0.018130
1588.000000	0.018105
1587.000000	0.018094
1586.000000	0.018107
1585.000000	0.018141
1584.000000	0.018200
1583.000000	0.018291
1582.000000	0.018393
1581.000000	0.018435
1580.000000	0.018381
1579.000000	0.018290
1578.000000	0.018323
1577.000000	0.018519
1576.000000	0.018814
1575.000000	0.019027
1574.000000	0.019515
1573.000000	0.019763
1572.000000	0.019909
1571.000000	0.020105
1570.000000	0.020301
1569.000000	0.020551
1568.000000	0.020818
1567.000000	0.021104
1566.000000	0.021414
1565.000000	0.021744
1564.000000	0.022067
1563.000000	0.022374
1562.000000	0.022686
1561.000000	0.023048
1560.000000	0.023453
1559.000000	0.023903
1558.000000	0.024238
1557.000000	0.024646
1556.000000	0.024446
1555.000000	0.024720
1554.000000	0.025199
1553.000000	0.025548
1552.000000	0.025942
1551.000000	0.026298
1550.000000	0.026627
1549.000000	0.026870
1548.000000	0.027053
1547.000000	0.027225
1546.000000	0.027403
1545.000000	0.027574
1544.000000	0.027707
1543.000000	0.027787
1542.000000	0.027867
1541.000000	0.028026
1540.000000	0.028198
1539.000000	0.028289
1538.000000	0.028395
1537.000000	0.028546
1536.000000	0.028683
1535.000000	0.028758
1534.000000	0.028692
1533.000000	0.028507
1532.000000	0.028317
1531.000000	0.028174
1530.000000	0.028051
1529.000000	0.027920
1528.000000	0.027782
1527.000000	0.027624
1526.000000	0.027408
1525.000000	0.027147
1524.000000	0.026916
1523.000000	0.026766
1522.000000	0.026664
1521.000000	0.026569
1520.000000	0.026529
1519.000000	0.026559
1518.000000	0.026582
1517.000000	0.026529
1516.000000	0.026392
1515.000000	0.026221
1514.000000	0.026043
1513.000000	0.025829
1512.000000	0.025524
1511.000000	0.025109
1510.000000	0.024639
1509.000000	0.024239
1508.000000	0.024013
1507.000000	0.023833
1506.000000	0.023521
1505.000000	0.023309
1504.000000	0.023287
1503.000000	0.023281
1502.000000	0.023191
1501.000000	0.023009
1500.000000	0.022763
1499.000000	0.022491
1498.000000	0.022233
1497.000000	0.022006
1496.000000	0.021786
1495.000000	0.021577
1494.000000	0.021404
1493.000000	0.021281
1492.000000	0.021189
1491.000000	0.021078
1490.000000	0.020947
1489.000000	0.020864
1488.000000	0.020854
1487.000000	0.020867
1486.000000	0.020884
1485.000000	0.020929
1484.000000	0.021031
1483.000000	0.021171
1482.000000	0.021326
1481.000000	0.021512
1480.000000	0.021743
1479.000000	0.022000
1478.000000	0.022241
1477.000000	0.022459
1476.000000	0.022685
1475.000000	0.022990
1474.000000	0.023437
1473.000000	0.024020
1472.000000	0.024625
1471.000000	0.025146
1470.000000	0.025586
1469.000000	0.026002
1468.000000	0.026429
1467.000000	0.026880
1466.000000	0.027335
1465.000000	0.027743
1464.000000	0.028068
1463.000000	0.028325
1462.000000	0.028553
1461.000000	0.028755
1460.000000	0.028947
1459.000000	0.029200
1458.000000	0.029586
1457.000000	0.030045
1456.000000	0.030500
1455.000000	0.030967
1454.000000	0.031412
1453.000000	0.031781
1452.000000	0.032071
1451.000000	0.032310
1450.000000	0.032547
1449.000000	0.032798
1448.000000	0.033021
1447.000000	0.033198
1446.000000	0.033366
1445.000000	0.033551
1444.000000	0.033727
1443.000000	0.033848
1442.000000	0.033910
1441.000000	0.033950
1440.000000	0.034011
1439.000000	0.034125
1438.000000	0.034281
1437.000000	0.034396
1436.000000	0.034434
1435.000000	0.034477
1434.000000	0.034587
1433.000000	0.034730
1432.000000	0.034841
1431.000000	0.034884
1430.000000	0.034887
1429.000000	0.034901
1428.000000	0.034944
1427.000000	0.035026
1426.000000	0.035136
1425.000000	0.035220
1424.000000	0.035222
1423.000000	0.035163
1422.000000	0.035135
1421.000000	0.035181
1420.000000	0.035217
1419.000000	0.035160
1418.000000	0.035089
1417.000000	0.035090
1416.000000	0.035104
1415.000000	0.035050
1414.000000	0.034919
1413.000000	0.034746
1412.000000	0.034549
1411.000000	0.034334
1410.000000	0.034123
1409.000000	0.033934
1408.000000	0.033746
1407.000000	0.033546
1406.000000	0.033350
1405.000000	0.033160
1404.000000	0.032962
1403.000000	0.032770
1402.000000	0.032626
1401.000000	0.032515
1400.000000	0.032362
1399.000000	0.032128
1398.000000	0.031875
1397.000000	0.031660
1396.000000	0.031445
1395.000000	0.031186
1394.000000	0.030932
1393.000000	0.030762
1392.000000	0.030659
1391.000000	0.030546
1390.000000	0.030390
1389.000000	0.030198
1388.000000	0.029969
1387.000000	0.029705
1386.000000	0.029456
1385.000000	0.029257
1384.000000	0.029081
1383.000000	0.028886
1382.000000	0.028680
1381.000000	0.028495
1380.000000	0.028332
1379.000000	0.028157
1378.000000	0.027960
1377.000000	0.027749
1376.000000	0.027513
1375.000000	0.027226
1374.000000	0.026887
1373.000000	0.026531
1372.000000	0.026195
1371.000000	0.025895
1370.000000	0.025625
1369.000000	0.025364
1368.000000	0.025084
1367.000000	0.024776
1366.000000	0.024453
1365.000000	0.024129
1364.000000	0.023812
1363.000000	0.023522
1362.000000	0.023286
1361.000000	0.023113
1360.000000	0.022981
1359.000000	0.022866
1358.000000	0.022763
1357.000000	0.022666
1356.000000	0.022572
1355.000000	0.022481
1354.000000	0.022403
1353.000000	0.022350
1352.000000	0.022311
1351.000000	0.022280
1350.000000	0.022256
1349.000000	0.022243
1348.000000	0.022245
1347.000000	0.022273
1346.000000	0.022338
1345.000000	0.022429
1344.000000	0.022513
1343.000000	0.022569
1342.000000	0.022615
1341.000000	0.022691
1340.000000	0.022817
1339.000000	0.022982
1338.000000	0.023153
1337.000000	0.023304
1336.000000	0.023410
1335.000000	0.023457
1334.000000	0.023447
1333.000000	0.023391
1332.000000	0.023298
1331.000000	0.023175
1330.000000	0.023032
1329.000000	0.022876
1328.000000	0.022708
1327.000000	0.022533
1326.000000	0.022366
1325.000000	0.022217
1324.000000	0.022079
1323.000000	0.021938
1322.000000	0.021791
1321.000000	0.021643
1320.000000	0.021503
1319.000000	0.021382
1318.000000	0.021283
1317.000000	0.021194
1316.000000	0.021089
1315.000000	0.020955
1314.000000	0.020807
1313.000000	0.020661
1312.000000	0.020520
1311.000000	0.020377
1310.000000	0.020233
1309.000000	0.020091
1308.000000	0.019944
1307.000000	0.019783
1306.000000	0.019615
1305.000000	0.019451
1304.000000	0.019298
1303.000000	0.019148
1302.000000	0.018998
1301.000000	0.018849
1300.000000	0.018704
1299.000000	0.018565
1298.000000	0.018433
1297.000000	0.018311
1296.000000	0.018207
1295.000000	0.018133
1294.000000	0.018096
1293.000000	0.018087
1292.000000	0.018094
1291.000000	0.018112
1290.000000	0.018148
1289.000000	0.018205
1288.000000	0.018279
1287.000000	0.018361
1286.000000	0.018444
1285.000000	0.018515
1284.000000	0.018561
1283.000000	0.018585
1282.000000	0.018603
1281.000000	0.018628
1280.000000	0.018658
1279.000000	0.018687
1278.000000	0.018715
1277.000000	0.018744
1276.000000	0.018765
1275.000000	0.018779
1274.000000	0.018796
1273.000000	0.018835
1272.000000	0.018900
1271.000000	0.018987
1270.000000	0.019093
1269.000000	0.019225
1268.000000	0.019381
1267.000000	0.019552
1266.000000	0.019734
1265.000000	0.019922
1264.000000	0.020111
1263.000000	0.020293
1262.000000	0.020473
1261.000000	0.020666
1260.000000	0.020879
1259.000000	0.021106
1258.000000	0.021334
1257.000000	0.021555
1256.000000	0.021761
1255.000000	0.021950
1254.000000	0.022116
1253.000000	0.022258
1252.000000	0.022379
1251.000000	0.022502
1250.000000	0.022659
1249.000000	0.022865
1248.000000	0.023102
1247.000000	0.023340
1246.000000	0.023561
1245.000000	0.023762
1244.000000	0.023940
1243.000000	0.024100
1242.000000	0.024261
1241.000000	0.024440
1240.000000	0.024627
1239.000000	0.024786
1238.000000	0.024891
1237.000000	0.024934
1236.000000	0.024920
1235.000000	0.024862
1234.000000	0.024780
1233.000000	0.024692
1232.000000	0.024587
1231.000000	0.024439
1230.000000	0.024238
1229.000000	0.023990
1228.000000	0.023702
1227.000000	0.023368
1226.000000	0.022994
1225.000000	0.022600
1224.000000	0.022214
1223.000000	0.021846
1222.000000	0.021493
1221.000000	0.021149
1220.000000	0.020813
1219.000000	0.020490
1218.000000	0.020192
1217.000000	0.019927
1216.000000	0.019692
1215.000000	0.019492
1214.000000	0.019334
1213.000000	0.019229
1212.000000	0.019171
1211.000000	0.019147
1210.000000	0.019145
1209.000000	0.019164
1208.000000	0.019205
1207.000000	0.019267
1206.000000	0.019344
1205.000000	0.019421
1204.000000	0.019480
1203.000000	0.019510
1202.000000	0.019510
1201.000000	0.019480
1200.000000	0.019423
1199.000000	0.019343
1198.000000	0.019256
1197.000000	0.019176
1196.000000	0.019097
1195.000000	0.019000
1194.000000	0.018874
1193.000000	0.018727
1192.000000	0.018574
1191.000000	0.018433
1190.000000	0.018318
1189.000000	0.018233
1188.000000	0.018171
1187.000000	0.018117
1186.000000	0.018070
1185.000000	0.018042
1184.000000	0.018049
1183.000000	0.018089
1182.000000	0.018149
1181.000000	0.018223
1180.000000	0.018312
1179.000000	0.018421
1178.000000	0.018550
1177.000000	0.018689
1176.000000	0.018830
1175.000000	0.018973
1174.000000	0.019122
1173.000000	0.019277
1172.000000	0.019433
1171.000000	0.019585
1170.000000	0.019733
1169.000000	0.019883
1168.000000	0.020036
1167.000000	0.020190
1166.000000	0.020335
1165.000000	0.020461
1164.000000	0.020558
1163.000000	0.020624
1162.000000	0.020661
1161.000000	0.020670
1160.000000	0.020640
1159.000000	0.020562
1158.000000	0.020438
1157.000000	0.020278
1156.000000	0.020093
1155.000000	0.019882
1154.000000	0.019642
1153.000000	0.019369
1152.000000	0.019067
1151.000000	0.018750
1150.000000	0.018433
1149.000000	0.018123
1148.000000	0.017815
1147.000000	0.017499
1146.000000	0.017175
1145.000000	0.016844
1144.000000	0.016503
1143.000000	0.016154
1142.000000	0.015814
1141.000000	0.015502
1140.000000	0.015233
1139.000000	0.015007
1138.000000	0.014812
1137.000000	0.014633
1136.000000	0.014462
1135.000000	0.014305
1134.000000	0.014182
1133.000000	0.014098
1132.000000	0.014036
1131.000000	0.013975
1130.000000	0.013913
1129.000000	0.013865
1128.000000	0.013847
1127.000000	0.013864
1126.000000	0.013908
1125.000000	0.013962
1124.000000	0.014018
1123.000000	0.014076
1122.000000	0.014145
1121.000000	0.014227
1120.000000	0.014314
1119.000000	0.014404
1118.000000	0.014503
1117.000000	0.014622
1116.000000	0.014759
1115.000000	0.014906
1114.000000	0.015060
1113.000000	0.015225
1112.000000	0.015398
1111.000000	0.015562
1110.000000	0.015692
1109.000000	0.015772
1108.000000	0.015793
1107.000000	0.015767
1106.000000	0.015723
1105.000000	0.015696
1104.000000	0.015697
1103.000000	0.015713
1102.000000	0.015736
1101.000000	0.015766
1100.000000	0.015814
1099.000000	0.015881
1098.000000	0.015961
1097.000000	0.016046
1096.000000	0.016124
1095.000000	0.016187
1094.000000	0.016233
1093.000000	0.016268
1092.000000	0.016300
1091.000000	0.016324
1090.000000	0.016330
1089.000000	0.016318
1088.000000	0.016301
1087.000000	0.016289
1086.000000	0.016280
1085.000000	0.016259
1084.000000	0.016199
1083.000000	0.016087
1082.000000	0.015933
1081.000000	0.015762
1080.000000	0.015589
1079.000000	0.015409
1078.000000	0.015211
1077.000000	0.015011
1076.000000	0.014841
1075.000000	0.014726
1074.000000	0.014656
1073.000000	0.014600
1072.000000	0.014536
1071.000000	0.014459
1070.000000	0.014372
1069.000000	0.014271
1068.000000	0.014165
1067.000000	0.014090
1066.000000	0.014096
1065.000000	0.014201
1064.000000	0.014366
1063.000000	0.014522
1062.000000	0.014616
1061.000000	0.014635
1060.000000	0.014589
1059.000000	0.014506
1058.000000	0.014420
1057.000000	0.014360
1056.000000	0.014331
1055.000000	0.014313
1054.000000	0.014278
1053.000000	0.014212
1052.000000	0.014114
1051.000000	0.014003
1050.000000	0.013915
1049.000000	0.013881
1048.000000	0.013896
1047.000000	0.013930
1046.000000	0.013962
1045.000000	0.013995
1044.000000	0.014041
1043.000000	0.014099
1042.000000	0.014167
1041.000000	0.014264
1040.000000	0.014405
1039.000000	0.014584
1038.000000	0.014779
1037.000000	0.014983
1036.000000	0.015211
1035.000000	0.015466
1034.000000	0.015729
1033.000000	0.015971
1032.000000	0.016166
1031.000000	0.016286
1030.000000	0.016306
1029.000000	0.016231
1028.000000	0.016112
1027.000000	0.016012
1026.000000	0.015955
1025.000000	0.015913
1024.000000	0.015837
1023.000000	0.015707
1022.000000	0.015545
1021.000000	0.015392
1020.000000	0.015273
1019.000000	0.015187
1018.000000	0.015110
1017.000000	0.015020
1016.000000	0.014914
1015.000000	0.014804
1014.000000	0.014702
1013.000000	0.014595
1012.000000	0.014458
1011.000000	0.014278
1010.000000	0.014078
1009.000000	0.013898
1008.000000	0.013754
1007.000000	0.013627
1006.000000	0.013487
1005.000000	0.013329
1004.000000	0.013169
1003.000000	0.013021
1002.000000	0.012876
1001.000000	0.012722
1000.000000	0.012560
999.000000	0.012400
998.000000	0.012254
997.000000	0.012118
996.000000	0.011990
995.000000	0.011870
994.000000	0.011756
993.000000	0.011644
992.000000	0.011531
991.000000	0.011420
990.000000	0.011316
989.000000	0.011214
988.000000	0.011104
987.000000	0.010976
986.000000	0.010838
985.000000	0.010715
984.000000	0.010630
983.000000	0.010588
982.000000	0.010576
981.000000	0.010577
980.000000	0.010582
979.000000	0.010592
978.000000	0.010606
977.000000	0.010617
976.000000	0.010627
975.000000	0.010635
974.000000	0.010638
973.000000	0.010625
972.000000	0.010585
971.000000	0.010528
970.000000	0.010470
969.000000	0.010419
968.000000	0.010361
967.000000	0.010270
966.000000	0.010139
965.000000	0.009983
964.000000	0.009838
963.000000	0.009727
962.000000	0.009655
961.000000	0.009605
960.000000	0.009544
959.000000	0.009447
958.000000	0.009309
957.000000	0.009153
956.000000	0.009007
955.000000	0.008888
954.000000	0.008794
953.000000	0.008709
952.000000	0.008621
951.000000	0.008522
950.000000	0.008413
949.000000	0.008302
948.000000	0.008202
947.000000	0.008108
946.000000	0.008012
945.000000	0.007913
944.000000	0.007824
943.000000	0.007758
942.000000	0.007713
941.000000	0.007676
940.000000	0.007632
939.000000	0.007574
938.000000	0.007506
937.000000	0.007434
936.000000	0.007364
935.000000	0.007293
934.000000	0.007212
933.000000	0.007115
932.000000	0.007010
931.000000	0.006908
930.000000	0.006821
929.000000	0.006764
928.000000	0.006745
927.000000	0.006746
926.000000	0.006725
925.000000	0.006655
924.000000	0.006552
923.000000	0.006449
922.000000	0.006360
921.000000	0.006274
920.000000	0.006181
919.000000	0.006085
918.000000	0.005990
917.000000	0.005895
916.000000	0.005797
915.000000	0.005703
914.000000	0.005616
913.000000	0.005534
912.000000	0.005453
911.000000	0.005367
910.000000	0.005279
909.000000	0.005199
908.000000	0.005134
907.000000	0.005076
906.000000	0.005009
905.000000	0.004926
904.000000	0.004838
903.000000	0.004758
902.000000	0.004686
901.000000	0.004618
900.000000	0.004566
899.000000	0.004541
898.000000	0.004530
897.000000	0.004505
896.000000	0.004456
895.000000	0.004395
894.000000	0.004337
893.000000	0.004292
892.000000	0.004266
891.000000	0.004260
890.000000	0.004270
889.000000	0.004317
888.000000	0.004469
887.000000	0.004812
886.000000	0.005379
885.000000	0.006124
884.000000	0.006970
883.000000	0.007865
882.000000	0.008809
881.000000	0.009850
880.000000	0.011048
879.000000	0.012398
878.000000	0.013789
877.000000	0.015025
876.000000	0.015930
875.000000	0.016410
874.000000	0.016436
873.000000	0.016018
872.000000	0.015208
871.000000	0.014117
870.000000	0.012900
869.000000	0.011699
868.000000	0.010614
867.000000	0.009696
866.000000	0.008957
865.000000	0.008365
864.000000	0.007871
863.000000	0.007446
862.000000	0.007086
861.000000	0.006798
860.000000	0.006575
859.000000	0.006405
858.000000	0.006272
857.000000	0.006154
856.000000	0.006030
855.000000	0.005889
854.000000	0.005741
853.000000	0.005613
852.000000	0.005544
851.000000	0.005563
850.000000	0.005663
849.000000	0.005788
848.000000	0.005852
847.000000	0.005806
846.000000	0.005666
845.000000	0.005500
844.000000	0.005371
843.000000	0.005297
842.000000	0.005256
841.000000	0.005217
840.000000	0.005160
839.000000	0.005075
838.000000	0.004965
837.000000	0.004848
836.000000	0.004753
835.000000	0.004698
834.000000	0.004684
833.000000	0.004702
832.000000	0.004736
831.000000	0.004757
830.000000	0.004736
829.000000	0.004669
828.000000	0.004587
827.000000	0.004520
826.000000	0.004475
825.000000	0.004441
824.000000	0.004417
823.000000	0.004405
822.000000	0.004398
821.000000	0.004384
820.000000	0.004368
819.000000	0.004362
818.000000	0.004362
817.000000	0.004348
816.000000	0.004317
815.000000	0.004295
814.000000	0.004309
813.000000	0.004359
812.000000	0.004420
811.000000	0.004452
810.000000	0.004431
809.000000	0.004369
808.000000	0.004314
807.000000	0.004308
806.000000	0.004349
805.000000	0.004393
804.000000	0.004402
803.000000	0.004378
802.000000	0.004343
801.000000	0.004321
800.000000	0.004320
799.000000	0.004339
798.000000	0.004368
797.000000	0.004397
796.000000	0.004425
795.000000	0.004454
794.000000	0.004489
793.000000	0.004530
792.000000	0.004567
791.000000	0.004592
790.000000	0.004607
789.000000	0.004632
788.000000	0.004680
787.000000	0.004736
786.000000	0.004762
785.000000	0.004753
784.000000	0.004740
783.000000	0.004751
782.000000	0.004769
781.000000	0.004757
780.000000	0.004716
779.000000	0.004687
778.000000	0.004707
777.000000	0.004774
776.000000	0.004852
775.000000	0.004899
774.000000	0.004892
773.000000	0.004843
772.000000	0.004804
771.000000	0.004820
770.000000	0.004892
769.000000	0.004975
768.000000	0.005020
767.000000	0.005010
766.000000	0.004964
765.000000	0.004925
764.000000	0.004927
763.000000	0.004969
762.000000	0.005027
761.000000	0.005082
760.000000	0.005134
759.000000	0.005176
758.000000	0.005180
757.000000	0.005138
756.000000	0.005092
755.000000	0.005095
754.000000	0.005158
753.000000	0.005251
752.000000	0.005348
751.000000	0.005434
750.000000	0.005485
749.000000	0.005490
748.000000	0.005475
747.000000	0.005486
746.000000	0.005527
745.000000	0.005558
744.000000	0.005559
743.000000	0.005556
742.000000	0.005576
741.000000	0.005614
740.000000	0.005655
739.000000	0.005693
738.000000	0.005739
737.000000	0.005800
736.000000	0.005887
735.000000	0.005995
734.000000	0.006090
733.000000	0.006144
732.000000	0.006180
731.000000	0.006248
730.000000	0.006358
729.000000	0.006481
728.000000	0.006598
727.000000	0.006721
726.000000	0.006845
725.000000	0.006935
724.000000	0.006974
723.000000	0.006992
722.000000	0.007025
721.000000	0.007092
720.000000	0.007208
719.000000	0.007407
718.000000	0.007722
717.000000	0.008176
716.000000	0.008807
715.000000	0.009621
714.000000	0.010501
713.000000	0.011189
712.000000	0.011444
711.000000	0.011232
710.000000	0.010734
709.000000	0.010197
708.000000	0.009796
707.000000	0.009586
706.000000	0.009529
705.000000	0.009547
704.000000	0.009571
703.000000	0.009586
702.000000	0.009606
701.000000	0.009636
700.000000	0.009670
699.000000	0.009700
698.000000	0.009719
697.000000	0.009708
696.000000	0.009665
695.000000	0.009620
694.000000	0.009602
693.000000	0.009592
692.000000	0.009558
691.000000	0.009497
690.000000	0.009443
689.000000	0.009422
688.000000	0.009447
687.000000	0.009535
686.000000	0.009679
685.000000	0.009834
684.000000	0.009955
683.000000	0.010038
682.000000	0.010101
681.000000	0.010144
680.000000	0.010171
679.000000	0.010194
678.000000	0.010210
677.000000	0.010223
676.000000	0.010271
675.000000	0.010387
674.000000	0.010539
673.000000	0.010639
672.000000	0.010617
671.000000	0.010454
670.000000	0.010164
669.000000	0.009809
668.000000	0.009680
667.000000	0.009890
666.000000	0.010106
665.000000	0.010273
664.000000	0.010441
663.000000	0.010547
662.000000	0.010584
661.000000	0.010593
660.000000	0.010621
659.000000	0.010663
658.000000	0.010703
657.000000	0.010753
656.000000	0.010806
655.000000	0.010819
654.000000	0.010804
653.000000	0.010831
652.000000	0.010903
651.000000	0.010944
650.000000	0.010940
649.000000	0.010984
648.000000	0.011130
647.000000	0.011309
646.000000	0.011445
645.000000	0.011542
644.000000	0.011637
643.000000	0.011740
642.000000	0.011856
641.000000	0.012011
640.000000	0.012191
639.000000	0.012321
638.000000	0.012359
637.000000	0.012345
636.000000	0.012328
635.000000	0.012314
634.000000	0.012303
633.000000	0.012316
632.000000	0.012346
631.000000	0.012345
630.000000	0.012309
629.000000	0.012311
628.000000	0.012410
627.000000	0.012566
626.000000	0.012701
625.000000	0.012776
624.000000	0.012802
623.000000	0.012810
622.000000	0.012833
621.000000	0.012885
620.000000	0.012934
619.000000	0.012945
618.000000	0.012942
617.000000	0.012995
616.000000	0.013107
615.000000	0.013207
614.000000	0.013244
613.000000	0.013249
612.000000	0.013260
611.000000	0.013258
610.000000	0.013224
609.000000	0.013193
608.000000	0.013209
607.000000	0.013263
606.000000	0.013323
605.000000	0.013361
604.000000	0.013331
603.000000	0.013187
602.000000	0.012949
601.000000	0.012716
600.000000	0.012565
599.000000	0.012474
598.000000	0.012364
597.000000	0.012202
596.000000	0.012009
595.000000	0.011820
594.000000	0.011673
593.000000	0.011612
592.000000	0.011642
591.000000	0.011697
590.000000	0.011675
589.000000	0.011547
588.000000	0.011376
587.000000	0.011260
586.000000	0.011246
585.000000	0.011298
584.000000	0.011333
583.000000	0.011317
582.000000	0.011279
581.000000	0.011258
580.000000	0.011242
579.000000	0.011212
578.000000	0.011203
577.000000	0.011255
576.000000	0.011319
575.000000	0.011309
574.000000	0.011238
573.000000	0.011229
572.000000	0.011350
571.000000	0.011529
570.000000	0.011661
569.000000	0.011723
568.000000	0.011758
567.000000	0.011800
566.000000	0.011866
565.000000	0.011963
564.000000	0.012065
563.000000	0.012123
562.000000	0.012138
561.000000	0.012167
560.000000	0.012225
559.000000	0.012249
558.000000	0.012198
557.000000	0.012113
556.000000	0.012030
555.000000	0.011918
554.000000	0.011759
553.000000	0.011638
552.000000	0.011646
551.000000	0.011766
550.000000	0.011898
549.000000	0.011970
548.000000	0.011956
547.000000	0.011852
546.000000	0.011700
545.000000	0.011606
544.000000	0.011635
543.000000	0.011719
542.000000	0.011737
541.000000	0.011653
540.000000	0.011525
539.000000	0.011420
538.000000	0.011380
537.000000	0.011446
536.000000	0.011628
535.000000	0.011854
534.000000	0.012019
533.000000	0.012073
532.000000	0.012042
531.000000	0.011974
530.000000	0.011913
529.000000	0.011872
528.000000	0.011818
527.000000	0.011715
526.000000	0.011611
525.000000	0.011619
524.000000	0.011743
523.000000	0.011830
522.000000	0.011742
521.000000	0.011512
520.000000	0.011273
519.000000	0.011109
518.000000	0.011023
517.000000	0.010997
516.000000	0.011002
515.000000	0.010962
514.000000	0.010824
513.000000	0.010624
512.000000	0.010436
511.000000	0.010274
510.000000	0.010119
509.000000	0.009995
508.000000	0.009957
507.000000	0.009985
506.000000	0.009984
505.000000	0.009874
504.000000	0.009656
503.000000	0.009390
502.000000	0.009187
501.000000	0.009148
500.000000	0.009267
499.000000	0.009411
498.000000	0.009462
497.000000	0.009426
496.000000	0.009380
495.000000	0.009336
494.000000	0.009238
493.000000	0.009069
492.000000	0.008876
491.000000	0.008692
490.000000	0.008510
489.000000	0.008357
488.000000	0.008296
487.000000	0.008352
486.000000	0.008469
485.000000	0.008564
484.000000	0.008594
483.000000	0.008552
482.000000	0.008448
481.000000	0.008302
480.000000	0.008132
479.000000	0.007950
478.000000	0.007781
477.000000	0.007675
476.000000	0.007660
475.000000	0.007729
474.000000	0.007845
473.000000	0.007945
472.000000	0.007934
471.000000	0.007764
470.000000	0.007537
469.000000	0.007422
468.000000	0.007480
467.000000	0.007613
466.000000	0.007688
465.000000	0.007650
464.000000	0.007475
463.000000	0.007127
462.000000	0.006643
461.000000	0.006146
460.000000	0.005727
459.000000	0.005403
458.000000	0.005229
457.000000	0.005262
456.000000	0.005379
455.000000	0.005324
454.000000	0.005055
453.000000	0.004724
452.000000	0.004558
451.000000	0.004496
450.000000	0.004256
