PE IR       SUBTECH     SPECTRUM    ASCII       PEDS        4.00        
   -1
Peau029_1.ASC
23/06/14
15:10:53.00
23/06/14
15:12:57.00
uco
Sample 029 By uco Date Wednesday, June 14 2023
450.000000
#HDR
-1
-1
#GR
cm-1
A
1.0
0.0
4000.000000
-1.000000
3551
8
0.041068
0.004956
#DATA
4000.000000	0.005505
3999.000000	0.005508
3998.000000	0.005509
3997.000000	0.005506
3996.000000	0.005499
3995.000000	0.005490
3994.000000	0.005485
3993.000000	0.005490
3992.000000	0.005501
3991.000000	0.005512
3990.000000	0.005515
3989.000000	0.005509
3988.000000	0.005501
3987.000000	0.005499
3986.000000	0.005511
3985.000000	0.005534
3984.000000	0.005559
3983.000000	0.005576
3982.000000	0.005579
3981.000000	0.005572
3980.000000	0.005561
3979.000000	0.005551
3978.000000	0.005547
3977.000000	0.005552
3976.000000	0.005566
3975.000000	0.005585
3974.000000	0.005599
3973.000000	0.005601
3972.000000	0.005592
3971.000000	0.005584
3970.000000	0.005585
3969.000000	0.005596
3968.000000	0.005610
3967.000000	0.005620
3966.000000	0.005623
3965.000000	0.005623
3964.000000	0.005626
3963.000000	0.005635
3962.000000	0.005651
3961.000000	0.005669
3960.000000	0.005687
3959.000000	0.005701
3958.000000	0.005708
3957.000000	0.005707
3956.000000	0.005698
3955.000000	0.005684
3954.000000	0.005669
3953.000000	0.005657
3952.000000	0.005650
3951.000000	0.005649
3950.000000	0.005654
3949.000000	0.005662
3948.000000	0.005671
3947.000000	0.005681
3946.000000	0.005696
3945.000000	0.005716
3944.000000	0.005737
3943.000000	0.005753
3942.000000	0.005759
3941.000000	0.005755
3940.000000	0.005748
3939.000000	0.005738
3938.000000	0.005727
3937.000000	0.005712
3936.000000	0.005696
3935.000000	0.005684
3934.000000	0.005681
3933.000000	0.005691
3932.000000	0.005708
3931.000000	0.005723
3930.000000	0.005732
3929.000000	0.005732
3928.000000	0.005730
3927.000000	0.005729
3926.000000	0.005734
3925.000000	0.005743
3924.000000	0.005752
3923.000000	0.005759
3922.000000	0.005766
3921.000000	0.005777
3920.000000	0.005789
3919.000000	0.005795
3918.000000	0.005790
3917.000000	0.005778
3916.000000	0.005766
3915.000000	0.005757
3914.000000	0.005752
3913.000000	0.005750
3912.000000	0.005749
3911.000000	0.005746
3910.000000	0.005737
3909.000000	0.005724
3908.000000	0.005716
3907.000000	0.005720
3906.000000	0.005741
3905.000000	0.005773
3904.000000	0.005803
3903.000000	0.005819
3902.000000	0.005817
3901.000000	0.005807
3900.000000	0.005798
3899.000000	0.005792
3898.000000	0.005786
3897.000000	0.005779
3896.000000	0.005777
3895.000000	0.005783
3894.000000	0.005793
3893.000000	0.005796
3892.000000	0.005788
3891.000000	0.005772
3890.000000	0.005760
3889.000000	0.005754
3888.000000	0.005750
3887.000000	0.005744
3886.000000	0.005742
3885.000000	0.005750
3884.000000	0.005769
3883.000000	0.005793
3882.000000	0.005815
3881.000000	0.005831
3880.000000	0.005844
3879.000000	0.005856
3878.000000	0.005869
3877.000000	0.005877
3876.000000	0.005875
3875.000000	0.005865
3874.000000	0.005857
3873.000000	0.005856
3872.000000	0.005857
3871.000000	0.005852
3870.000000	0.005843
3869.000000	0.005838
3868.000000	0.005844
3867.000000	0.005852
3866.000000	0.005851
3865.000000	0.005837
3864.000000	0.005814
3863.000000	0.005796
3862.000000	0.005792
3861.000000	0.005798
3860.000000	0.005808
3859.000000	0.005818
3858.000000	0.005831
3857.000000	0.005854
3856.000000	0.005887
3855.000000	0.005919
3854.000000	0.005936
3853.000000	0.005932
3852.000000	0.005914
3851.000000	0.005890
3850.000000	0.005870
3849.000000	0.005856
3848.000000	0.005850
3847.000000	0.005848
3846.000000	0.005845
3845.000000	0.005839
3844.000000	0.005835
3843.000000	0.005839
3842.000000	0.005852
3841.000000	0.005863
3840.000000	0.005863
3839.000000	0.005852
3838.000000	0.005834
3837.000000	0.005819
3836.000000	0.005815
3835.000000	0.005818
3834.000000	0.005819
3833.000000	0.005811
3832.000000	0.005799
3831.000000	0.005793
3830.000000	0.005798
3829.000000	0.005811
3828.000000	0.005823
3827.000000	0.005828
3826.000000	0.005832
3825.000000	0.005845
3824.000000	0.005868
3823.000000	0.005890
3822.000000	0.005901
3821.000000	0.005903
3820.000000	0.005900
3819.000000	0.005896
3818.000000	0.005890
3817.000000	0.005881
3816.000000	0.005868
3815.000000	0.005854
3814.000000	0.005847
3813.000000	0.005849
3812.000000	0.005861
3811.000000	0.005880
3810.000000	0.005895
3809.000000	0.005895
3808.000000	0.005874
3807.000000	0.005845
3806.000000	0.005823
3805.000000	0.005818
3804.000000	0.005821
3803.000000	0.005821
3802.000000	0.005815
3801.000000	0.005806
3800.000000	0.005801
3799.000000	0.005802
3798.000000	0.005811
3797.000000	0.005824
3796.000000	0.005835
3795.000000	0.005841
3794.000000	0.005839
3793.000000	0.005829
3792.000000	0.005816
3791.000000	0.005804
3790.000000	0.005798
3789.000000	0.005806
3788.000000	0.005827
3787.000000	0.005857
3786.000000	0.005887
3785.000000	0.005906
3784.000000	0.005909
3783.000000	0.005899
3782.000000	0.005883
3781.000000	0.005871
3780.000000	0.005871
3779.000000	0.005884
3778.000000	0.005900
3777.000000	0.005912
3776.000000	0.005911
3775.000000	0.005898
3774.000000	0.005878
3773.000000	0.005858
3772.000000	0.005847
3771.000000	0.005852
3770.000000	0.005868
3769.000000	0.005880
3768.000000	0.005876
3767.000000	0.005853
3766.000000	0.005826
3765.000000	0.005810
3764.000000	0.005814
3763.000000	0.005832
3762.000000	0.005858
3761.000000	0.005881
3760.000000	0.005898
3759.000000	0.005907
3758.000000	0.005906
3757.000000	0.005890
3756.000000	0.005863
3755.000000	0.005830
3754.000000	0.005798
3753.000000	0.005780
3752.000000	0.005788
3751.000000	0.005823
3750.000000	0.005862
3749.000000	0.005880
3748.000000	0.005874
3747.000000	0.005856
3746.000000	0.005843
3745.000000	0.005845
3744.000000	0.005846
3743.000000	0.005829
3742.000000	0.005799
3741.000000	0.005775
3740.000000	0.005768
3739.000000	0.005779
3738.000000	0.005793
3737.000000	0.005795
3736.000000	0.005776
3735.000000	0.005740
3734.000000	0.005702
3733.000000	0.005679
3732.000000	0.005676
3731.000000	0.005694
3730.000000	0.005729
3729.000000	0.005775
3728.000000	0.005826
3727.000000	0.005873
3726.000000	0.005908
3725.000000	0.005925
3724.000000	0.005925
3723.000000	0.005911
3722.000000	0.005889
3721.000000	0.005867
3720.000000	0.005851
3719.000000	0.005839
3718.000000	0.005825
3717.000000	0.005809
3716.000000	0.005788
3715.000000	0.005767
3714.000000	0.005750
3713.000000	0.005746
3712.000000	0.005755
3711.000000	0.005762
3710.000000	0.005752
3709.000000	0.005722
3708.000000	0.005683
3707.000000	0.005647
3706.000000	0.005621
3705.000000	0.005606
3704.000000	0.005600
3703.000000	0.005600
3702.000000	0.005606
3701.000000	0.005611
3700.000000	0.005610
3699.000000	0.005600
3698.000000	0.005588
3697.000000	0.005584
3696.000000	0.005597
3695.000000	0.005626
3694.000000	0.005656
3693.000000	0.005668
3692.000000	0.005651
3691.000000	0.005609
3690.000000	0.005560
3689.000000	0.005518
3688.000000	0.005486
3687.000000	0.005463
3686.000000	0.005448
3685.000000	0.005445
3684.000000	0.005458
3683.000000	0.005491
3682.000000	0.005538
3681.000000	0.005583
3680.000000	0.005612
3679.000000	0.005616
3678.000000	0.005595
3677.000000	0.005563
3676.000000	0.005541
3675.000000	0.005538
3674.000000	0.005539
3673.000000	0.005532
3672.000000	0.005517
3671.000000	0.005505
3670.000000	0.005508
3669.000000	0.005523
3668.000000	0.005536
3667.000000	0.005541
3666.000000	0.005540
3665.000000	0.005541
3664.000000	0.005547
3663.000000	0.005554
3662.000000	0.005560
3661.000000	0.005566
3660.000000	0.005579
3659.000000	0.005607
3658.000000	0.005650
3657.000000	0.005698
3656.000000	0.005740
3655.000000	0.005770
3654.000000	0.005792
3653.000000	0.005813
3652.000000	0.005833
3651.000000	0.005857
3650.000000	0.005889
3649.000000	0.005930
3648.000000	0.005971
3647.000000	0.006008
3646.000000	0.006044
3645.000000	0.006077
3644.000000	0.006104
3643.000000	0.006120
3642.000000	0.006121
3641.000000	0.006111
3640.000000	0.006101
3639.000000	0.006102
3638.000000	0.006120
3637.000000	0.006147
3636.000000	0.006178
3635.000000	0.006209
3634.000000	0.006239
3633.000000	0.006262
3632.000000	0.006275
3631.000000	0.006279
3630.000000	0.006280
3629.000000	0.006290
3628.000000	0.006308
3627.000000	0.006334
3626.000000	0.006366
3625.000000	0.006397
3624.000000	0.006415
3623.000000	0.006414
3622.000000	0.006402
3621.000000	0.006400
3620.000000	0.006433
3619.000000	0.006503
3618.000000	0.006585
3617.000000	0.006645
3616.000000	0.006673
3615.000000	0.006681
3614.000000	0.006690
3613.000000	0.006712
3612.000000	0.006738
3611.000000	0.006759
3610.000000	0.006780
3609.000000	0.006811
3608.000000	0.006846
3607.000000	0.006869
3606.000000	0.006873
3605.000000	0.006868
3604.000000	0.006865
3603.000000	0.006869
3602.000000	0.006879
3601.000000	0.006895
3600.000000	0.006919
3599.000000	0.006957
3598.000000	0.007008
3597.000000	0.007065
3596.000000	0.007118
3595.000000	0.007159
3594.000000	0.007187
3593.000000	0.007207
3592.000000	0.007224
3591.000000	0.007242
3590.000000	0.007265
3589.000000	0.007302
3588.000000	0.007353
3587.000000	0.007402
3586.000000	0.007428
3585.000000	0.007430
3584.000000	0.007425
3583.000000	0.007430
3582.000000	0.007455
3581.000000	0.007498
3580.000000	0.007549
3579.000000	0.007599
3578.000000	0.007647
3577.000000	0.007693
3576.000000	0.007738
3575.000000	0.007781
3574.000000	0.007819
3573.000000	0.007856
3572.000000	0.007895
3571.000000	0.007937
3570.000000	0.007977
3569.000000	0.008011
3568.000000	0.008041
3567.000000	0.008078
3566.000000	0.008128
3565.000000	0.008187
3564.000000	0.008244
3563.000000	0.008285
3562.000000	0.008307
3561.000000	0.008316
3560.000000	0.008327
3559.000000	0.008348
3558.000000	0.008382
3557.000000	0.008426
3556.000000	0.008474
3555.000000	0.008525
3554.000000	0.008581
3553.000000	0.008645
3552.000000	0.008710
3551.000000	0.008766
3550.000000	0.008806
3549.000000	0.008832
3548.000000	0.008849
3547.000000	0.008862
3546.000000	0.008875
3545.000000	0.008890
3544.000000	0.008902
3543.000000	0.008909
3542.000000	0.008917
3541.000000	0.008938
3540.000000	0.008982
3539.000000	0.009044
3538.000000	0.009107
3537.000000	0.009161
3536.000000	0.009204
3535.000000	0.009243
3534.000000	0.009278
3533.000000	0.009306
3532.000000	0.009322
3531.000000	0.009327
3530.000000	0.009326
3529.000000	0.009329
3528.000000	0.009345
3527.000000	0.009374
3526.000000	0.009415
3525.000000	0.009465
3524.000000	0.009520
3523.000000	0.009575
3522.000000	0.009622
3521.000000	0.009656
3520.000000	0.009678
3519.000000	0.009693
3518.000000	0.009709
3517.000000	0.009728
3516.000000	0.009749
3515.000000	0.009769
3514.000000	0.009786
3513.000000	0.009803
3512.000000	0.009824
3511.000000	0.009853
3510.000000	0.009891
3509.000000	0.009935
3508.000000	0.009978
3507.000000	0.010018
3506.000000	0.010050
3505.000000	0.010076
3504.000000	0.010096
3503.000000	0.010113
3502.000000	0.010128
3501.000000	0.010146
3500.000000	0.010170
3499.000000	0.010201
3498.000000	0.010237
3497.000000	0.010277
3496.000000	0.010318
3495.000000	0.010357
3494.000000	0.010393
3493.000000	0.010424
3492.000000	0.010451
3491.000000	0.010471
3490.000000	0.010490
3489.000000	0.010511
3488.000000	0.010541
3487.000000	0.010579
3486.000000	0.010624
3485.000000	0.010665
3484.000000	0.010695
3483.000000	0.010712
3482.000000	0.010721
3481.000000	0.010734
3480.000000	0.010756
3479.000000	0.010782
3478.000000	0.010810
3477.000000	0.010838
3476.000000	0.010869
3475.000000	0.010903
3474.000000	0.010938
3473.000000	0.010974
3472.000000	0.011008
3471.000000	0.011042
3470.000000	0.011078
3469.000000	0.011113
3468.000000	0.011139
3467.000000	0.011152
3466.000000	0.011157
3465.000000	0.011164
3464.000000	0.011181
3463.000000	0.011207
3462.000000	0.011237
3461.000000	0.011268
3460.000000	0.011298
3459.000000	0.011324
3458.000000	0.011347
3457.000000	0.011372
3456.000000	0.011403
3455.000000	0.011438
3454.000000	0.011472
3453.000000	0.011503
3452.000000	0.011532
3451.000000	0.011559
3450.000000	0.011581
3449.000000	0.011595
3448.000000	0.011606
3447.000000	0.011624
3446.000000	0.011655
3445.000000	0.011696
3444.000000	0.011741
3443.000000	0.011782
3442.000000	0.011815
3441.000000	0.011839
3440.000000	0.011860
3439.000000	0.011882
3438.000000	0.011910
3437.000000	0.011945
3436.000000	0.011984
3435.000000	0.012026
3434.000000	0.012067
3433.000000	0.012104
3432.000000	0.012134
3431.000000	0.012153
3430.000000	0.012163
3429.000000	0.012175
3428.000000	0.012201
3427.000000	0.012244
3426.000000	0.012296
3425.000000	0.012339
3424.000000	0.012365
3423.000000	0.012379
3422.000000	0.012391
3421.000000	0.012410
3420.000000	0.012436
3419.000000	0.012471
3418.000000	0.012518
3417.000000	0.012575
3416.000000	0.012632
3415.000000	0.012679
3414.000000	0.012712
3413.000000	0.012735
3412.000000	0.012754
3411.000000	0.012775
3410.000000	0.012798
3409.000000	0.012824
3408.000000	0.012852
3407.000000	0.012879
3406.000000	0.012909
3405.000000	0.012945
3404.000000	0.012986
3403.000000	0.013026
3402.000000	0.013060
3401.000000	0.013092
3400.000000	0.013130
3399.000000	0.013178
3398.000000	0.013228
3397.000000	0.013269
3396.000000	0.013295
3395.000000	0.013315
3394.000000	0.013340
3393.000000	0.013375
3392.000000	0.013416
3391.000000	0.013457
3390.000000	0.013494
3389.000000	0.013524
3388.000000	0.013545
3387.000000	0.013559
3386.000000	0.013578
3385.000000	0.013612
3384.000000	0.013662
3383.000000	0.013711
3382.000000	0.013739
3381.000000	0.013741
3380.000000	0.013730
3379.000000	0.013722
3378.000000	0.013728
3377.000000	0.013751
3376.000000	0.013789
3375.000000	0.013839
3374.000000	0.013895
3373.000000	0.013948
3372.000000	0.013993
3371.000000	0.014035
3370.000000	0.014085
3369.000000	0.014147
3368.000000	0.014213
3367.000000	0.014270
3366.000000	0.014312
3365.000000	0.014342
3364.000000	0.014368
3363.000000	0.014401
3362.000000	0.014446
3361.000000	0.014507
3360.000000	0.014583
3359.000000	0.014667
3358.000000	0.014754
3357.000000	0.014835
3356.000000	0.014904
3355.000000	0.014956
3354.000000	0.014996
3353.000000	0.015029
3352.000000	0.015061
3351.000000	0.015093
3350.000000	0.015132
3349.000000	0.015181
3348.000000	0.015239
3347.000000	0.015296
3346.000000	0.015349
3345.000000	0.015401
3344.000000	0.015458
3343.000000	0.015521
3342.000000	0.015585
3341.000000	0.015647
3340.000000	0.015710
3339.000000	0.015775
3338.000000	0.015839
3337.000000	0.015894
3336.000000	0.015941
3335.000000	0.015988
3334.000000	0.016042
3333.000000	0.016106
3332.000000	0.016171
3331.000000	0.016229
3330.000000	0.016277
3329.000000	0.016319
3328.000000	0.016358
3327.000000	0.016394
3326.000000	0.016426
3325.000000	0.016453
3324.000000	0.016481
3323.000000	0.016515
3322.000000	0.016560
3321.000000	0.016611
3320.000000	0.016657
3319.000000	0.016694
3318.000000	0.016725
3317.000000	0.016759
3316.000000	0.016797
3315.000000	0.016838
3314.000000	0.016875
3313.000000	0.016907
3312.000000	0.016932
3311.000000	0.016952
3310.000000	0.016962
3309.000000	0.016960
3308.000000	0.016949
3307.000000	0.016943
3306.000000	0.016956
3305.000000	0.016997
3304.000000	0.017057
3303.000000	0.017121
3302.000000	0.017176
3301.000000	0.017221
3300.000000	0.017257
3299.000000	0.017281
3298.000000	0.017292
3297.000000	0.017289
3296.000000	0.017282
3295.000000	0.017284
3294.000000	0.017299
3293.000000	0.017324
3292.000000	0.017349
3291.000000	0.017364
3290.000000	0.017367
3289.000000	0.017360
3288.000000	0.017350
3287.000000	0.017346
3286.000000	0.017351
3285.000000	0.017363
3284.000000	0.017374
3283.000000	0.017377
3282.000000	0.017376
3281.000000	0.017377
3280.000000	0.017384
3279.000000	0.017391
3278.000000	0.017390
3277.000000	0.017372
3276.000000	0.017333
3275.000000	0.017280
3274.000000	0.017224
3273.000000	0.017173
3272.000000	0.017132
3271.000000	0.017105
3270.000000	0.017094
3269.000000	0.017096
3268.000000	0.017101
3267.000000	0.017094
3266.000000	0.017073
3265.000000	0.017045
3264.000000	0.017017
3263.000000	0.016989
3262.000000	0.016959
3261.000000	0.016930
3260.000000	0.016907
3259.000000	0.016891
3258.000000	0.016876
3257.000000	0.016855
3256.000000	0.016825
3255.000000	0.016786
3254.000000	0.016743
3253.000000	0.016704
3252.000000	0.016677
3251.000000	0.016662
3250.000000	0.016654
3249.000000	0.016645
3248.000000	0.016630
3247.000000	0.016605
3246.000000	0.016570
3245.000000	0.016526
3244.000000	0.016477
3243.000000	0.016434
3242.000000	0.016403
3241.000000	0.016388
3240.000000	0.016380
3239.000000	0.016365
3238.000000	0.016334
3237.000000	0.016288
3236.000000	0.016235
3235.000000	0.016187
3234.000000	0.016150
3233.000000	0.016128
3232.000000	0.016122
3231.000000	0.016125
3230.000000	0.016123
3229.000000	0.016105
3228.000000	0.016070
3227.000000	0.016034
3226.000000	0.016013
3225.000000	0.016012
3224.000000	0.016015
3223.000000	0.016006
3222.000000	0.015978
3221.000000	0.015939
3220.000000	0.015906
3219.000000	0.015886
3218.000000	0.015877
3217.000000	0.015868
3216.000000	0.015852
3215.000000	0.015828
3214.000000	0.015801
3213.000000	0.015773
3212.000000	0.015745
3211.000000	0.015718
3210.000000	0.015696
3209.000000	0.015678
3208.000000	0.015661
3207.000000	0.015644
3206.000000	0.015628
3205.000000	0.015615
3204.000000	0.015599
3203.000000	0.015574
3202.000000	0.015536
3201.000000	0.015488
3200.000000	0.015439
3199.000000	0.015397
3198.000000	0.015366
3197.000000	0.015346
3196.000000	0.015328
3195.000000	0.015303
3194.000000	0.015266
3193.000000	0.015222
3192.000000	0.015181
3191.000000	0.015149
3190.000000	0.015126
3189.000000	0.015106
3188.000000	0.015084
3187.000000	0.015056
3186.000000	0.015020
3185.000000	0.014976
3184.000000	0.014926
3183.000000	0.014880
3182.000000	0.014842
3181.000000	0.014811
3180.000000	0.014782
3179.000000	0.014752
3178.000000	0.014727
3177.000000	0.014711
3176.000000	0.014702
3175.000000	0.014689
3174.000000	0.014666
3173.000000	0.014632
3172.000000	0.014591
3171.000000	0.014547
3170.000000	0.014498
3169.000000	0.014447
3168.000000	0.014399
3167.000000	0.014356
3166.000000	0.014313
3165.000000	0.014265
3164.000000	0.014214
3163.000000	0.014166
3162.000000	0.014127
3161.000000	0.014095
3160.000000	0.014063
3159.000000	0.014026
3158.000000	0.013990
3157.000000	0.013962
3156.000000	0.013943
3155.000000	0.013927
3154.000000	0.013905
3153.000000	0.013874
3152.000000	0.013835
3151.000000	0.013792
3150.000000	0.013748
3149.000000	0.013707
3148.000000	0.013671
3147.000000	0.013641
3146.000000	0.013612
3145.000000	0.013577
3144.000000	0.013528
3143.000000	0.013473
3142.000000	0.013423
3141.000000	0.013389
3140.000000	0.013366
3139.000000	0.013339
3138.000000	0.013305
3137.000000	0.013272
3136.000000	0.013252
3135.000000	0.013246
3134.000000	0.013246
3133.000000	0.013243
3132.000000	0.013235
3131.000000	0.013230
3130.000000	0.013231
3129.000000	0.013235
3128.000000	0.013230
3127.000000	0.013205
3126.000000	0.013161
3125.000000	0.013109
3124.000000	0.013061
3123.000000	0.013020
3122.000000	0.012984
3121.000000	0.012956
3120.000000	0.012942
3119.000000	0.012943
3118.000000	0.012954
3117.000000	0.012968
3116.000000	0.012982
3115.000000	0.012999
3114.000000	0.013016
3113.000000	0.013027
3112.000000	0.013026
3111.000000	0.013012
3110.000000	0.012989
3109.000000	0.012967
3108.000000	0.012959
3107.000000	0.012976
3106.000000	0.013016
3105.000000	0.013064
3104.000000	0.013101
3103.000000	0.013120
3102.000000	0.013125
3101.000000	0.013129
3100.000000	0.013140
3099.000000	0.013157
3098.000000	0.013169
3097.000000	0.013170
3096.000000	0.013160
3095.000000	0.013149
3094.000000	0.013153
3093.000000	0.013174
3092.000000	0.013206
3091.000000	0.013238
3090.000000	0.013264
3089.000000	0.013282
3088.000000	0.013291
3087.000000	0.013297
3086.000000	0.013308
3085.000000	0.013331
3084.000000	0.013362
3083.000000	0.013394
3082.000000	0.013414
3081.000000	0.013417
3080.000000	0.013405
3079.000000	0.013383
3078.000000	0.013368
3077.000000	0.013371
3076.000000	0.013391
3075.000000	0.013417
3074.000000	0.013435
3073.000000	0.013444
3072.000000	0.013447
3071.000000	0.013446
3070.000000	0.013434
3069.000000	0.013410
3068.000000	0.013384
3067.000000	0.013368
3066.000000	0.013368
3065.000000	0.013376
3064.000000	0.013382
3063.000000	0.013382
3062.000000	0.013377
3061.000000	0.013368
3060.000000	0.013353
3059.000000	0.013332
3058.000000	0.013309
3057.000000	0.013286
3056.000000	0.013263
3055.000000	0.013236
3054.000000	0.013201
3053.000000	0.013155
3052.000000	0.013101
3051.000000	0.013049
3050.000000	0.013005
3049.000000	0.012971
3048.000000	0.012941
3047.000000	0.012912
3046.000000	0.012883
3045.000000	0.012853
3044.000000	0.012820
3043.000000	0.012780
3042.000000	0.012739
3041.000000	0.012701
3040.000000	0.012666
3039.000000	0.012632
3038.000000	0.012592
3037.000000	0.012545
3036.000000	0.012495
3035.000000	0.012448
3034.000000	0.012408
3033.000000	0.012374
3032.000000	0.012340
3031.000000	0.012299
3030.000000	0.012253
3029.000000	0.012204
3028.000000	0.012156
3027.000000	0.012116
3026.000000	0.012088
3025.000000	0.012070
3024.000000	0.012051
3023.000000	0.012017
3022.000000	0.011962
3021.000000	0.011891
3020.000000	0.011814
3019.000000	0.011740
3018.000000	0.011673
3017.000000	0.011614
3016.000000	0.011563
3015.000000	0.011518
3014.000000	0.011480
3013.000000	0.011442
3012.000000	0.011400
3011.000000	0.011353
3010.000000	0.011310
3009.000000	0.011280
3008.000000	0.011263
3007.000000	0.011253
3006.000000	0.011240
3005.000000	0.011222
3004.000000	0.011196
3003.000000	0.011169
3002.000000	0.011145
3001.000000	0.011127
3000.000000	0.011112
2999.000000	0.011103
2998.000000	0.011103
2997.000000	0.011119
2996.000000	0.011150
2995.000000	0.011189
2994.000000	0.011223
2993.000000	0.011242
2992.000000	0.011244
2991.000000	0.011237
2990.000000	0.011245
2989.000000	0.011288
2988.000000	0.011370
2987.000000	0.011475
2986.000000	0.011581
2985.000000	0.011679
2984.000000	0.011776
2983.000000	0.011884
2982.000000	0.012009
2981.000000	0.012144
2980.000000	0.012275
2979.000000	0.012393
2978.000000	0.012502
2977.000000	0.012613
2976.000000	0.012733
2975.000000	0.012867
2974.000000	0.013012
2973.000000	0.013167
2972.000000	0.013329
2971.000000	0.013496
2970.000000	0.013676
2969.000000	0.013879
2968.000000	0.014104
2967.000000	0.014336
2966.000000	0.014559
2965.000000	0.014764
2964.000000	0.014951
2963.000000	0.015123
2962.000000	0.015279
2961.000000	0.015415
2960.000000	0.015521
2959.000000	0.015593
2958.000000	0.015637
2957.000000	0.015662
2956.000000	0.015678
2955.000000	0.015686
2954.000000	0.015686
2953.000000	0.015681
2952.000000	0.015674
2951.000000	0.015665
2950.000000	0.015652
2949.000000	0.015637
2948.000000	0.015626
2947.000000	0.015635
2946.000000	0.015674
2945.000000	0.015750
2944.000000	0.015856
2943.000000	0.015985
2942.000000	0.016129
2941.000000	0.016284
2940.000000	0.016453
2939.000000	0.016640
2938.000000	0.016846
2937.000000	0.017061
2936.000000	0.017268
2935.000000	0.017451
2934.000000	0.017613
2933.000000	0.017761
2932.000000	0.017898
2931.000000	0.018022
2930.000000	0.018131
2929.000000	0.018229
2928.000000	0.018321
2927.000000	0.018407
2926.000000	0.018488
2925.000000	0.018563
2924.000000	0.018627
2923.000000	0.018675
2922.000000	0.018703
2921.000000	0.018708
2920.000000	0.018688
2919.000000	0.018629
2918.000000	0.018520
2917.000000	0.018353
2916.000000	0.018129
2915.000000	0.017855
2914.000000	0.017544
2913.000000	0.017214
2912.000000	0.016884
2911.000000	0.016566
2910.000000	0.016269
2909.000000	0.015999
2908.000000	0.015755
2907.000000	0.015535
2906.000000	0.015331
2905.000000	0.015136
2904.000000	0.014944
2903.000000	0.014754
2902.000000	0.014573
2901.000000	0.014413
2900.000000	0.014280
2899.000000	0.014166
2898.000000	0.014053
2897.000000	0.013933
2896.000000	0.013809
2895.000000	0.013695
2894.000000	0.013597
2893.000000	0.013513
2892.000000	0.013436
2891.000000	0.013365
2890.000000	0.013302
2889.000000	0.013251
2888.000000	0.013207
2887.000000	0.013163
2886.000000	0.013121
2885.000000	0.013094
2884.000000	0.013099
2883.000000	0.013146
2882.000000	0.013223
2881.000000	0.013311
2880.000000	0.013394
2879.000000	0.013474
2878.000000	0.013567
2877.000000	0.013683
2876.000000	0.013815
2875.000000	0.013940
2874.000000	0.014039
2873.000000	0.014103
2872.000000	0.014132
2871.000000	0.014134
2870.000000	0.014116
2869.000000	0.014093
2868.000000	0.014078
2867.000000	0.014082
2866.000000	0.014106
2865.000000	0.014150
2864.000000	0.014210
2863.000000	0.014279
2862.000000	0.014355
2861.000000	0.014433
2860.000000	0.014513
2859.000000	0.014597
2858.000000	0.014684
2857.000000	0.014772
2856.000000	0.014856
2855.000000	0.014937
2854.000000	0.015013
2853.000000	0.015077
2852.000000	0.015109
2851.000000	0.015080
2850.000000	0.014969
2849.000000	0.014773
2848.000000	0.014504
2847.000000	0.014193
2846.000000	0.013874
2845.000000	0.013579
2844.000000	0.013324
2843.000000	0.013108
2842.000000	0.012919
2841.000000	0.012751
2840.000000	0.012602
2839.000000	0.012471
2838.000000	0.012358
2837.000000	0.012261
2836.000000	0.012178
2835.000000	0.012101
2834.000000	0.012022
2833.000000	0.011935
2832.000000	0.011844
2831.000000	0.011760
2830.000000	0.011692
2829.000000	0.011643
2828.000000	0.011611
2827.000000	0.011589
2826.000000	0.011568
2825.000000	0.011544
2824.000000	0.011514
2823.000000	0.011482
2822.000000	0.011456
2821.000000	0.011435
2820.000000	0.011414
2819.000000	0.011384
2818.000000	0.011348
2817.000000	0.011317
2816.000000	0.011297
2815.000000	0.011287
2814.000000	0.011280
2813.000000	0.011275
2812.000000	0.011267
2811.000000	0.011250
2810.000000	0.011220
2809.000000	0.011181
2808.000000	0.011141
2807.000000	0.011103
2806.000000	0.011068
2805.000000	0.011037
2804.000000	0.011010
2803.000000	0.010988
2802.000000	0.010968
2801.000000	0.010951
2800.000000	0.010940
2799.000000	0.010938
2798.000000	0.010941
2797.000000	0.010939
2796.000000	0.010927
2795.000000	0.010906
2794.000000	0.010883
2793.000000	0.010866
2792.000000	0.010858
2791.000000	0.010851
2790.000000	0.010837
2789.000000	0.010811
2788.000000	0.010775
2787.000000	0.010736
2786.000000	0.010704
2785.000000	0.010683
2784.000000	0.010674
2783.000000	0.010673
2782.000000	0.010677
2781.000000	0.010684
2780.000000	0.010686
2779.000000	0.010676
2778.000000	0.010650
2777.000000	0.010623
2776.000000	0.010603
2775.000000	0.010589
2774.000000	0.010567
2773.000000	0.010537
2772.000000	0.010513
2771.000000	0.010509
2770.000000	0.010520
2769.000000	0.010531
2768.000000	0.010528
2767.000000	0.010512
2766.000000	0.010491
2765.000000	0.010470
2764.000000	0.010447
2763.000000	0.010420
2762.000000	0.010394
2761.000000	0.010375
2760.000000	0.010369
2759.000000	0.010370
2758.000000	0.010371
2757.000000	0.010367
2756.000000	0.010359
2755.000000	0.010351
2754.000000	0.010345
2753.000000	0.010339
2752.000000	0.010332
2751.000000	0.010321
2750.000000	0.010306
2749.000000	0.010291
2748.000000	0.010279
2747.000000	0.010269
2746.000000	0.010262
2745.000000	0.010258
2744.000000	0.010256
2743.000000	0.010252
2742.000000	0.010241
2741.000000	0.010228
2740.000000	0.010221
2739.000000	0.010218
2738.000000	0.010212
2737.000000	0.010201
2736.000000	0.010189
2735.000000	0.010181
2734.000000	0.010174
2733.000000	0.010164
2732.000000	0.010153
2731.000000	0.010149
2730.000000	0.010155
2729.000000	0.010161
2728.000000	0.010158
2727.000000	0.010144
2726.000000	0.010125
2725.000000	0.010110
2724.000000	0.010102
2723.000000	0.010095
2722.000000	0.010082
2721.000000	0.010059
2720.000000	0.010032
2719.000000	0.010011
2718.000000	0.010002
2717.000000	0.010002
2716.000000	0.010004
2715.000000	0.010000
2714.000000	0.009987
2713.000000	0.009970
2712.000000	0.009958
2711.000000	0.009954
2710.000000	0.009953
2709.000000	0.009950
2708.000000	0.009943
2707.000000	0.009940
2706.000000	0.009938
2705.000000	0.009931
2704.000000	0.009916
2703.000000	0.009899
2702.000000	0.009887
2701.000000	0.009881
2700.000000	0.009873
2699.000000	0.009859
2698.000000	0.009839
2697.000000	0.009815
2696.000000	0.009795
2695.000000	0.009787
2694.000000	0.009795
2693.000000	0.009814
2692.000000	0.009834
2691.000000	0.009849
2690.000000	0.009855
2689.000000	0.009854
2688.000000	0.009846
2687.000000	0.009834
2686.000000	0.009822
2685.000000	0.009813
2684.000000	0.009807
2683.000000	0.009804
2682.000000	0.009806
2681.000000	0.009811
2680.000000	0.009817
2679.000000	0.009816
2678.000000	0.009807
2677.000000	0.009798
2676.000000	0.009795
2675.000000	0.009799
2674.000000	0.009801
2673.000000	0.009790
2672.000000	0.009765
2671.000000	0.009738
2670.000000	0.009718
2669.000000	0.009715
2668.000000	0.009726
2667.000000	0.009740
2666.000000	0.009748
2665.000000	0.009740
2664.000000	0.009720
2663.000000	0.009698
2662.000000	0.009685
2661.000000	0.009690
2660.000000	0.009710
2659.000000	0.009738
2658.000000	0.009761
2657.000000	0.009771
2656.000000	0.009763
2655.000000	0.009743
2654.000000	0.009715
2653.000000	0.009681
2652.000000	0.009643
2651.000000	0.009612
2650.000000	0.009596
2649.000000	0.009594
2648.000000	0.009594
2647.000000	0.009588
2646.000000	0.009579
2645.000000	0.009571
2644.000000	0.009562
2643.000000	0.009547
2642.000000	0.009526
2641.000000	0.009500
2640.000000	0.009473
2639.000000	0.009447
2638.000000	0.009424
2637.000000	0.009399
2636.000000	0.009369
2635.000000	0.009332
2634.000000	0.009296
2633.000000	0.009267
2632.000000	0.009246
2631.000000	0.009231
2630.000000	0.009222
2629.000000	0.009218
2628.000000	0.009215
2627.000000	0.009205
2626.000000	0.009188
2625.000000	0.009168
2624.000000	0.009148
2623.000000	0.009130
2622.000000	0.009114
2621.000000	0.009101
2620.000000	0.009089
2619.000000	0.009077
2618.000000	0.009067
2617.000000	0.009056
2616.000000	0.009035
2615.000000	0.009001
2614.000000	0.008963
2613.000000	0.008935
2612.000000	0.008924
2611.000000	0.008923
2610.000000	0.008924
2609.000000	0.008925
2608.000000	0.008931
2607.000000	0.008943
2606.000000	0.008961
2605.000000	0.008979
2604.000000	0.008985
2603.000000	0.008972
2602.000000	0.008947
2601.000000	0.008923
2600.000000	0.008907
2599.000000	0.008891
2598.000000	0.008865
2597.000000	0.008828
2596.000000	0.008788
2595.000000	0.008754
2594.000000	0.008732
2593.000000	0.008721
2592.000000	0.008712
2591.000000	0.008701
2590.000000	0.008695
2589.000000	0.008704
2588.000000	0.008722
2587.000000	0.008727
2586.000000	0.008706
2585.000000	0.008671
2584.000000	0.008641
2583.000000	0.008625
2582.000000	0.008619
2581.000000	0.008615
2580.000000	0.008613
2579.000000	0.008613
2578.000000	0.008612
2577.000000	0.008606
2576.000000	0.008595
2575.000000	0.008580
2574.000000	0.008562
2573.000000	0.008541
2572.000000	0.008522
2571.000000	0.008506
2570.000000	0.008490
2569.000000	0.008470
2568.000000	0.008447
2567.000000	0.008430
2566.000000	0.008424
2565.000000	0.008429
2564.000000	0.008441
2563.000000	0.008464
2562.000000	0.008495
2561.000000	0.008521
2560.000000	0.008522
2559.000000	0.008496
2558.000000	0.008464
2557.000000	0.008446
2556.000000	0.008441
2555.000000	0.008434
2554.000000	0.008418
2553.000000	0.008402
2552.000000	0.008398
2551.000000	0.008407
2550.000000	0.008419
2549.000000	0.008415
2548.000000	0.008386
2547.000000	0.008333
2546.000000	0.008274
2545.000000	0.008225
2544.000000	0.008196
2543.000000	0.008196
2542.000000	0.008224
2541.000000	0.008265
2540.000000	0.008291
2539.000000	0.008290
2538.000000	0.008287
2537.000000	0.008312
2536.000000	0.008363
2535.000000	0.008407
2534.000000	0.008418
2533.000000	0.008402
2532.000000	0.008385
2531.000000	0.008390
2530.000000	0.008423
2529.000000	0.008470
2528.000000	0.008505
2527.000000	0.008505
2526.000000	0.008476
2525.000000	0.008452
2524.000000	0.008460
2523.000000	0.008501
2522.000000	0.008548
2521.000000	0.008576
2520.000000	0.008573
2519.000000	0.008546
2518.000000	0.008504
2517.000000	0.008461
2516.000000	0.008422
2515.000000	0.008394
2514.000000	0.008385
2513.000000	0.008393
2512.000000	0.008410
2511.000000	0.008426
2510.000000	0.008440
2509.000000	0.008459
2508.000000	0.008478
2507.000000	0.008482
2506.000000	0.008461
2505.000000	0.008417
2504.000000	0.008353
2503.000000	0.008274
2502.000000	0.008198
2501.000000	0.008155
2500.000000	0.008165
2499.000000	0.008221
2498.000000	0.008297
2497.000000	0.008366
2496.000000	0.008406
2495.000000	0.008398
2494.000000	0.008340
2493.000000	0.008252
2492.000000	0.008178
2491.000000	0.008144
2490.000000	0.008145
2489.000000	0.008154
2488.000000	0.008149
2487.000000	0.008129
2486.000000	0.008111
2485.000000	0.008110
2484.000000	0.008126
2483.000000	0.008140
2482.000000	0.008126
2481.000000	0.008078
2480.000000	0.008014
2479.000000	0.007973
2478.000000	0.007976
2477.000000	0.008010
2476.000000	0.008036
2475.000000	0.008029
2474.000000	0.007999
2473.000000	0.007978
2472.000000	0.007982
2471.000000	0.007998
2470.000000	0.008004
2469.000000	0.007987
2468.000000	0.007958
2467.000000	0.007937
2466.000000	0.007940
2465.000000	0.007968
2464.000000	0.008004
2463.000000	0.008028
2462.000000	0.008028
2461.000000	0.008014
2460.000000	0.007998
2459.000000	0.007988
2458.000000	0.007983
2457.000000	0.007977
2456.000000	0.007972
2455.000000	0.007967
2454.000000	0.007955
2453.000000	0.007933
2452.000000	0.007906
2451.000000	0.007888
2450.000000	0.007883
2449.000000	0.007880
2448.000000	0.007865
2447.000000	0.007838
2446.000000	0.007819
2445.000000	0.007822
2444.000000	0.007847
2443.000000	0.007877
2442.000000	0.007898
2441.000000	0.007903
2440.000000	0.007887
2439.000000	0.007857
2438.000000	0.007828
2437.000000	0.007814
2436.000000	0.007818
2435.000000	0.007830
2434.000000	0.007841
2433.000000	0.007844
2432.000000	0.007832
2431.000000	0.007810
2430.000000	0.007789
2429.000000	0.007776
2428.000000	0.007772
2427.000000	0.007774
2426.000000	0.007779
2425.000000	0.007783
2424.000000	0.007779
2423.000000	0.007765
2422.000000	0.007746
2421.000000	0.007729
2420.000000	0.007712
2419.000000	0.007693
2418.000000	0.007681
2417.000000	0.007688
2416.000000	0.007713
2415.000000	0.007747
2414.000000	0.007776
2413.000000	0.007790
2412.000000	0.007781
2411.000000	0.007757
2410.000000	0.007728
2409.000000	0.007701
2408.000000	0.007667
2407.000000	0.007619
2406.000000	0.007569
2405.000000	0.007543
2404.000000	0.007557
2403.000000	0.007603
2402.000000	0.007661
2401.000000	0.007705
2400.000000	0.007722
2399.000000	0.007713
2398.000000	0.007695
2397.000000	0.007679
2396.000000	0.007669
2395.000000	0.007669
2394.000000	0.007687
2393.000000	0.007720
2392.000000	0.007744
2391.000000	0.007741
2390.000000	0.007713
2389.000000	0.007686
2388.000000	0.007675
2387.000000	0.007676
2386.000000	0.007672
2385.000000	0.007643
2384.000000	0.007574
2383.000000	0.007463
2382.000000	0.007333
2381.000000	0.007215
2380.000000	0.007132
2379.000000	0.007101
2378.000000	0.007133
2377.000000	0.007220
2376.000000	0.007329
2375.000000	0.007416
2374.000000	0.007457
2373.000000	0.007456
2372.000000	0.007424
2371.000000	0.007376
2370.000000	0.007333
2369.000000	0.007305
2368.000000	0.007288
2367.000000	0.007282
2366.000000	0.007302
2365.000000	0.007345
2364.000000	0.007384
2363.000000	0.007404
2362.000000	0.007415
2361.000000	0.007418
2360.000000	0.007402
2359.000000	0.007364
2358.000000	0.007329
2357.000000	0.007322
2356.000000	0.007351
2355.000000	0.007414
2354.000000	0.007469
2353.000000	0.007463
2352.000000	0.007407
2351.000000	0.007368
2350.000000	0.007383
2349.000000	0.007437
2348.000000	0.007489
2347.000000	0.007500
2346.000000	0.007479
2345.000000	0.007490
2344.000000	0.007562
2343.000000	0.007651
2342.000000	0.007695
2341.000000	0.007673
2340.000000	0.007615
2339.000000	0.007560
2338.000000	0.007526
2337.000000	0.007514
2336.000000	0.007522
2335.000000	0.007535
2334.000000	0.007520
2333.000000	0.007464
2332.000000	0.007408
2331.000000	0.007407
2330.000000	0.007474
2329.000000	0.007572
2328.000000	0.007681
2327.000000	0.007801
2326.000000	0.007925
2325.000000	0.008024
2324.000000	0.008062
2323.000000	0.008038
2322.000000	0.007987
2321.000000	0.007964
2320.000000	0.007990
2319.000000	0.008036
2318.000000	0.008052
2317.000000	0.008014
2316.000000	0.007936
2315.000000	0.007849
2314.000000	0.007779
2313.000000	0.007742
2312.000000	0.007733
2311.000000	0.007734
2310.000000	0.007727
2309.000000	0.007709
2308.000000	0.007685
2307.000000	0.007660
2306.000000	0.007645
2305.000000	0.007653
2304.000000	0.007681
2303.000000	0.007705
2302.000000	0.007702
2301.000000	0.007678
2300.000000	0.007655
2299.000000	0.007650
2298.000000	0.007669
2297.000000	0.007700
2296.000000	0.007722
2295.000000	0.007720
2294.000000	0.007704
2293.000000	0.007711
2292.000000	0.007763
2291.000000	0.007842
2290.000000	0.007901
2289.000000	0.007915
2288.000000	0.007895
2287.000000	0.007872
2286.000000	0.007868
2285.000000	0.007885
2284.000000	0.007895
2283.000000	0.007861
2282.000000	0.007776
2281.000000	0.007676
2280.000000	0.007604
2279.000000	0.007565
2278.000000	0.007538
2277.000000	0.007507
2276.000000	0.007482
2275.000000	0.007476
2274.000000	0.007488
2273.000000	0.007504
2272.000000	0.007509
2271.000000	0.007488
2270.000000	0.007447
2269.000000	0.007415
2268.000000	0.007417
2267.000000	0.007451
2266.000000	0.007496
2265.000000	0.007535
2264.000000	0.007555
2263.000000	0.007542
2262.000000	0.007492
2261.000000	0.007426
2260.000000	0.007380
2259.000000	0.007368
2258.000000	0.007377
2257.000000	0.007376
2256.000000	0.007338
2255.000000	0.007257
2254.000000	0.007172
2253.000000	0.007158
2252.000000	0.007253
2251.000000	0.007403
2250.000000	0.007496
2249.000000	0.007466
2248.000000	0.007351
2247.000000	0.007245
2246.000000	0.007212
2245.000000	0.007245
2244.000000	0.007290
2243.000000	0.007302
2242.000000	0.007273
2241.000000	0.007220
2240.000000	0.007163
2239.000000	0.007110
2238.000000	0.007080
2237.000000	0.007098
2236.000000	0.007176
2235.000000	0.007281
2234.000000	0.007355
2233.000000	0.007354
2232.000000	0.007284
2231.000000	0.007207
2230.000000	0.007191
2229.000000	0.007249
2228.000000	0.007310
2227.000000	0.007277
2226.000000	0.007141
2225.000000	0.006994
2224.000000	0.006934
2223.000000	0.006955
2222.000000	0.006973
2221.000000	0.006935
2220.000000	0.006877
2219.000000	0.006876
2218.000000	0.006963
2217.000000	0.007101
2216.000000	0.007224
2215.000000	0.007289
2214.000000	0.007294
2213.000000	0.007260
2212.000000	0.007204
2211.000000	0.007133
2210.000000	0.007061
2209.000000	0.007005
2208.000000	0.006974
2207.000000	0.006967
2206.000000	0.006983
2205.000000	0.007013
2204.000000	0.007031
2203.000000	0.007023
2202.000000	0.007004
2201.000000	0.007012
2200.000000	0.007045
2199.000000	0.007055
2198.000000	0.007008
2197.000000	0.006930
2196.000000	0.006889
2195.000000	0.006925
2194.000000	0.007040
2193.000000	0.007203
2192.000000	0.007354
2191.000000	0.007414
2190.000000	0.007325
2189.000000	0.007115
2188.000000	0.006893
2187.000000	0.006761
2186.000000	0.006737
2185.000000	0.006749
2184.000000	0.006721
2183.000000	0.006638
2182.000000	0.006543
2181.000000	0.006472
2180.000000	0.006419
2179.000000	0.006376
2178.000000	0.006363
2177.000000	0.006401
2176.000000	0.006475
2175.000000	0.006545
2174.000000	0.006584
2173.000000	0.006601
2172.000000	0.006613
2171.000000	0.006647
2170.000000	0.006737
2169.000000	0.006889
2168.000000	0.007065
2167.000000	0.007203
2166.000000	0.007270
2165.000000	0.007263
2164.000000	0.007186
2163.000000	0.007037
2162.000000	0.006809
2161.000000	0.006465
2160.000000	0.005970
2159.000000	0.005405
2158.000000	0.005005
2157.000000	0.004956
2156.000000	0.005199
2155.000000	0.005515
2154.000000	0.005749
2153.000000	0.005871
2152.000000	0.005922
2151.000000	0.005951
2150.000000	0.005999
2149.000000	0.006076
2148.000000	0.006135
2147.000000	0.006124
2146.000000	0.006048
2145.000000	0.005955
2144.000000	0.005883
2143.000000	0.005855
2142.000000	0.005892
2141.000000	0.005997
2140.000000	0.006134
2139.000000	0.006255
2138.000000	0.006336
2137.000000	0.006360
2136.000000	0.006302
2135.000000	0.006179
2134.000000	0.006090
2133.000000	0.006134
2132.000000	0.006298
2131.000000	0.006481
2130.000000	0.006602
2129.000000	0.006654
2128.000000	0.006665
2127.000000	0.006659
2126.000000	0.006667
2125.000000	0.006711
2124.000000	0.006765
2123.000000	0.006774
2122.000000	0.006733
2121.000000	0.006699
2120.000000	0.006722
2119.000000	0.006787
2118.000000	0.006844
2117.000000	0.006875
2116.000000	0.006901
2115.000000	0.006941
2114.000000	0.006992
2113.000000	0.007039
2112.000000	0.007069
2111.000000	0.007081
2110.000000	0.007085
2109.000000	0.007095
2108.000000	0.007105
2107.000000	0.007093
2106.000000	0.007048
2105.000000	0.006991
2104.000000	0.006951
2103.000000	0.006938
2102.000000	0.006937
2101.000000	0.006927
2100.000000	0.006894
2099.000000	0.006850
2098.000000	0.006823
2097.000000	0.006823
2096.000000	0.006822
2095.000000	0.006786
2094.000000	0.006728
2093.000000	0.006700
2092.000000	0.006737
2091.000000	0.006819
2090.000000	0.006897
2089.000000	0.006932
2088.000000	0.006910
2087.000000	0.006852
2086.000000	0.006803
2085.000000	0.006796
2084.000000	0.006817
2083.000000	0.006830
2082.000000	0.006821
2081.000000	0.006798
2080.000000	0.006770
2079.000000	0.006738
2078.000000	0.006727
2077.000000	0.006764
2076.000000	0.006836
2075.000000	0.006894
2074.000000	0.006904
2073.000000	0.006874
2072.000000	0.006831
2071.000000	0.006797
2070.000000	0.006786
2069.000000	0.006789
2068.000000	0.006762
2067.000000	0.006674
2066.000000	0.006560
2065.000000	0.006498
2064.000000	0.006508
2063.000000	0.006538
2062.000000	0.006549
2061.000000	0.006571
2060.000000	0.006639
2059.000000	0.006726
2058.000000	0.006769
2057.000000	0.006728
2056.000000	0.006607
2055.000000	0.006460
2054.000000	0.006377
2053.000000	0.006424
2052.000000	0.006564
2051.000000	0.006669
2050.000000	0.006651
2049.000000	0.006540
2048.000000	0.006416
2047.000000	0.006311
2046.000000	0.006213
2045.000000	0.006144
2044.000000	0.006149
2043.000000	0.006221
2042.000000	0.006302
2041.000000	0.006340
2040.000000	0.006342
2039.000000	0.006347
2038.000000	0.006384
2037.000000	0.006432
2036.000000	0.006407
2035.000000	0.006241
2034.000000	0.005970
2033.000000	0.005715
2032.000000	0.005556
2031.000000	0.005480
2030.000000	0.005454
2029.000000	0.005480
2028.000000	0.005548
2027.000000	0.005610
2026.000000	0.005627
2025.000000	0.005607
2024.000000	0.005571
2023.000000	0.005532
2022.000000	0.005507
2021.000000	0.005509
2020.000000	0.005518
2019.000000	0.005492
2018.000000	0.005437
2017.000000	0.005409
2016.000000	0.005443
2015.000000	0.005520
2014.000000	0.005614
2013.000000	0.005725
2012.000000	0.005851
2011.000000	0.005976
2010.000000	0.006081
2009.000000	0.006138
2008.000000	0.006103
2007.000000	0.005970
2006.000000	0.005814
2005.000000	0.005718
2004.000000	0.005684
2003.000000	0.005666
2002.000000	0.005654
2001.000000	0.005677
2000.000000	0.005728
1999.000000	0.005781
1998.000000	0.005845
1997.000000	0.005944
1996.000000	0.006056
1995.000000	0.006129
1994.000000	0.006159
1993.000000	0.006189
1992.000000	0.006231
1991.000000	0.006241
1990.000000	0.006183
1989.000000	0.006069
1988.000000	0.005933
1987.000000	0.005816
1986.000000	0.005762
1985.000000	0.005790
1984.000000	0.005876
1983.000000	0.006008
1982.000000	0.006226
1981.000000	0.006531
1980.000000	0.006765
1979.000000	0.006692
1978.000000	0.006246
1977.000000	0.005651
1976.000000	0.005236
1975.000000	0.005164
1974.000000	0.005377
1973.000000	0.005692
1972.000000	0.005899
1971.000000	0.005896
1970.000000	0.005749
1969.000000	0.005589
1968.000000	0.005480
1967.000000	0.005412
1966.000000	0.005397
1965.000000	0.005464
1964.000000	0.005581
1963.000000	0.005680
1962.000000	0.005733
1961.000000	0.005746
1960.000000	0.005692
1959.000000	0.005560
1958.000000	0.005420
1957.000000	0.005372
1956.000000	0.005421
1955.000000	0.005495
1954.000000	0.005558
1953.000000	0.005628
1952.000000	0.005691
1951.000000	0.005706
1950.000000	0.005680
1949.000000	0.005669
1948.000000	0.005681
1947.000000	0.005672
1946.000000	0.005651
1945.000000	0.005693
1944.000000	0.005820
1943.000000	0.005937
1942.000000	0.005936
1941.000000	0.005810
1940.000000	0.005625
1939.000000	0.005449
1938.000000	0.005337
1937.000000	0.005325
1936.000000	0.005393
1935.000000	0.005479
1934.000000	0.005552
1933.000000	0.005622
1932.000000	0.005682
1931.000000	0.005694
1930.000000	0.005666
1929.000000	0.005657
1928.000000	0.005689
1927.000000	0.005721
1926.000000	0.005716
1925.000000	0.005700
1924.000000	0.005702
1923.000000	0.005705
1922.000000	0.005688
1921.000000	0.005670
1920.000000	0.005686
1919.000000	0.005746
1918.000000	0.005845
1917.000000	0.005972
1916.000000	0.006090
1915.000000	0.006153
1914.000000	0.006152
1913.000000	0.006121
1912.000000	0.006087
1911.000000	0.006045
1910.000000	0.005989
1909.000000	0.005936
1908.000000	0.005897
1907.000000	0.005852
1906.000000	0.005787
1905.000000	0.005739
1904.000000	0.005735
1903.000000	0.005755
1902.000000	0.005766
1901.000000	0.005757
1900.000000	0.005734
1899.000000	0.005711
1898.000000	0.005712
1897.000000	0.005767
1896.000000	0.005852
1895.000000	0.005896
1894.000000	0.005865
1893.000000	0.005812
1892.000000	0.005806
1891.000000	0.005856
1890.000000	0.005911
1889.000000	0.005936
1888.000000	0.005938
1887.000000	0.005940
1886.000000	0.005942
1885.000000	0.005939
1884.000000	0.005924
1883.000000	0.005889
1882.000000	0.005840
1881.000000	0.005790
1880.000000	0.005754
1879.000000	0.005737
1878.000000	0.005741
1877.000000	0.005768
1876.000000	0.005804
1875.000000	0.005822
1874.000000	0.005804
1873.000000	0.005760
1872.000000	0.005715
1871.000000	0.005678
1870.000000	0.005640
1869.000000	0.005591
1868.000000	0.005549
1867.000000	0.005548
1866.000000	0.005601
1865.000000	0.005679
1864.000000	0.005733
1863.000000	0.005743
1862.000000	0.005737
1861.000000	0.005752
1860.000000	0.005782
1859.000000	0.005794
1858.000000	0.005785
1857.000000	0.005787
1856.000000	0.005813
1855.000000	0.005833
1854.000000	0.005821
1853.000000	0.005777
1852.000000	0.005719
1851.000000	0.005668
1850.000000	0.005625
1849.000000	0.005569
1848.000000	0.005486
1847.000000	0.005403
1846.000000	0.005380
1845.000000	0.005440
1844.000000	0.005517
1843.000000	0.005547
1842.000000	0.005555
1841.000000	0.005584
1840.000000	0.005629
1839.000000	0.005654
1838.000000	0.005646
1837.000000	0.005638
1836.000000	0.005645
1835.000000	0.005645
1834.000000	0.005619
1833.000000	0.005583
1832.000000	0.005563
1831.000000	0.005556
1830.000000	0.005525
1829.000000	0.005470
1828.000000	0.005432
1827.000000	0.005438
1826.000000	0.005477
1825.000000	0.005519
1824.000000	0.005550
1823.000000	0.005574
1822.000000	0.005599
1821.000000	0.005616
1820.000000	0.005610
1819.000000	0.005575
1818.000000	0.005527
1817.000000	0.005505
1816.000000	0.005520
1815.000000	0.005559
1814.000000	0.005612
1813.000000	0.005674
1812.000000	0.005732
1811.000000	0.005750
1810.000000	0.005721
1809.000000	0.005687
1808.000000	0.005675
1807.000000	0.005686
1806.000000	0.005716
1805.000000	0.005773
1804.000000	0.005846
1803.000000	0.005908
1802.000000	0.005949
1801.000000	0.005987
1800.000000	0.006051
1799.000000	0.006132
1798.000000	0.006200
1797.000000	0.006228
1796.000000	0.006203
1795.000000	0.006147
1794.000000	0.006100
1793.000000	0.006071
1792.000000	0.006024
1791.000000	0.005938
1790.000000	0.005847
1789.000000	0.005791
1788.000000	0.005777
1787.000000	0.005788
1786.000000	0.005805
1785.000000	0.005819
1784.000000	0.005816
1783.000000	0.005802
1782.000000	0.005794
1781.000000	0.005788
1780.000000	0.005781
1779.000000	0.005763
1778.000000	0.005729
1777.000000	0.005657
1776.000000	0.005532
1775.000000	0.005399
1774.000000	0.005338
1773.000000	0.005365
1772.000000	0.005415
1771.000000	0.005450
1770.000000	0.005504
1769.000000	0.005607
1768.000000	0.005716
1767.000000	0.005764
1766.000000	0.005754
1765.000000	0.005758
1764.000000	0.005831
1763.000000	0.005964
1762.000000	0.006102
1761.000000	0.006221
1760.000000	0.006366
1759.000000	0.006577
1758.000000	0.006878
1757.000000	0.007237
1756.000000	0.007583
1755.000000	0.007884
1754.000000	0.008185
1753.000000	0.008567
1752.000000	0.009073
1751.000000	0.009653
1750.000000	0.010231
1749.000000	0.010784
1748.000000	0.011289
1747.000000	0.011731
1746.000000	0.012127
1745.000000	0.012490
1744.000000	0.012780
1743.000000	0.012946
1742.000000	0.013019
1741.000000	0.013076
1740.000000	0.013086
1739.000000	0.012950
1738.000000	0.012707
1737.000000	0.012472
1736.000000	0.012300
1735.000000	0.012080
1734.000000	0.011665
1733.000000	0.011236
1732.000000	0.011024
1731.000000	0.010924
1730.000000	0.010760
1729.000000	0.010484
1728.000000	0.010150
1727.000000	0.009816
1726.000000	0.009500
1725.000000	0.009208
1724.000000	0.008933
1723.000000	0.008631
1722.000000	0.008303
1721.000000	0.007998
1720.000000	0.007755
1719.000000	0.007554
1718.000000	0.007351
1717.000000	0.007222
1716.000000	0.007268
1715.000000	0.007419
1714.000000	0.007560
1713.000000	0.007671
1712.000000	0.007765
1711.000000	0.007831
1710.000000	0.007865
1709.000000	0.007902
1708.000000	0.007999
1707.000000	0.008181
1706.000000	0.008396
1705.000000	0.008558
1704.000000	0.008616
1703.000000	0.008628
1702.000000	0.008775
1701.000000	0.009167
1700.000000	0.009601
1699.000000	0.009888
1698.000000	0.010149
1697.000000	0.010578
1696.000000	0.011147
1695.000000	0.011664
1694.000000	0.012086
1693.000000	0.012506
1692.000000	0.012954
1691.000000	0.013398
1690.000000	0.013793
1689.000000	0.014076
1688.000000	0.014216
1687.000000	0.014290
1686.000000	0.014517
1685.000000	0.015110
1684.000000	0.015893
1683.000000	0.016539
1682.000000	0.017067
1681.000000	0.017609
1680.000000	0.018130
1679.000000	0.018543
1678.000000	0.018880
1677.000000	0.019316
1676.000000	0.019963
1675.000000	0.020684
1674.000000	0.021273
1673.000000	0.021742
1672.000000	0.022237
1671.000000	0.022850
1670.000000	0.023598
1669.000000	0.024404
1668.000000	0.025144
1667.000000	0.025738
1666.000000	0.026217
1665.000000	0.026708
1664.000000	0.027310
1663.000000	0.027984
1662.000000	0.028620
1661.000000	0.029187
1660.000000	0.029713
1659.000000	0.030172
1658.000000	0.030484
1657.000000	0.030591
1656.000000	0.030568
1655.000000	0.030652
1654.000000	0.031112
1653.000000	0.031816
1652.000000	0.032360
1651.000000	0.032698
1650.000000	0.032938
1649.000000	0.033154
1648.000000	0.033441
1647.000000	0.033769
1646.000000	0.034014
1645.000000	0.034190
1644.000000	0.034372
1643.000000	0.034552
1642.000000	0.034707
1641.000000	0.034818
1640.000000	0.034859
1639.000000	0.034812
1638.000000	0.034747
1637.000000	0.034809
1636.000000	0.035039
1635.000000	0.035281
1634.000000	0.035419
1633.000000	0.035504
1632.000000	0.035555
1631.000000	0.035548
1630.000000	0.035481
1629.000000	0.035364
1628.000000	0.035182
1627.000000	0.034913
1626.000000	0.034590
1625.000000	0.034281
1624.000000	0.034001
1623.000000	0.033675
1622.000000	0.033250
1621.000000	0.032739
1620.000000	0.032173
1619.000000	0.031575
1618.000000	0.030977
1617.000000	0.030385
1616.000000	0.029805
1615.000000	0.029289
1614.000000	0.028842
1613.000000	0.028412
1612.000000	0.027955
1611.000000	0.027468
1610.000000	0.026971
1609.000000	0.026471
1608.000000	0.025961
1607.000000	0.025454
1606.000000	0.024985
1605.000000	0.024554
1604.000000	0.024145
1603.000000	0.023754
1602.000000	0.023388
1601.000000	0.023048
1600.000000	0.022719
1599.000000	0.022393
1598.000000	0.022083
1597.000000	0.021804
1596.000000	0.021566
1595.000000	0.021368
1594.000000	0.021202
1593.000000	0.021051
1592.000000	0.020903
1591.000000	0.020774
1590.000000	0.020681
1589.000000	0.020625
1588.000000	0.020590
1587.000000	0.020576
1586.000000	0.020593
1585.000000	0.020638
1584.000000	0.020696
1583.000000	0.020782
1582.000000	0.020902
1581.000000	0.021005
1580.000000	0.021030
1579.000000	0.020998
1578.000000	0.021010
1577.000000	0.021171
1576.000000	0.021447
1575.000000	0.021729
1574.000000	0.021968
1573.000000	0.022148
1572.000000	0.022307
1571.000000	0.022528
1570.000000	0.022851
1569.000000	0.023198
1568.000000	0.023506
1567.000000	0.023817
1566.000000	0.024185
1565.000000	0.024561
1564.000000	0.024816
1563.000000	0.024870
1562.000000	0.024796
1561.000000	0.024837
1560.000000	0.025298
1559.000000	0.026116
1558.000000	0.026823
1557.000000	0.027324
1556.000000	0.027804
1555.000000	0.028320
1554.000000	0.028831
1553.000000	0.029282
1552.000000	0.029688
1551.000000	0.030087
1550.000000	0.030458
1549.000000	0.030752
1548.000000	0.030961
1547.000000	0.031148
1546.000000	0.031370
1545.000000	0.031599
1544.000000	0.031752
1543.000000	0.031804
1542.000000	0.031851
1541.000000	0.032034
1540.000000	0.032303
1539.000000	0.032477
1538.000000	0.032549
1537.000000	0.032590
1536.000000	0.032604
1535.000000	0.032613
1534.000000	0.032619
1533.000000	0.032577
1532.000000	0.032493
1531.000000	0.032395
1530.000000	0.032289
1529.000000	0.032179
1528.000000	0.032061
1527.000000	0.031918
1526.000000	0.031726
1525.000000	0.031484
1524.000000	0.031235
1523.000000	0.031035
1522.000000	0.030899
1521.000000	0.030792
1520.000000	0.030714
1519.000000	0.030694
1518.000000	0.030705
1517.000000	0.030675
1516.000000	0.030544
1515.000000	0.030338
1514.000000	0.030125
1513.000000	0.029933
1512.000000	0.029729
1511.000000	0.029455
1510.000000	0.029101
1509.000000	0.028723
1508.000000	0.028364
1507.000000	0.027938
1506.000000	0.027471
1505.000000	0.027204
1504.000000	0.027157
1503.000000	0.027131
1502.000000	0.026998
1501.000000	0.026752
1500.000000	0.026449
1499.000000	0.026137
1498.000000	0.025844
1497.000000	0.025599
1496.000000	0.025400
1495.000000	0.025219
1494.000000	0.025051
1493.000000	0.024920
1492.000000	0.024837
1491.000000	0.024758
1490.000000	0.024632
1489.000000	0.024505
1488.000000	0.024449
1487.000000	0.024445
1486.000000	0.024469
1485.000000	0.024534
1484.000000	0.024650
1483.000000	0.024816
1482.000000	0.025011
1481.000000	0.025232
1480.000000	0.025471
1479.000000	0.025722
1478.000000	0.025985
1477.000000	0.026263
1476.000000	0.026539
1475.000000	0.026830
1474.000000	0.027234
1473.000000	0.027813
1472.000000	0.028478
1471.000000	0.029087
1470.000000	0.029615
1469.000000	0.030098
1468.000000	0.030543
1467.000000	0.030952
1466.000000	0.031366
1465.000000	0.031806
1464.000000	0.032227
1463.000000	0.032582
1462.000000	0.032875
1461.000000	0.033128
1460.000000	0.033357
1459.000000	0.033623
1458.000000	0.034034
1457.000000	0.034598
1456.000000	0.035173
1455.000000	0.035687
1454.000000	0.036152
1453.000000	0.036560
1452.000000	0.036889
1451.000000	0.037149
1450.000000	0.037398
1449.000000	0.037692
1448.000000	0.037994
1447.000000	0.038237
1446.000000	0.038430
1445.000000	0.038619
1444.000000	0.038815
1443.000000	0.038996
1442.000000	0.039145
1441.000000	0.039255
1440.000000	0.039325
1439.000000	0.039378
1438.000000	0.039473
1437.000000	0.039627
1436.000000	0.039776
1435.000000	0.039899
1434.000000	0.040026
1433.000000	0.040157
1432.000000	0.040257
1431.000000	0.040315
1430.000000	0.040371
1429.000000	0.040476
1428.000000	0.040619
1427.000000	0.040765
1426.000000	0.040911
1425.000000	0.041031
1424.000000	0.041068
1423.000000	0.041004
1422.000000	0.040912
1421.000000	0.040872
1420.000000	0.040891
1419.000000	0.040894
1418.000000	0.040871
1417.000000	0.040866
1416.000000	0.040844
1415.000000	0.040747
1414.000000	0.040586
1413.000000	0.040403
1412.000000	0.040208
1411.000000	0.039987
1410.000000	0.039749
1409.000000	0.039521
1408.000000	0.039302
1407.000000	0.039078
1406.000000	0.038857
1405.000000	0.038636
1404.000000	0.038402
1403.000000	0.038168
1402.000000	0.037973
1401.000000	0.037824
1400.000000	0.037668
1399.000000	0.037456
1398.000000	0.037209
1397.000000	0.036962
1396.000000	0.036686
1395.000000	0.036357
1394.000000	0.036044
1393.000000	0.035830
1392.000000	0.035687
1391.000000	0.035533
1390.000000	0.035329
1389.000000	0.035088
1388.000000	0.034805
1387.000000	0.034469
1386.000000	0.034128
1385.000000	0.033834
1384.000000	0.033578
1383.000000	0.033319
1382.000000	0.033054
1381.000000	0.032813
1380.000000	0.032594
1379.000000	0.032361
1378.000000	0.032093
1377.000000	0.031805
1376.000000	0.031503
1375.000000	0.031178
1374.000000	0.030825
1373.000000	0.030470
1372.000000	0.030133
1371.000000	0.029809
1370.000000	0.029488
1369.000000	0.029156
1368.000000	0.028808
1367.000000	0.028453
1366.000000	0.028115
1365.000000	0.027807
1364.000000	0.027524
1363.000000	0.027252
1362.000000	0.026995
1361.000000	0.026768
1360.000000	0.026574
1359.000000	0.026401
1358.000000	0.026248
1357.000000	0.026119
1356.000000	0.026010
1355.000000	0.025911
1354.000000	0.025814
1353.000000	0.025725
1352.000000	0.025658
1351.000000	0.025625
1350.000000	0.025633
1349.000000	0.025668
1348.000000	0.025715
1347.000000	0.025775
1346.000000	0.025857
1345.000000	0.025955
1344.000000	0.026052
1343.000000	0.026144
1342.000000	0.026248
1341.000000	0.026377
1340.000000	0.026522
1339.000000	0.026666
1338.000000	0.026798
1337.000000	0.026912
1336.000000	0.026991
1335.000000	0.027020
1334.000000	0.027000
1333.000000	0.026941
1332.000000	0.026848
1331.000000	0.026726
1330.000000	0.026586
1329.000000	0.026429
1328.000000	0.026245
1327.000000	0.026032
1326.000000	0.025810
1325.000000	0.025606
1324.000000	0.025425
1323.000000	0.025255
1322.000000	0.025093
1321.000000	0.024945
1320.000000	0.024816
1319.000000	0.024701
1318.000000	0.024592
1317.000000	0.024481
1316.000000	0.024364
1315.000000	0.024231
1314.000000	0.024077
1313.000000	0.023901
1312.000000	0.023714
1311.000000	0.023532
1310.000000	0.023360
1309.000000	0.023187
1308.000000	0.022995
1307.000000	0.022785
1306.000000	0.022580
1305.000000	0.022401
1304.000000	0.022250
1303.000000	0.022114
1302.000000	0.021980
1301.000000	0.021841
1300.000000	0.021698
1299.000000	0.021551
1298.000000	0.021405
1297.000000	0.021272
1296.000000	0.021163
1295.000000	0.021090
1294.000000	0.021049
1293.000000	0.021027
1292.000000	0.021015
1291.000000	0.021019
1290.000000	0.021049
1289.000000	0.021103
1288.000000	0.021159
1287.000000	0.021208
1286.000000	0.021253
1285.000000	0.021304
1284.000000	0.021363
1283.000000	0.021423
1282.000000	0.021475
1281.000000	0.021509
1280.000000	0.021521
1279.000000	0.021516
1278.000000	0.021512
1277.000000	0.021524
1276.000000	0.021555
1275.000000	0.021600
1274.000000	0.021655
1273.000000	0.021726
1272.000000	0.021813
1271.000000	0.021912
1270.000000	0.022024
1269.000000	0.022155
1268.000000	0.022310
1267.000000	0.022485
1266.000000	0.022672
1265.000000	0.022869
1264.000000	0.023079
1263.000000	0.023297
1262.000000	0.023514
1261.000000	0.023722
1260.000000	0.023923
1259.000000	0.024122
1258.000000	0.024323
1257.000000	0.024530
1256.000000	0.024745
1255.000000	0.024957
1254.000000	0.025147
1253.000000	0.025305
1252.000000	0.025446
1251.000000	0.025606
1250.000000	0.025808
1249.000000	0.026046
1248.000000	0.026292
1247.000000	0.026529
1246.000000	0.026760
1245.000000	0.026988
1244.000000	0.027203
1243.000000	0.027395
1242.000000	0.027574
1241.000000	0.027762
1240.000000	0.027960
1239.000000	0.028139
1238.000000	0.028266
1237.000000	0.028328
1236.000000	0.028334
1235.000000	0.028300
1234.000000	0.028234
1233.000000	0.028141
1232.000000	0.028014
1231.000000	0.027838
1230.000000	0.027605
1229.000000	0.027325
1228.000000	0.027011
1227.000000	0.026672
1226.000000	0.026305
1225.000000	0.025906
1224.000000	0.025471
1223.000000	0.025016
1222.000000	0.024571
1221.000000	0.024161
1220.000000	0.023795
1219.000000	0.023464
1218.000000	0.023161
1217.000000	0.022888
1216.000000	0.022653
1215.000000	0.022460
1214.000000	0.022305
1213.000000	0.022179
1212.000000	0.022077
1211.000000	0.022002
1210.000000	0.021960
1209.000000	0.021958
1208.000000	0.021999
1207.000000	0.022080
1206.000000	0.022186
1205.000000	0.022298
1204.000000	0.022400
1203.000000	0.022482
1202.000000	0.022539
1201.000000	0.022561
1200.000000	0.022537
1199.000000	0.022470
1198.000000	0.022368
1197.000000	0.022245
1196.000000	0.022113
1195.000000	0.021984
1194.000000	0.021856
1193.000000	0.021723
1192.000000	0.021581
1191.000000	0.021442
1190.000000	0.021328
1189.000000	0.021245
1188.000000	0.021182
1187.000000	0.021130
1186.000000	0.021089
1185.000000	0.021066
1184.000000	0.021063
1183.000000	0.021080
1182.000000	0.021118
1181.000000	0.021179
1180.000000	0.021262
1179.000000	0.021365
1178.000000	0.021485
1177.000000	0.021619
1176.000000	0.021757
1175.000000	0.021892
1174.000000	0.022030
1173.000000	0.022174
1172.000000	0.022324
1171.000000	0.022470
1170.000000	0.022606
1169.000000	0.022736
1168.000000	0.022867
1167.000000	0.023013
1166.000000	0.023173
1165.000000	0.023330
1164.000000	0.023454
1163.000000	0.023520
1162.000000	0.023531
1161.000000	0.023499
1160.000000	0.023436
1159.000000	0.023344
1158.000000	0.023224
1157.000000	0.023074
1156.000000	0.022893
1155.000000	0.022680
1154.000000	0.022430
1153.000000	0.022131
1152.000000	0.021774
1151.000000	0.021368
1150.000000	0.020947
1149.000000	0.020543
1148.000000	0.020165
1147.000000	0.019801
1146.000000	0.019440
1145.000000	0.019074
1144.000000	0.018703
1143.000000	0.018329
1142.000000	0.017964
1141.000000	0.017624
1140.000000	0.017322
1139.000000	0.017064
1138.000000	0.016845
1137.000000	0.016648
1136.000000	0.016455
1135.000000	0.016259
1134.000000	0.016072
1133.000000	0.015911
1132.000000	0.015789
1131.000000	0.015713
1130.000000	0.015671
1129.000000	0.015644
1128.000000	0.015620
1127.000000	0.015604
1126.000000	0.015610
1125.000000	0.015646
1124.000000	0.015699
1123.000000	0.015751
1122.000000	0.015794
1121.000000	0.015838
1120.000000	0.015894
1119.000000	0.015963
1118.000000	0.016042
1117.000000	0.016130
1116.000000	0.016231
1115.000000	0.016354
1114.000000	0.016509
1113.000000	0.016698
1112.000000	0.016906
1111.000000	0.017105
1110.000000	0.017256
1109.000000	0.017337
1108.000000	0.017353
1107.000000	0.017331
1106.000000	0.017300
1105.000000	0.017273
1104.000000	0.017251
1103.000000	0.017237
1102.000000	0.017244
1101.000000	0.017284
1100.000000	0.017354
1099.000000	0.017441
1098.000000	0.017526
1097.000000	0.017603
1096.000000	0.017676
1095.000000	0.017755
1094.000000	0.017831
1093.000000	0.017884
1092.000000	0.017897
1091.000000	0.017883
1090.000000	0.017870
1089.000000	0.017875
1088.000000	0.017880
1087.000000	0.017852
1086.000000	0.017780
1085.000000	0.017682
1084.000000	0.017582
1083.000000	0.017489
1082.000000	0.017397
1081.000000	0.017287
1080.000000	0.017136
1079.000000	0.016930
1078.000000	0.016692
1077.000000	0.016464
1076.000000	0.016271
1075.000000	0.016104
1074.000000	0.015936
1073.000000	0.015766
1072.000000	0.015614
1071.000000	0.015498
1070.000000	0.015400
1069.000000	0.015288
1068.000000	0.015160
1067.000000	0.015058
1066.000000	0.015032
1065.000000	0.015090
1064.000000	0.015199
1063.000000	0.015310
1062.000000	0.015386
1061.000000	0.015403
1060.000000	0.015355
1059.000000	0.015254
1058.000000	0.015135
1057.000000	0.015032
1056.000000	0.014952
1055.000000	0.014878
1054.000000	0.014795
1053.000000	0.014709
1052.000000	0.014632
1051.000000	0.014561
1050.000000	0.014484
1049.000000	0.014408
1048.000000	0.014362
1047.000000	0.014361
1046.000000	0.014390
1045.000000	0.014423
1044.000000	0.014450
1043.000000	0.014484
1042.000000	0.014545
1041.000000	0.014643
1040.000000	0.014775
1039.000000	0.014940
1038.000000	0.015139
1037.000000	0.015383
1036.000000	0.015674
1035.000000	0.015992
1034.000000	0.016296
1033.000000	0.016551
1032.000000	0.016739
1031.000000	0.016855
1030.000000	0.016895
1029.000000	0.016866
1028.000000	0.016802
1027.000000	0.016739
1026.000000	0.016690
1025.000000	0.016638
1024.000000	0.016564
1023.000000	0.016468
1022.000000	0.016363
1021.000000	0.016253
1020.000000	0.016137
1019.000000	0.016011
1018.000000	0.015878
1017.000000	0.015751
1016.000000	0.015641
1015.000000	0.015555
1014.000000	0.015487
1013.000000	0.015418
1012.000000	0.015325
1011.000000	0.015197
1010.000000	0.015038
1009.000000	0.014864
1008.000000	0.014687
1007.000000	0.014515
1006.000000	0.014349
1005.000000	0.014197
1004.000000	0.014063
1003.000000	0.013942
1002.000000	0.013813
1001.000000	0.013655
1000.000000	0.013474
999.000000	0.013294
998.000000	0.013131
997.000000	0.012980
996.000000	0.012833
995.000000	0.012699
994.000000	0.012589
993.000000	0.012493
992.000000	0.012397
991.000000	0.012297
990.000000	0.012197
989.000000	0.012097
988.000000	0.011987
987.000000	0.011871
986.000000	0.011765
985.000000	0.011681
984.000000	0.011620
983.000000	0.011574
982.000000	0.011534
981.000000	0.011500
980.000000	0.011479
979.000000	0.011490
978.000000	0.011540
977.000000	0.011620
976.000000	0.011708
975.000000	0.011789
974.000000	0.011856
973.000000	0.011901
972.000000	0.011906
971.000000	0.011861
970.000000	0.011776
969.000000	0.011681
968.000000	0.011606
967.000000	0.011559
966.000000	0.011521
965.000000	0.011458
964.000000	0.011349
963.000000	0.011212
962.000000	0.011086
961.000000	0.010992
960.000000	0.010915
959.000000	0.010829
958.000000	0.010724
957.000000	0.010603
956.000000	0.010474
955.000000	0.010346
954.000000	0.010230
953.000000	0.010132
952.000000	0.010038
951.000000	0.009934
950.000000	0.009821
949.000000	0.009711
948.000000	0.009608
947.000000	0.009501
946.000000	0.009386
945.000000	0.009276
944.000000	0.009188
943.000000	0.009132
942.000000	0.009099
941.000000	0.009074
940.000000	0.009037
939.000000	0.008978
938.000000	0.008902
937.000000	0.008828
936.000000	0.008766
935.000000	0.008710
934.000000	0.008647
933.000000	0.008570
932.000000	0.008478
931.000000	0.008371
930.000000	0.008253
929.000000	0.008143
928.000000	0.008057
927.000000	0.007995
926.000000	0.007936
925.000000	0.007868
924.000000	0.007796
923.000000	0.007730
922.000000	0.007664
921.000000	0.007592
920.000000	0.007514
919.000000	0.007440
918.000000	0.007370
917.000000	0.007298
916.000000	0.007214
915.000000	0.007114
914.000000	0.006997
913.000000	0.006866
912.000000	0.006737
911.000000	0.006624
910.000000	0.006536
909.000000	0.006469
908.000000	0.006415
907.000000	0.006362
906.000000	0.006289
905.000000	0.006191
904.000000	0.006085
903.000000	0.005999
902.000000	0.005938
901.000000	0.005882
900.000000	0.005809
899.000000	0.005714
898.000000	0.005615
897.000000	0.005536
896.000000	0.005491
895.000000	0.005474
894.000000	0.005461
893.000000	0.005433
892.000000	0.005390
891.000000	0.005357
890.000000	0.005367
889.000000	0.005463
888.000000	0.005703
887.000000	0.006139
886.000000	0.006787
885.000000	0.007603
884.000000	0.008518
883.000000	0.009487
882.000000	0.010533
881.000000	0.011738
880.000000	0.013178
879.000000	0.014823
878.000000	0.016507
877.000000	0.017987
876.000000	0.019049
875.000000	0.019567
874.000000	0.019505
873.000000	0.018901
872.000000	0.017856
871.000000	0.016526
870.000000	0.015092
869.000000	0.013721
868.000000	0.012528
867.000000	0.011556
866.000000	0.010783
865.000000	0.010148
864.000000	0.009596
863.000000	0.009110
862.000000	0.008702
861.000000	0.008376
860.000000	0.008122
859.000000	0.007917
858.000000	0.007742
857.000000	0.007581
856.000000	0.007429
855.000000	0.007288
854.000000	0.007165
853.000000	0.007066
852.000000	0.006999
851.000000	0.006981
850.000000	0.007026
849.000000	0.007111
848.000000	0.007169
847.000000	0.007132
846.000000	0.006990
845.000000	0.006800
844.000000	0.006633
843.000000	0.006519
842.000000	0.006447
841.000000	0.006395
840.000000	0.006346
839.000000	0.006282
838.000000	0.006195
837.000000	0.006095
836.000000	0.006003
835.000000	0.005924
834.000000	0.005852
833.000000	0.005788
832.000000	0.005748
831.000000	0.005730
830.000000	0.005710
829.000000	0.005670
828.000000	0.005620
827.000000	0.005580
826.000000	0.005550
825.000000	0.005516
824.000000	0.005480
823.000000	0.005457
822.000000	0.005453
821.000000	0.005459
820.000000	0.005466
819.000000	0.005471
818.000000	0.005472
817.000000	0.005468
816.000000	0.005468
815.000000	0.005481
814.000000	0.005510
813.000000	0.005552
812.000000	0.005598
811.000000	0.005626
810.000000	0.005610
809.000000	0.005551
808.000000	0.005487
807.000000	0.005455
806.000000	0.005456
805.000000	0.005462
804.000000	0.005454
803.000000	0.005438
802.000000	0.005430
801.000000	0.005446
800.000000	0.005488
799.000000	0.005536
798.000000	0.005560
797.000000	0.005546
796.000000	0.005511
795.000000	0.005489
794.000000	0.005491
793.000000	0.005507
792.000000	0.005534
791.000000	0.005578
790.000000	0.005650
789.000000	0.005747
788.000000	0.005854
787.000000	0.005932
786.000000	0.005942
785.000000	0.005882
784.000000	0.005798
783.000000	0.005751
782.000000	0.005766
781.000000	0.005819
780.000000	0.005874
779.000000	0.005905
778.000000	0.005903
777.000000	0.005877
776.000000	0.005855
775.000000	0.005861
774.000000	0.005896
773.000000	0.005937
772.000000	0.005960
771.000000	0.005965
770.000000	0.005966
769.000000	0.005980
768.000000	0.006014
767.000000	0.006060
766.000000	0.006100
765.000000	0.006128
764.000000	0.006148
763.000000	0.006168
762.000000	0.006188
761.000000	0.006206
760.000000	0.006223
759.000000	0.006236
758.000000	0.006244
757.000000	0.006255
756.000000	0.006285
755.000000	0.006331
754.000000	0.006370
753.000000	0.006400
752.000000	0.006439
751.000000	0.006499
750.000000	0.006557
749.000000	0.006592
748.000000	0.006627
747.000000	0.006689
746.000000	0.006763
745.000000	0.006804
744.000000	0.006800
743.000000	0.006788
742.000000	0.006799
741.000000	0.006830
740.000000	0.006867
739.000000	0.006908
738.000000	0.006960
737.000000	0.007023
736.000000	0.007097
735.000000	0.007185
734.000000	0.007277
733.000000	0.007361
732.000000	0.007435
731.000000	0.007513
730.000000	0.007596
729.000000	0.007675
728.000000	0.007743
727.000000	0.007794
726.000000	0.007835
725.000000	0.007883
724.000000	0.007964
723.000000	0.008081
722.000000	0.008216
721.000000	0.008358
720.000000	0.008525
719.000000	0.008756
718.000000	0.009089
717.000000	0.009572
716.000000	0.010266
715.000000	0.011171
714.000000	0.012123
713.000000	0.012834
712.000000	0.013075
711.000000	0.012834
710.000000	0.012299
709.000000	0.011722
708.000000	0.011292
707.000000	0.011071
706.000000	0.011026
705.000000	0.011072
704.000000	0.011131
703.000000	0.011167
702.000000	0.011181
701.000000	0.011182
700.000000	0.011185
699.000000	0.011188
698.000000	0.011187
697.000000	0.011179
696.000000	0.011173
695.000000	0.011189
694.000000	0.011231
693.000000	0.011276
692.000000	0.011292
691.000000	0.011248
690.000000	0.011141
689.000000	0.011022
688.000000	0.010979
687.000000	0.011068
686.000000	0.011232
685.000000	0.011357
684.000000	0.011400
683.000000	0.011408
682.000000	0.011427
681.000000	0.011451
680.000000	0.011480
679.000000	0.011540
678.000000	0.011621
677.000000	0.011693
676.000000	0.011760
675.000000	0.011846
674.000000	0.011933
673.000000	0.011948
672.000000	0.011831
671.000000	0.011565
670.000000	0.011171
669.000000	0.010763
668.000000	0.010730
667.000000	0.011187
666.000000	0.011561
665.000000	0.011766
664.000000	0.011930
663.000000	0.012019
662.000000	0.012003
661.000000	0.011940
660.000000	0.011921
659.000000	0.011961
658.000000	0.012018
657.000000	0.012093
656.000000	0.012191
655.000000	0.012257
654.000000	0.012258
653.000000	0.012259
652.000000	0.012320
651.000000	0.012409
650.000000	0.012469
649.000000	0.012519
648.000000	0.012611
647.000000	0.012752
646.000000	0.012939
645.000000	0.013179
644.000000	0.013442
643.000000	0.013646
642.000000	0.013742
641.000000	0.013774
640.000000	0.013810
639.000000	0.013845
638.000000	0.013851
637.000000	0.013842
636.000000	0.013849
635.000000	0.013871
634.000000	0.013887
633.000000	0.013898
632.000000	0.013916
631.000000	0.013940
630.000000	0.013968
629.000000	0.014013
628.000000	0.014061
627.000000	0.014076
626.000000	0.014064
625.000000	0.014087
624.000000	0.014178
623.000000	0.014306
622.000000	0.014427
621.000000	0.014534
620.000000	0.014637
619.000000	0.014732
618.000000	0.014821
617.000000	0.014908
616.000000	0.014971
615.000000	0.014959
614.000000	0.014890
613.000000	0.014862
612.000000	0.014950
611.000000	0.015101
610.000000	0.015197
609.000000	0.015189
608.000000	0.015112
607.000000	0.015017
606.000000	0.014930
605.000000	0.014869
604.000000	0.014827
603.000000	0.014763
602.000000	0.014636
601.000000	0.014462
600.000000	0.014302
599.000000	0.014192
598.000000	0.014093
597.000000	0.013946
596.000000	0.013741
595.000000	0.013534
594.000000	0.013391
593.000000	0.013316
592.000000	0.013242
591.000000	0.013113
590.000000	0.012944
589.000000	0.012805
588.000000	0.012732
587.000000	0.012709
586.000000	0.012713
585.000000	0.012744
584.000000	0.012803
583.000000	0.012874
582.000000	0.012934
581.000000	0.012971
580.000000	0.012971
579.000000	0.012929
578.000000	0.012870
577.000000	0.012813
576.000000	0.012740
575.000000	0.012619
574.000000	0.012493
573.000000	0.012465
572.000000	0.012587
571.000000	0.012803
570.000000	0.013026
569.000000	0.013213
568.000000	0.013353
567.000000	0.013423
566.000000	0.013419
565.000000	0.013388
564.000000	0.013370
563.000000	0.013363
562.000000	0.013373
561.000000	0.013464
560.000000	0.013687
559.000000	0.013982
558.000000	0.014205
557.000000	0.014260
556.000000	0.014155
555.000000	0.013952
554.000000	0.013722
553.000000	0.013521
552.000000	0.013368
551.000000	0.013245
550.000000	0.013147
549.000000	0.013105
548.000000	0.013134
547.000000	0.013183
546.000000	0.013174
545.000000	0.013099
544.000000	0.013010
543.000000	0.012949
542.000000	0.012913
541.000000	0.012879
540.000000	0.012846
539.000000	0.012844
538.000000	0.012912
537.000000	0.013044
536.000000	0.013164
535.000000	0.013189
534.000000	0.013145
533.000000	0.013154
532.000000	0.013301
531.000000	0.013536
530.000000	0.013734
529.000000	0.013803
528.000000	0.013717
527.000000	0.013509
526.000000	0.013285
525.000000	0.013172
524.000000	0.013193
523.000000	0.013255
522.000000	0.013285
521.000000	0.013281
520.000000	0.013245
519.000000	0.013139
518.000000	0.012959
517.000000	0.012755
516.000000	0.012532
515.000000	0.012233
514.000000	0.011886
513.000000	0.011649
512.000000	0.011622
511.000000	0.011690
510.000000	0.011664
509.000000	0.011524
508.000000	0.011386
507.000000	0.011304
506.000000	0.011210
505.000000	0.011059
504.000000	0.010891
503.000000	0.010752
502.000000	0.010652
501.000000	0.010595
500.000000	0.010562
499.000000	0.010481
498.000000	0.010304
497.000000	0.010099
496.000000	0.010011
495.000000	0.010093
494.000000	0.010257
493.000000	0.010372
492.000000	0.010354
491.000000	0.010183
490.000000	0.009910
489.000000	0.009651
488.000000	0.009493
487.000000	0.009395
486.000000	0.009263
485.000000	0.009114
484.000000	0.009084
483.000000	0.009205
482.000000	0.009300
481.000000	0.009170
480.000000	0.008833
479.000000	0.008506
478.000000	0.008379
477.000000	0.008441
476.000000	0.008545
475.000000	0.008587
474.000000	0.008601
473.000000	0.008645
472.000000	0.008661
471.000000	0.008536
470.000000	0.008280
469.000000	0.008031
468.000000	0.007883
467.000000	0.007801
466.000000	0.007721
465.000000	0.007655
464.000000	0.007610
463.000000	0.007489
462.000000	0.007196
461.000000	0.006795
460.000000	0.006474
459.000000	0.006345
458.000000	0.006343
457.000000	0.006324
456.000000	0.006216
455.000000	0.006072
454.000000	0.005989
453.000000	0.005901
452.000000	0.005815
451.000000	0.005628
450.000000	0.005397
