PE IR       SUBTECH     SPECTRUM    ASCII       PEDS        4.00        
   -1
Peau022_1.ASC
23/06/14
15:04:24.00
23/06/14
15:12:57.00
uco
Sample 022 By uco Date Wednesday, June 14 2023
450.000000
#HDR
-1
-1
#GR
cm-1
A
1.0
0.0
4000.000000
-1.000000
3551
8
0.035707
0.004295
#DATA
4000.000000	0.004870
3999.000000	0.004878
3998.000000	0.004874
3997.000000	0.004860
3996.000000	0.004841
3995.000000	0.004825
3994.000000	0.004824
3993.000000	0.004841
3992.000000	0.004872
3991.000000	0.004905
3990.000000	0.004925
3989.000000	0.004927
3988.000000	0.004916
3987.000000	0.004904
3986.000000	0.004904
3985.000000	0.004919
3984.000000	0.004944
3983.000000	0.004969
3982.000000	0.004988
3981.000000	0.004999
3980.000000	0.005002
3979.000000	0.005001
3978.000000	0.004994
3977.000000	0.004987
3976.000000	0.004983
3975.000000	0.004981
3974.000000	0.004980
3973.000000	0.004976
3972.000000	0.004973
3971.000000	0.004971
3970.000000	0.004971
3969.000000	0.004969
3968.000000	0.004963
3967.000000	0.004958
3966.000000	0.004961
3965.000000	0.004976
3964.000000	0.004996
3963.000000	0.005009
3962.000000	0.005007
3961.000000	0.004998
3960.000000	0.004995
3959.000000	0.005009
3958.000000	0.005038
3957.000000	0.005066
3956.000000	0.005081
3955.000000	0.005081
3954.000000	0.005068
3953.000000	0.005051
3952.000000	0.005036
3951.000000	0.005028
3950.000000	0.005029
3949.000000	0.005033
3948.000000	0.005036
3947.000000	0.005034
3946.000000	0.005033
3945.000000	0.005040
3944.000000	0.005054
3943.000000	0.005064
3942.000000	0.005057
3941.000000	0.005037
3940.000000	0.005019
3939.000000	0.005017
3938.000000	0.005029
3937.000000	0.005045
3936.000000	0.005057
3935.000000	0.005064
3934.000000	0.005070
3933.000000	0.005077
3932.000000	0.005086
3931.000000	0.005093
3930.000000	0.005098
3929.000000	0.005098
3928.000000	0.005093
3927.000000	0.005084
3926.000000	0.005078
3925.000000	0.005078
3924.000000	0.005082
3923.000000	0.005088
3922.000000	0.005093
3921.000000	0.005095
3920.000000	0.005093
3919.000000	0.005094
3918.000000	0.005102
3917.000000	0.005111
3916.000000	0.005111
3915.000000	0.005099
3914.000000	0.005084
3913.000000	0.005078
3912.000000	0.005084
3911.000000	0.005097
3910.000000	0.005109
3909.000000	0.005117
3908.000000	0.005122
3907.000000	0.005134
3906.000000	0.005161
3905.000000	0.005201
3904.000000	0.005234
3903.000000	0.005237
3902.000000	0.005210
3901.000000	0.005174
3900.000000	0.005147
3899.000000	0.005128
3898.000000	0.005113
3897.000000	0.005103
3896.000000	0.005101
3895.000000	0.005107
3894.000000	0.005123
3893.000000	0.005146
3892.000000	0.005173
3891.000000	0.005195
3890.000000	0.005208
3889.000000	0.005216
3888.000000	0.005221
3887.000000	0.005223
3886.000000	0.005211
3885.000000	0.005176
3884.000000	0.005128
3883.000000	0.005089
3882.000000	0.005080
3881.000000	0.005099
3880.000000	0.005129
3879.000000	0.005154
3878.000000	0.005168
3877.000000	0.005177
3876.000000	0.005187
3875.000000	0.005203
3874.000000	0.005213
3873.000000	0.005206
3872.000000	0.005190
3871.000000	0.005184
3870.000000	0.005190
3869.000000	0.005194
3868.000000	0.005191
3867.000000	0.005184
3866.000000	0.005181
3865.000000	0.005179
3864.000000	0.005169
3863.000000	0.005150
3862.000000	0.005130
3861.000000	0.005121
3860.000000	0.005133
3859.000000	0.005173
3858.000000	0.005231
3857.000000	0.005278
3856.000000	0.005293
3855.000000	0.005284
3854.000000	0.005269
3853.000000	0.005247
3852.000000	0.005222
3851.000000	0.005204
3850.000000	0.005192
3849.000000	0.005182
3848.000000	0.005170
3847.000000	0.005158
3846.000000	0.005155
3845.000000	0.005165
3844.000000	0.005187
3843.000000	0.005207
3842.000000	0.005206
3841.000000	0.005184
3840.000000	0.005156
3839.000000	0.005138
3838.000000	0.005138
3837.000000	0.005148
3836.000000	0.005154
3835.000000	0.005145
3834.000000	0.005126
3833.000000	0.005104
3832.000000	0.005089
3831.000000	0.005081
3830.000000	0.005082
3829.000000	0.005095
3828.000000	0.005126
3827.000000	0.005175
3826.000000	0.005222
3825.000000	0.005246
3824.000000	0.005236
3823.000000	0.005211
3822.000000	0.005196
3821.000000	0.005187
3820.000000	0.005168
3819.000000	0.005141
3818.000000	0.005121
3817.000000	0.005118
3816.000000	0.005120
3815.000000	0.005113
3814.000000	0.005105
3813.000000	0.005112
3812.000000	0.005132
3811.000000	0.005151
3810.000000	0.005154
3809.000000	0.005146
3808.000000	0.005146
3807.000000	0.005155
3806.000000	0.005158
3805.000000	0.005144
3804.000000	0.005116
3803.000000	0.005102
3802.000000	0.005112
3801.000000	0.005132
3800.000000	0.005149
3799.000000	0.005158
3798.000000	0.005163
3797.000000	0.005162
3796.000000	0.005152
3795.000000	0.005137
3794.000000	0.005127
3793.000000	0.005126
3792.000000	0.005131
3791.000000	0.005138
3790.000000	0.005141
3789.000000	0.005140
3788.000000	0.005134
3787.000000	0.005129
3786.000000	0.005127
3785.000000	0.005126
3784.000000	0.005118
3783.000000	0.005101
3782.000000	0.005085
3781.000000	0.005084
3780.000000	0.005101
3779.000000	0.005126
3778.000000	0.005146
3777.000000	0.005162
3776.000000	0.005180
3775.000000	0.005201
3774.000000	0.005213
3773.000000	0.005212
3772.000000	0.005207
3771.000000	0.005213
3770.000000	0.005227
3769.000000	0.005228
3768.000000	0.005205
3767.000000	0.005166
3766.000000	0.005126
3765.000000	0.005099
3764.000000	0.005084
3763.000000	0.005079
3762.000000	0.005079
3761.000000	0.005081
3760.000000	0.005080
3759.000000	0.005077
3758.000000	0.005081
3757.000000	0.005096
3756.000000	0.005115
3755.000000	0.005128
3754.000000	0.005129
3753.000000	0.005125
3752.000000	0.005131
3751.000000	0.005156
3750.000000	0.005189
3749.000000	0.005213
3748.000000	0.005213
3747.000000	0.005199
3746.000000	0.005199
3745.000000	0.005219
3744.000000	0.005225
3743.000000	0.005198
3742.000000	0.005160
3741.000000	0.005132
3740.000000	0.005117
3739.000000	0.005110
3738.000000	0.005111
3737.000000	0.005127
3736.000000	0.005141
3735.000000	0.005125
3734.000000	0.005079
3733.000000	0.005032
3732.000000	0.005006
3731.000000	0.005004
3730.000000	0.005018
3729.000000	0.005049
3728.000000	0.005094
3727.000000	0.005142
3726.000000	0.005170
3725.000000	0.005167
3724.000000	0.005142
3723.000000	0.005109
3722.000000	0.005085
3721.000000	0.005077
3720.000000	0.005082
3719.000000	0.005092
3718.000000	0.005100
3717.000000	0.005103
3716.000000	0.005102
3715.000000	0.005099
3714.000000	0.005099
3713.000000	0.005111
3712.000000	0.005133
3711.000000	0.005144
3710.000000	0.005129
3709.000000	0.005090
3708.000000	0.005047
3707.000000	0.005012
3706.000000	0.004988
3705.000000	0.004970
3704.000000	0.004952
3703.000000	0.004938
3702.000000	0.004935
3701.000000	0.004944
3700.000000	0.004961
3699.000000	0.004979
3698.000000	0.004995
3697.000000	0.005006
3696.000000	0.005006
3695.000000	0.004991
3694.000000	0.004956
3693.000000	0.004907
3692.000000	0.004857
3691.000000	0.004827
3690.000000	0.004825
3689.000000	0.004835
3688.000000	0.004840
3687.000000	0.004841
3686.000000	0.004848
3685.000000	0.004868
3684.000000	0.004894
3683.000000	0.004918
3682.000000	0.004935
3681.000000	0.004952
3680.000000	0.004967
3679.000000	0.004968
3678.000000	0.004958
3677.000000	0.004968
3676.000000	0.005012
3675.000000	0.005055
3674.000000	0.005064
3673.000000	0.005037
3672.000000	0.004996
3671.000000	0.004958
3670.000000	0.004923
3669.000000	0.004885
3668.000000	0.004856
3667.000000	0.004850
3666.000000	0.004864
3665.000000	0.004891
3664.000000	0.004922
3663.000000	0.004955
3662.000000	0.004993
3661.000000	0.005032
3660.000000	0.005066
3659.000000	0.005090
3658.000000	0.005112
3657.000000	0.005140
3656.000000	0.005170
3655.000000	0.005195
3654.000000	0.005213
3653.000000	0.005229
3652.000000	0.005250
3651.000000	0.005285
3650.000000	0.005322
3649.000000	0.005341
3648.000000	0.005337
3647.000000	0.005331
3646.000000	0.005337
3645.000000	0.005352
3644.000000	0.005371
3643.000000	0.005388
3642.000000	0.005400
3641.000000	0.005412
3640.000000	0.005431
3639.000000	0.005465
3638.000000	0.005511
3637.000000	0.005562
3636.000000	0.005610
3635.000000	0.005653
3634.000000	0.005685
3633.000000	0.005699
3632.000000	0.005692
3631.000000	0.005680
3630.000000	0.005693
3629.000000	0.005731
3628.000000	0.005768
3627.000000	0.005788
3626.000000	0.005796
3625.000000	0.005801
3624.000000	0.005804
3623.000000	0.005802
3622.000000	0.005797
3621.000000	0.005802
3620.000000	0.005831
3619.000000	0.005882
3618.000000	0.005940
3617.000000	0.005988
3616.000000	0.006023
3615.000000	0.006051
3614.000000	0.006083
3613.000000	0.006115
3612.000000	0.006137
3611.000000	0.006144
3610.000000	0.006146
3609.000000	0.006155
3608.000000	0.006173
3607.000000	0.006191
3606.000000	0.006201
3605.000000	0.006207
3604.000000	0.006209
3603.000000	0.006210
3602.000000	0.006216
3601.000000	0.006231
3600.000000	0.006254
3599.000000	0.006284
3598.000000	0.006320
3597.000000	0.006364
3596.000000	0.006414
3595.000000	0.006465
3594.000000	0.006513
3593.000000	0.006558
3592.000000	0.006603
3591.000000	0.006647
3590.000000	0.006688
3589.000000	0.006732
3588.000000	0.006778
3587.000000	0.006812
3586.000000	0.006827
3585.000000	0.006826
3584.000000	0.006823
3583.000000	0.006831
3582.000000	0.006858
3581.000000	0.006901
3580.000000	0.006949
3579.000000	0.006990
3578.000000	0.007019
3577.000000	0.007041
3576.000000	0.007062
3575.000000	0.007088
3574.000000	0.007118
3573.000000	0.007151
3572.000000	0.007182
3571.000000	0.007205
3570.000000	0.007221
3569.000000	0.007245
3568.000000	0.007290
3567.000000	0.007354
3566.000000	0.007420
3565.000000	0.007477
3564.000000	0.007524
3563.000000	0.007561
3562.000000	0.007589
3561.000000	0.007610
3560.000000	0.007627
3559.000000	0.007645
3558.000000	0.007671
3557.000000	0.007707
3556.000000	0.007754
3555.000000	0.007809
3554.000000	0.007868
3553.000000	0.007926
3552.000000	0.007970
3551.000000	0.007994
3550.000000	0.007999
3549.000000	0.008000
3548.000000	0.008009
3547.000000	0.008033
3546.000000	0.008071
3545.000000	0.008111
3544.000000	0.008146
3543.000000	0.008169
3542.000000	0.008181
3541.000000	0.008194
3540.000000	0.008217
3539.000000	0.008253
3538.000000	0.008295
3537.000000	0.008336
3536.000000	0.008369
3535.000000	0.008395
3534.000000	0.008416
3533.000000	0.008437
3532.000000	0.008458
3531.000000	0.008477
3530.000000	0.008492
3529.000000	0.008504
3528.000000	0.008518
3527.000000	0.008541
3526.000000	0.008581
3525.000000	0.008641
3524.000000	0.008713
3523.000000	0.008782
3522.000000	0.008832
3521.000000	0.008859
3520.000000	0.008870
3519.000000	0.008874
3518.000000	0.008884
3517.000000	0.008904
3516.000000	0.008937
3515.000000	0.008974
3514.000000	0.009006
3513.000000	0.009030
3512.000000	0.009049
3511.000000	0.009074
3510.000000	0.009108
3509.000000	0.009146
3508.000000	0.009177
3507.000000	0.009197
3506.000000	0.009212
3505.000000	0.009234
3504.000000	0.009270
3503.000000	0.009310
3502.000000	0.009338
3501.000000	0.009349
3500.000000	0.009350
3499.000000	0.009361
3498.000000	0.009393
3497.000000	0.009444
3496.000000	0.009502
3495.000000	0.009555
3494.000000	0.009593
3493.000000	0.009615
3492.000000	0.009624
3491.000000	0.009631
3490.000000	0.009646
3489.000000	0.009676
3488.000000	0.009716
3487.000000	0.009753
3486.000000	0.009776
3485.000000	0.009782
3484.000000	0.009782
3483.000000	0.009793
3482.000000	0.009824
3481.000000	0.009868
3480.000000	0.009912
3479.000000	0.009945
3478.000000	0.009968
3477.000000	0.009991
3476.000000	0.010017
3475.000000	0.010048
3474.000000	0.010085
3473.000000	0.010122
3472.000000	0.010152
3471.000000	0.010172
3470.000000	0.010186
3469.000000	0.010199
3468.000000	0.010215
3467.000000	0.010231
3466.000000	0.010246
3465.000000	0.010264
3464.000000	0.010290
3463.000000	0.010321
3462.000000	0.010349
3461.000000	0.010372
3460.000000	0.010392
3459.000000	0.010417
3458.000000	0.010448
3457.000000	0.010483
3456.000000	0.010516
3455.000000	0.010543
3454.000000	0.010564
3453.000000	0.010578
3452.000000	0.010586
3451.000000	0.010591
3450.000000	0.010601
3449.000000	0.010623
3448.000000	0.010655
3447.000000	0.010691
3446.000000	0.010721
3445.000000	0.010746
3444.000000	0.010772
3443.000000	0.010808
3442.000000	0.010855
3441.000000	0.010910
3440.000000	0.010965
3439.000000	0.011011
3438.000000	0.011045
3437.000000	0.011068
3436.000000	0.011086
3435.000000	0.011107
3434.000000	0.011135
3433.000000	0.011168
3432.000000	0.011199
3431.000000	0.011215
3430.000000	0.011215
3429.000000	0.011208
3428.000000	0.011217
3427.000000	0.011257
3426.000000	0.011328
3425.000000	0.011403
3424.000000	0.011454
3423.000000	0.011469
3422.000000	0.011464
3421.000000	0.011464
3420.000000	0.011484
3419.000000	0.011523
3418.000000	0.011578
3417.000000	0.011647
3416.000000	0.011719
3415.000000	0.011779
3414.000000	0.011813
3413.000000	0.011821
3412.000000	0.011817
3411.000000	0.011819
3410.000000	0.011834
3409.000000	0.011859
3408.000000	0.011887
3407.000000	0.011912
3406.000000	0.011935
3405.000000	0.011963
3404.000000	0.011998
3403.000000	0.012039
3402.000000	0.012082
3401.000000	0.012120
3400.000000	0.012148
3399.000000	0.012165
3398.000000	0.012178
3397.000000	0.012193
3396.000000	0.012216
3395.000000	0.012247
3394.000000	0.012280
3393.000000	0.012305
3392.000000	0.012320
3391.000000	0.012331
3390.000000	0.012347
3389.000000	0.012373
3388.000000	0.012398
3387.000000	0.012416
3386.000000	0.012431
3385.000000	0.012457
3384.000000	0.012499
3383.000000	0.012549
3382.000000	0.012590
3381.000000	0.012613
3380.000000	0.012623
3379.000000	0.012633
3378.000000	0.012654
3377.000000	0.012693
3376.000000	0.012747
3375.000000	0.012810
3374.000000	0.012869
3373.000000	0.012917
3372.000000	0.012953
3371.000000	0.012980
3370.000000	0.013004
3369.000000	0.013033
3368.000000	0.013067
3367.000000	0.013102
3366.000000	0.013135
3365.000000	0.013170
3364.000000	0.013215
3363.000000	0.013274
3362.000000	0.013340
3361.000000	0.013400
3360.000000	0.013444
3359.000000	0.013479
3358.000000	0.013517
3357.000000	0.013567
3356.000000	0.013623
3355.000000	0.013675
3354.000000	0.013717
3353.000000	0.013751
3352.000000	0.013787
3351.000000	0.013831
3350.000000	0.013884
3349.000000	0.013944
3348.000000	0.014009
3347.000000	0.014077
3346.000000	0.014146
3345.000000	0.014211
3344.000000	0.014269
3343.000000	0.014317
3342.000000	0.014358
3341.000000	0.014396
3340.000000	0.014437
3339.000000	0.014486
3338.000000	0.014543
3337.000000	0.014603
3336.000000	0.014658
3335.000000	0.014704
3334.000000	0.014740
3333.000000	0.014772
3332.000000	0.014802
3331.000000	0.014837
3330.000000	0.014876
3329.000000	0.014917
3328.000000	0.014955
3327.000000	0.014986
3326.000000	0.015015
3325.000000	0.015045
3324.000000	0.015084
3323.000000	0.015132
3322.000000	0.015186
3321.000000	0.015236
3320.000000	0.015274
3319.000000	0.015300
3318.000000	0.015323
3317.000000	0.015354
3316.000000	0.015394
3315.000000	0.015437
3314.000000	0.015477
3313.000000	0.015509
3312.000000	0.015526
3311.000000	0.015523
3310.000000	0.015504
3309.000000	0.015484
3308.000000	0.015475
3307.000000	0.015483
3306.000000	0.015506
3305.000000	0.015539
3304.000000	0.015578
3303.000000	0.015619
3302.000000	0.015660
3301.000000	0.015700
3300.000000	0.015739
3299.000000	0.015768
3298.000000	0.015781
3297.000000	0.015778
3296.000000	0.015766
3295.000000	0.015755
3294.000000	0.015756
3293.000000	0.015774
3292.000000	0.015806
3291.000000	0.015847
3290.000000	0.015886
3289.000000	0.015914
3288.000000	0.015925
3287.000000	0.015921
3286.000000	0.015910
3285.000000	0.015899
3284.000000	0.015890
3283.000000	0.015881
3282.000000	0.015868
3281.000000	0.015850
3280.000000	0.015826
3279.000000	0.015804
3278.000000	0.015787
3277.000000	0.015779
3276.000000	0.015776
3275.000000	0.015770
3274.000000	0.015757
3273.000000	0.015736
3272.000000	0.015710
3271.000000	0.015681
3270.000000	0.015653
3269.000000	0.015630
3268.000000	0.015619
3267.000000	0.015622
3266.000000	0.015635
3265.000000	0.015639
3264.000000	0.015618
3263.000000	0.015565
3262.000000	0.015494
3261.000000	0.015428
3260.000000	0.015385
3259.000000	0.015368
3258.000000	0.015366
3257.000000	0.015362
3256.000000	0.015347
3255.000000	0.015315
3254.000000	0.015270
3253.000000	0.015220
3252.000000	0.015179
3251.000000	0.015158
3250.000000	0.015153
3249.000000	0.015154
3248.000000	0.015148
3247.000000	0.015131
3246.000000	0.015105
3245.000000	0.015075
3244.000000	0.015042
3243.000000	0.015009
3242.000000	0.014979
3241.000000	0.014953
3240.000000	0.014928
3239.000000	0.014899
3238.000000	0.014862
3237.000000	0.014819
3236.000000	0.014777
3235.000000	0.014742
3234.000000	0.014720
3233.000000	0.014710
3232.000000	0.014705
3231.000000	0.014694
3230.000000	0.014673
3229.000000	0.014644
3228.000000	0.014616
3227.000000	0.014599
3226.000000	0.014598
3225.000000	0.014603
3224.000000	0.014598
3223.000000	0.014569
3222.000000	0.014519
3221.000000	0.014465
3220.000000	0.014429
3219.000000	0.014420
3218.000000	0.014431
3217.000000	0.014441
3216.000000	0.014434
3215.000000	0.014409
3214.000000	0.014374
3213.000000	0.014340
3212.000000	0.014305
3211.000000	0.014266
3210.000000	0.014223
3209.000000	0.014183
3208.000000	0.014151
3207.000000	0.014129
3206.000000	0.014116
3205.000000	0.014109
3204.000000	0.014106
3203.000000	0.014101
3202.000000	0.014090
3201.000000	0.014069
3200.000000	0.014041
3199.000000	0.014009
3198.000000	0.013976
3197.000000	0.013941
3196.000000	0.013904
3195.000000	0.013865
3194.000000	0.013828
3193.000000	0.013790
3192.000000	0.013751
3191.000000	0.013714
3190.000000	0.013686
3189.000000	0.013671
3188.000000	0.013661
3187.000000	0.013638
3186.000000	0.013598
3185.000000	0.013550
3184.000000	0.013509
3183.000000	0.013485
3182.000000	0.013473
3181.000000	0.013459
3180.000000	0.013436
3179.000000	0.013412
3178.000000	0.013395
3177.000000	0.013384
3176.000000	0.013366
3175.000000	0.013330
3174.000000	0.013277
3173.000000	0.013218
3172.000000	0.013164
3171.000000	0.013118
3170.000000	0.013082
3169.000000	0.013053
3168.000000	0.013024
3167.000000	0.012988
3166.000000	0.012947
3165.000000	0.012910
3164.000000	0.012882
3163.000000	0.012856
3162.000000	0.012825
3161.000000	0.012782
3160.000000	0.012732
3159.000000	0.012682
3158.000000	0.012642
3157.000000	0.012624
3156.000000	0.012622
3155.000000	0.012620
3154.000000	0.012602
3153.000000	0.012567
3152.000000	0.012530
3151.000000	0.012501
3150.000000	0.012477
3149.000000	0.012446
3148.000000	0.012402
3147.000000	0.012354
3146.000000	0.012311
3145.000000	0.012279
3144.000000	0.012251
3143.000000	0.012221
3142.000000	0.012185
3141.000000	0.012147
3140.000000	0.012114
3139.000000	0.012092
3138.000000	0.012078
3137.000000	0.012065
3136.000000	0.012046
3135.000000	0.012020
3134.000000	0.011993
3133.000000	0.011971
3132.000000	0.011954
3131.000000	0.011937
3130.000000	0.011917
3129.000000	0.011897
3128.000000	0.011882
3127.000000	0.011866
3126.000000	0.011844
3125.000000	0.011813
3124.000000	0.011779
3123.000000	0.011750
3122.000000	0.011733
3121.000000	0.011729
3120.000000	0.011731
3119.000000	0.011730
3118.000000	0.011720
3117.000000	0.011704
3116.000000	0.011690
3115.000000	0.011688
3114.000000	0.011697
3113.000000	0.011709
3112.000000	0.011716
3111.000000	0.011717
3110.000000	0.011717
3109.000000	0.011721
3108.000000	0.011731
3107.000000	0.011746
3106.000000	0.011762
3105.000000	0.011779
3104.000000	0.011798
3103.000000	0.011816
3102.000000	0.011830
3101.000000	0.011837
3100.000000	0.011840
3099.000000	0.011842
3098.000000	0.011848
3097.000000	0.011856
3096.000000	0.011865
3095.000000	0.011878
3094.000000	0.011895
3093.000000	0.011916
3092.000000	0.011937
3091.000000	0.011956
3090.000000	0.011975
3089.000000	0.011989
3088.000000	0.011990
3087.000000	0.011980
3086.000000	0.011966
3085.000000	0.011960
3084.000000	0.011964
3083.000000	0.011974
3082.000000	0.011987
3081.000000	0.011999
3080.000000	0.012007
3079.000000	0.012009
3078.000000	0.012014
3077.000000	0.012029
3076.000000	0.012057
3075.000000	0.012090
3074.000000	0.012122
3073.000000	0.012147
3072.000000	0.012162
3071.000000	0.012163
3070.000000	0.012150
3069.000000	0.012131
3068.000000	0.012116
3067.000000	0.012110
3066.000000	0.012108
3065.000000	0.012102
3064.000000	0.012088
3063.000000	0.012066
3062.000000	0.012039
3061.000000	0.012009
3060.000000	0.011979
3059.000000	0.011952
3058.000000	0.011932
3057.000000	0.011918
3056.000000	0.011901
3055.000000	0.011875
3054.000000	0.011846
3053.000000	0.011822
3052.000000	0.011808
3051.000000	0.011796
3050.000000	0.011780
3049.000000	0.011751
3048.000000	0.011710
3047.000000	0.011659
3046.000000	0.011602
3045.000000	0.011547
3044.000000	0.011502
3043.000000	0.011470
3042.000000	0.011443
3041.000000	0.011416
3040.000000	0.011383
3039.000000	0.011344
3038.000000	0.011301
3037.000000	0.011254
3036.000000	0.011209
3035.000000	0.011173
3034.000000	0.011152
3033.000000	0.011141
3032.000000	0.011123
3031.000000	0.011083
3030.000000	0.011024
3029.000000	0.010962
3028.000000	0.010912
3027.000000	0.010874
3026.000000	0.010844
3025.000000	0.010813
3024.000000	0.010775
3023.000000	0.010729
3022.000000	0.010676
3021.000000	0.010619
3020.000000	0.010563
3019.000000	0.010507
3018.000000	0.010455
3017.000000	0.010412
3016.000000	0.010383
3015.000000	0.010370
3014.000000	0.010365
3013.000000	0.010351
3012.000000	0.010315
3011.000000	0.010262
3010.000000	0.010209
3009.000000	0.010172
3008.000000	0.010147
3007.000000	0.010126
3006.000000	0.010109
3005.000000	0.010099
3004.000000	0.010094
3003.000000	0.010086
3002.000000	0.010070
3001.000000	0.010047
3000.000000	0.010016
2999.000000	0.009980
2998.000000	0.009950
2997.000000	0.009940
2996.000000	0.009957
2995.000000	0.009995
2994.000000	0.010038
2993.000000	0.010074
2992.000000	0.010092
2991.000000	0.010095
2990.000000	0.010097
2989.000000	0.010122
2988.000000	0.010184
2987.000000	0.010278
2986.000000	0.010388
2985.000000	0.010503
2984.000000	0.010617
2983.000000	0.010729
2982.000000	0.010833
2981.000000	0.010931
2980.000000	0.011026
2979.000000	0.011128
2978.000000	0.011240
2977.000000	0.011361
2976.000000	0.011490
2975.000000	0.011626
2974.000000	0.011773
2973.000000	0.011935
2972.000000	0.012109
2971.000000	0.012294
2970.000000	0.012497
2969.000000	0.012724
2968.000000	0.012975
2967.000000	0.013239
2966.000000	0.013498
2965.000000	0.013739
2964.000000	0.013953
2963.000000	0.014141
2962.000000	0.014312
2961.000000	0.014470
2960.000000	0.014613
2959.000000	0.014732
2958.000000	0.014823
2957.000000	0.014892
2956.000000	0.014946
2955.000000	0.014984
2954.000000	0.015003
2953.000000	0.015000
2952.000000	0.014981
2951.000000	0.014954
2950.000000	0.014928
2949.000000	0.014910
2948.000000	0.014900
2947.000000	0.014896
2946.000000	0.014902
2945.000000	0.014928
2944.000000	0.014983
2943.000000	0.015073
2942.000000	0.015198
2941.000000	0.015356
2940.000000	0.015535
2939.000000	0.015726
2938.000000	0.015925
2937.000000	0.016131
2936.000000	0.016340
2935.000000	0.016549
2934.000000	0.016758
2933.000000	0.016972
2932.000000	0.017189
2931.000000	0.017399
2930.000000	0.017595
2929.000000	0.017776
2928.000000	0.017947
2927.000000	0.018111
2926.000000	0.018263
2925.000000	0.018399
2924.000000	0.018518
2923.000000	0.018622
2922.000000	0.018713
2921.000000	0.018781
2920.000000	0.018811
2919.000000	0.018784
2918.000000	0.018690
2917.000000	0.018528
2916.000000	0.018299
2915.000000	0.018004
2914.000000	0.017648
2913.000000	0.017253
2912.000000	0.016855
2911.000000	0.016488
2910.000000	0.016168
2909.000000	0.015893
2908.000000	0.015647
2907.000000	0.015417
2906.000000	0.015195
2905.000000	0.014976
2904.000000	0.014753
2903.000000	0.014525
2902.000000	0.014308
2901.000000	0.014120
2900.000000	0.013970
2899.000000	0.013843
2898.000000	0.013714
2897.000000	0.013574
2896.000000	0.013428
2895.000000	0.013290
2894.000000	0.013163
2893.000000	0.013047
2892.000000	0.012942
2891.000000	0.012853
2890.000000	0.012782
2889.000000	0.012730
2888.000000	0.012687
2887.000000	0.012644
2886.000000	0.012597
2885.000000	0.012559
2884.000000	0.012548
2883.000000	0.012574
2882.000000	0.012632
2881.000000	0.012709
2880.000000	0.012791
2879.000000	0.012877
2878.000000	0.012970
2877.000000	0.013076
2876.000000	0.013187
2875.000000	0.013291
2874.000000	0.013373
2873.000000	0.013428
2872.000000	0.013455
2871.000000	0.013462
2870.000000	0.013461
2869.000000	0.013469
2868.000000	0.013494
2867.000000	0.013530
2866.000000	0.013563
2865.000000	0.013589
2864.000000	0.013618
2863.000000	0.013664
2862.000000	0.013734
2861.000000	0.013823
2860.000000	0.013924
2859.000000	0.014036
2858.000000	0.014158
2857.000000	0.014284
2856.000000	0.014398
2855.000000	0.014496
2854.000000	0.014581
2853.000000	0.014664
2852.000000	0.014735
2851.000000	0.014757
2850.000000	0.014692
2849.000000	0.014516
2848.000000	0.014243
2847.000000	0.013905
2846.000000	0.013548
2845.000000	0.013207
2844.000000	0.012905
2843.000000	0.012650
2842.000000	0.012438
2841.000000	0.012262
2840.000000	0.012116
2839.000000	0.011994
2838.000000	0.011892
2837.000000	0.011800
2836.000000	0.011708
2835.000000	0.011606
2834.000000	0.011490
2833.000000	0.011364
2832.000000	0.011240
2831.000000	0.011125
2830.000000	0.011027
2829.000000	0.010947
2828.000000	0.010888
2827.000000	0.010844
2826.000000	0.010811
2825.000000	0.010781
2824.000000	0.010749
2823.000000	0.010717
2822.000000	0.010686
2821.000000	0.010656
2820.000000	0.010629
2819.000000	0.010605
2818.000000	0.010587
2817.000000	0.010571
2816.000000	0.010548
2815.000000	0.010516
2814.000000	0.010478
2813.000000	0.010444
2812.000000	0.010413
2811.000000	0.010376
2810.000000	0.010332
2809.000000	0.010290
2808.000000	0.010264
2807.000000	0.010252
2806.000000	0.010245
2805.000000	0.010236
2804.000000	0.010220
2803.000000	0.010193
2802.000000	0.010156
2801.000000	0.010117
2800.000000	0.010088
2799.000000	0.010073
2798.000000	0.010065
2797.000000	0.010053
2796.000000	0.010030
2795.000000	0.010000
2794.000000	0.009971
2793.000000	0.009953
2792.000000	0.009946
2791.000000	0.009943
2790.000000	0.009933
2789.000000	0.009916
2788.000000	0.009898
2787.000000	0.009882
2786.000000	0.009868
2785.000000	0.009852
2784.000000	0.009836
2783.000000	0.009825
2782.000000	0.009816
2781.000000	0.009807
2780.000000	0.009793
2779.000000	0.009777
2778.000000	0.009762
2777.000000	0.009751
2776.000000	0.009742
2775.000000	0.009724
2774.000000	0.009692
2773.000000	0.009652
2772.000000	0.009619
2771.000000	0.009601
2770.000000	0.009596
2769.000000	0.009594
2768.000000	0.009589
2767.000000	0.009583
2766.000000	0.009580
2765.000000	0.009578
2764.000000	0.009574
2763.000000	0.009564
2762.000000	0.009554
2761.000000	0.009550
2760.000000	0.009556
2759.000000	0.009564
2758.000000	0.009563
2757.000000	0.009548
2756.000000	0.009528
2755.000000	0.009513
2754.000000	0.009508
2753.000000	0.009505
2752.000000	0.009492
2751.000000	0.009465
2750.000000	0.009433
2749.000000	0.009408
2748.000000	0.009395
2747.000000	0.009389
2746.000000	0.009381
2745.000000	0.009371
2744.000000	0.009363
2743.000000	0.009361
2742.000000	0.009363
2741.000000	0.009363
2740.000000	0.009357
2739.000000	0.009344
2738.000000	0.009328
2737.000000	0.009311
2736.000000	0.009295
2735.000000	0.009282
2734.000000	0.009271
2733.000000	0.009261
2732.000000	0.009256
2731.000000	0.009257
2730.000000	0.009264
2729.000000	0.009277
2728.000000	0.009294
2727.000000	0.009310
2726.000000	0.009316
2725.000000	0.009306
2724.000000	0.009283
2723.000000	0.009256
2722.000000	0.009235
2721.000000	0.009223
2720.000000	0.009218
2719.000000	0.009217
2718.000000	0.009215
2717.000000	0.009209
2716.000000	0.009191
2715.000000	0.009164
2714.000000	0.009134
2713.000000	0.009111
2712.000000	0.009100
2711.000000	0.009105
2710.000000	0.009119
2709.000000	0.009130
2708.000000	0.009130
2707.000000	0.009119
2706.000000	0.009105
2705.000000	0.009092
2704.000000	0.009077
2703.000000	0.009057
2702.000000	0.009034
2701.000000	0.009019
2700.000000	0.009016
2699.000000	0.009022
2698.000000	0.009028
2697.000000	0.009030
2696.000000	0.009030
2695.000000	0.009029
2694.000000	0.009031
2693.000000	0.009034
2692.000000	0.009033
2691.000000	0.009026
2690.000000	0.009012
2689.000000	0.008993
2688.000000	0.008973
2687.000000	0.008953
2686.000000	0.008937
2685.000000	0.008927
2684.000000	0.008925
2683.000000	0.008931
2682.000000	0.008942
2681.000000	0.008952
2680.000000	0.008957
2679.000000	0.008952
2678.000000	0.008938
2677.000000	0.008920
2676.000000	0.008908
2675.000000	0.008909
2674.000000	0.008918
2673.000000	0.008922
2672.000000	0.008912
2671.000000	0.008894
2670.000000	0.008880
2669.000000	0.008882
2668.000000	0.008896
2667.000000	0.008911
2666.000000	0.008916
2665.000000	0.008910
2664.000000	0.008895
2663.000000	0.008881
2662.000000	0.008871
2661.000000	0.008869
2660.000000	0.008871
2659.000000	0.008872
2658.000000	0.008873
2657.000000	0.008876
2656.000000	0.008883
2655.000000	0.008888
2654.000000	0.008886
2653.000000	0.008872
2652.000000	0.008848
2651.000000	0.008817
2650.000000	0.008787
2649.000000	0.008764
2648.000000	0.008747
2647.000000	0.008731
2646.000000	0.008710
2645.000000	0.008683
2644.000000	0.008656
2643.000000	0.008639
2642.000000	0.008640
2641.000000	0.008654
2640.000000	0.008668
2639.000000	0.008667
2638.000000	0.008648
2637.000000	0.008619
2636.000000	0.008591
2635.000000	0.008567
2634.000000	0.008541
2633.000000	0.008508
2632.000000	0.008471
2631.000000	0.008435
2630.000000	0.008406
2629.000000	0.008387
2628.000000	0.008378
2627.000000	0.008375
2626.000000	0.008370
2625.000000	0.008357
2624.000000	0.008335
2623.000000	0.008310
2622.000000	0.008290
2621.000000	0.008277
2620.000000	0.008267
2619.000000	0.008256
2618.000000	0.008245
2617.000000	0.008235
2616.000000	0.008225
2615.000000	0.008216
2614.000000	0.008214
2613.000000	0.008220
2612.000000	0.008227
2611.000000	0.008223
2610.000000	0.008203
2609.000000	0.008173
2608.000000	0.008142
2607.000000	0.008114
2606.000000	0.008093
2605.000000	0.008076
2604.000000	0.008062
2603.000000	0.008054
2602.000000	0.008055
2601.000000	0.008067
2600.000000	0.008081
2599.000000	0.008086
2598.000000	0.008080
2597.000000	0.008073
2596.000000	0.008069
2595.000000	0.008069
2594.000000	0.008069
2593.000000	0.008063
2592.000000	0.008049
2591.000000	0.008026
2590.000000	0.008002
2589.000000	0.007978
2588.000000	0.007951
2587.000000	0.007916
2586.000000	0.007877
2585.000000	0.007851
2584.000000	0.007850
2583.000000	0.007871
2582.000000	0.007903
2581.000000	0.007931
2580.000000	0.007942
2579.000000	0.007933
2578.000000	0.007914
2577.000000	0.007896
2576.000000	0.007882
2575.000000	0.007868
2574.000000	0.007852
2573.000000	0.007844
2572.000000	0.007847
2571.000000	0.007851
2570.000000	0.007845
2569.000000	0.007823
2568.000000	0.007794
2567.000000	0.007767
2566.000000	0.007748
2565.000000	0.007732
2564.000000	0.007715
2563.000000	0.007699
2562.000000	0.007688
2561.000000	0.007686
2560.000000	0.007684
2559.000000	0.007679
2558.000000	0.007675
2557.000000	0.007682
2556.000000	0.007690
2555.000000	0.007686
2554.000000	0.007667
2553.000000	0.007651
2552.000000	0.007652
2551.000000	0.007666
2550.000000	0.007678
2549.000000	0.007676
2548.000000	0.007666
2547.000000	0.007659
2546.000000	0.007664
2545.000000	0.007680
2544.000000	0.007699
2543.000000	0.007714
2542.000000	0.007719
2541.000000	0.007715
2540.000000	0.007702
2539.000000	0.007684
2538.000000	0.007675
2537.000000	0.007682
2536.000000	0.007692
2535.000000	0.007685
2534.000000	0.007656
2533.000000	0.007619
2532.000000	0.007594
2531.000000	0.007590
2530.000000	0.007606
2529.000000	0.007637
2528.000000	0.007676
2527.000000	0.007707
2526.000000	0.007724
2525.000000	0.007731
2524.000000	0.007737
2523.000000	0.007747
2522.000000	0.007759
2521.000000	0.007772
2520.000000	0.007782
2519.000000	0.007780
2518.000000	0.007766
2517.000000	0.007745
2516.000000	0.007730
2515.000000	0.007728
2514.000000	0.007736
2513.000000	0.007737
2512.000000	0.007722
2511.000000	0.007699
2510.000000	0.007690
2509.000000	0.007705
2508.000000	0.007728
2507.000000	0.007732
2506.000000	0.007700
2505.000000	0.007638
2504.000000	0.007560
2503.000000	0.007479
2502.000000	0.007418
2501.000000	0.007397
2500.000000	0.007416
2499.000000	0.007453
2498.000000	0.007482
2497.000000	0.007497
2496.000000	0.007503
2495.000000	0.007502
2494.000000	0.007489
2493.000000	0.007465
2492.000000	0.007441
2491.000000	0.007431
2490.000000	0.007440
2489.000000	0.007458
2488.000000	0.007464
2487.000000	0.007451
2486.000000	0.007430
2485.000000	0.007423
2484.000000	0.007437
2483.000000	0.007454
2482.000000	0.007450
2481.000000	0.007423
2480.000000	0.007386
2479.000000	0.007354
2478.000000	0.007338
2477.000000	0.007341
2476.000000	0.007358
2475.000000	0.007373
2474.000000	0.007370
2473.000000	0.007343
2472.000000	0.007299
2471.000000	0.007251
2470.000000	0.007210
2469.000000	0.007189
2468.000000	0.007195
2467.000000	0.007225
2466.000000	0.007266
2465.000000	0.007301
2464.000000	0.007321
2463.000000	0.007328
2462.000000	0.007328
2461.000000	0.007321
2460.000000	0.007305
2459.000000	0.007281
2458.000000	0.007260
2457.000000	0.007253
2456.000000	0.007258
2455.000000	0.007263
2454.000000	0.007259
2453.000000	0.007247
2452.000000	0.007245
2451.000000	0.007262
2450.000000	0.007296
2449.000000	0.007325
2448.000000	0.007334
2447.000000	0.007326
2446.000000	0.007314
2445.000000	0.007309
2444.000000	0.007304
2443.000000	0.007291
2442.000000	0.007280
2441.000000	0.007284
2440.000000	0.007299
2439.000000	0.007304
2438.000000	0.007282
2437.000000	0.007240
2436.000000	0.007197
2435.000000	0.007170
2434.000000	0.007161
2433.000000	0.007163
2432.000000	0.007166
2431.000000	0.007164
2430.000000	0.007157
2429.000000	0.007151
2428.000000	0.007149
2427.000000	0.007152
2426.000000	0.007157
2425.000000	0.007157
2424.000000	0.007152
2423.000000	0.007144
2422.000000	0.007135
2421.000000	0.007123
2420.000000	0.007104
2419.000000	0.007089
2418.000000	0.007087
2417.000000	0.007099
2416.000000	0.007106
2415.000000	0.007100
2414.000000	0.007086
2413.000000	0.007076
2412.000000	0.007071
2411.000000	0.007070
2410.000000	0.007076
2409.000000	0.007088
2408.000000	0.007095
2407.000000	0.007080
2406.000000	0.007048
2405.000000	0.007019
2404.000000	0.007014
2403.000000	0.007032
2402.000000	0.007064
2401.000000	0.007098
2400.000000	0.007124
2399.000000	0.007136
2398.000000	0.007133
2397.000000	0.007117
2396.000000	0.007094
2395.000000	0.007073
2394.000000	0.007061
2393.000000	0.007056
2392.000000	0.007049
2391.000000	0.007038
2390.000000	0.007039
2389.000000	0.007059
2388.000000	0.007084
2387.000000	0.007090
2386.000000	0.007067
2385.000000	0.007021
2384.000000	0.006962
2383.000000	0.006901
2382.000000	0.006856
2381.000000	0.006841
2380.000000	0.006854
2379.000000	0.006879
2378.000000	0.006911
2377.000000	0.006958
2376.000000	0.007016
2375.000000	0.007064
2374.000000	0.007081
2373.000000	0.007066
2372.000000	0.007039
2371.000000	0.007025
2370.000000	0.007030
2369.000000	0.007027
2368.000000	0.006987
2367.000000	0.006928
2366.000000	0.006913
2365.000000	0.006979
2364.000000	0.007087
2363.000000	0.007173
2362.000000	0.007203
2361.000000	0.007186
2360.000000	0.007145
2359.000000	0.007097
2358.000000	0.007053
2357.000000	0.007024
2356.000000	0.007026
2355.000000	0.007072
2354.000000	0.007133
2353.000000	0.007156
2352.000000	0.007133
2351.000000	0.007108
2350.000000	0.007114
2349.000000	0.007149
2348.000000	0.007187
2347.000000	0.007192
2346.000000	0.007168
2345.000000	0.007168
2344.000000	0.007217
2343.000000	0.007280
2342.000000	0.007302
2341.000000	0.007271
2340.000000	0.007230
2339.000000	0.007220
2338.000000	0.007238
2337.000000	0.007255
2336.000000	0.007254
2335.000000	0.007234
2334.000000	0.007187
2333.000000	0.007110
2332.000000	0.007033
2331.000000	0.006994
2330.000000	0.007015
2329.000000	0.007083
2328.000000	0.007188
2327.000000	0.007313
2326.000000	0.007434
2325.000000	0.007521
2324.000000	0.007554
2323.000000	0.007535
2322.000000	0.007495
2321.000000	0.007474
2320.000000	0.007494
2319.000000	0.007532
2318.000000	0.007547
2317.000000	0.007512
2316.000000	0.007441
2315.000000	0.007361
2314.000000	0.007300
2313.000000	0.007273
2312.000000	0.007284
2311.000000	0.007309
2310.000000	0.007320
2309.000000	0.007300
2308.000000	0.007259
2307.000000	0.007211
2306.000000	0.007168
2305.000000	0.007137
2304.000000	0.007118
2303.000000	0.007103
2302.000000	0.007080
2301.000000	0.007052
2300.000000	0.007033
2299.000000	0.007037
2298.000000	0.007065
2297.000000	0.007109
2296.000000	0.007158
2295.000000	0.007201
2294.000000	0.007227
2293.000000	0.007231
2292.000000	0.007216
2291.000000	0.007195
2290.000000	0.007189
2289.000000	0.007205
2288.000000	0.007231
2287.000000	0.007250
2286.000000	0.007264
2285.000000	0.007277
2284.000000	0.007277
2283.000000	0.007235
2282.000000	0.007152
2281.000000	0.007065
2280.000000	0.007007
2279.000000	0.006970
2278.000000	0.006933
2277.000000	0.006902
2276.000000	0.006902
2275.000000	0.006939
2274.000000	0.006989
2273.000000	0.007027
2272.000000	0.007038
2271.000000	0.007017
2270.000000	0.006965
2269.000000	0.006895
2268.000000	0.006831
2267.000000	0.006794
2266.000000	0.006797
2265.000000	0.006837
2264.000000	0.006884
2263.000000	0.006905
2262.000000	0.006897
2261.000000	0.006888
2260.000000	0.006888
2259.000000	0.006876
2258.000000	0.006835
2257.000000	0.006785
2256.000000	0.006746
2255.000000	0.006694
2254.000000	0.006600
2253.000000	0.006499
2252.000000	0.006459
2251.000000	0.006508
2250.000000	0.006599
2249.000000	0.006670
2248.000000	0.006705
2247.000000	0.006725
2246.000000	0.006759
2245.000000	0.006818
2244.000000	0.006878
2243.000000	0.006892
2242.000000	0.006832
2241.000000	0.006733
2240.000000	0.006658
2239.000000	0.006634
2238.000000	0.006630
2237.000000	0.006613
2236.000000	0.006579
2235.000000	0.006536
2234.000000	0.006477
2233.000000	0.006408
2232.000000	0.006364
2231.000000	0.006383
2230.000000	0.006459
2229.000000	0.006534
2228.000000	0.006556
2227.000000	0.006507
2226.000000	0.006413
2225.000000	0.006315
2224.000000	0.006253
2223.000000	0.006251
2222.000000	0.006314
2221.000000	0.006414
2220.000000	0.006497
2219.000000	0.006520
2218.000000	0.006481
2217.000000	0.006426
2216.000000	0.006411
2215.000000	0.006461
2214.000000	0.006565
2213.000000	0.006685
2212.000000	0.006775
2211.000000	0.006795
2210.000000	0.006719
2209.000000	0.006543
2208.000000	0.006307
2207.000000	0.006093
2206.000000	0.005986
2205.000000	0.006013
2204.000000	0.006116
2203.000000	0.006209
2202.000000	0.006253
2201.000000	0.006260
2200.000000	0.006243
2199.000000	0.006182
2198.000000	0.006073
2197.000000	0.005967
2196.000000	0.005933
2195.000000	0.006002
2194.000000	0.006144
2193.000000	0.006283
2192.000000	0.006344
2191.000000	0.006298
2190.000000	0.006190
2189.000000	0.006098
2188.000000	0.006064
2187.000000	0.006087
2186.000000	0.006161
2185.000000	0.006288
2184.000000	0.006423
2183.000000	0.006468
2182.000000	0.006372
2181.000000	0.006204
2180.000000	0.006096
2179.000000	0.006114
2178.000000	0.006213
2177.000000	0.006301
2176.000000	0.006308
2175.000000	0.006231
2174.000000	0.006137
2173.000000	0.006118
2172.000000	0.006206
2171.000000	0.006332
2170.000000	0.006401
2169.000000	0.006386
2168.000000	0.006347
2167.000000	0.006334
2166.000000	0.006321
2165.000000	0.006261
2164.000000	0.006162
2163.000000	0.006097
2162.000000	0.006095
2161.000000	0.006061
2160.000000	0.005833
2159.000000	0.005362
2158.000000	0.004805
2157.000000	0.004409
2156.000000	0.004295
2155.000000	0.004429
2154.000000	0.004713
2153.000000	0.005032
2152.000000	0.005280
2151.000000	0.005412
2150.000000	0.005484
2149.000000	0.005578
2148.000000	0.005713
2147.000000	0.005838
2146.000000	0.005909
2145.000000	0.005932
2144.000000	0.005934
2143.000000	0.005924
2142.000000	0.005896
2141.000000	0.005842
2140.000000	0.005762
2139.000000	0.005674
2138.000000	0.005605
2137.000000	0.005564
2136.000000	0.005529
2135.000000	0.005490
2134.000000	0.005489
2133.000000	0.005567
2132.000000	0.005698
2131.000000	0.005813
2130.000000	0.005881
2129.000000	0.005927
2128.000000	0.005971
2127.000000	0.006003
2126.000000	0.006022
2125.000000	0.006067
2124.000000	0.006161
2123.000000	0.006269
2122.000000	0.006327
2121.000000	0.006319
2120.000000	0.006285
2119.000000	0.006269
2118.000000	0.006285
2117.000000	0.006332
2116.000000	0.006416
2115.000000	0.006536
2114.000000	0.006656
2113.000000	0.006718
2112.000000	0.006685
2111.000000	0.006574
2110.000000	0.006439
2109.000000	0.006329
2108.000000	0.006263
2107.000000	0.006243
2106.000000	0.006268
2105.000000	0.006323
2104.000000	0.006384
2103.000000	0.006444
2102.000000	0.006516
2101.000000	0.006586
2100.000000	0.006598
2099.000000	0.006508
2098.000000	0.006349
2097.000000	0.006203
2096.000000	0.006110
2095.000000	0.006046
2094.000000	0.005994
2093.000000	0.005980
2092.000000	0.006020
2091.000000	0.006075
2090.000000	0.006095
2089.000000	0.006077
2088.000000	0.006066
2087.000000	0.006106
2086.000000	0.006205
2085.000000	0.006332
2084.000000	0.006437
2083.000000	0.006479
2082.000000	0.006457
2081.000000	0.006393
2080.000000	0.006311
2079.000000	0.006227
2078.000000	0.006169
2077.000000	0.006167
2076.000000	0.006215
2075.000000	0.006262
2074.000000	0.006263
2073.000000	0.006216
2072.000000	0.006154
2071.000000	0.006110
2070.000000	0.006097
2069.000000	0.006107
2068.000000	0.006115
2067.000000	0.006094
2066.000000	0.006044
2065.000000	0.005977
2064.000000	0.005905
2063.000000	0.005845
2062.000000	0.005845
2061.000000	0.005946
2060.000000	0.006121
2059.000000	0.006277
2058.000000	0.006341
2057.000000	0.006317
2056.000000	0.006245
2055.000000	0.006166
2054.000000	0.006117
2053.000000	0.006131
2052.000000	0.006183
2051.000000	0.006188
2050.000000	0.006077
2049.000000	0.005874
2048.000000	0.005675
2047.000000	0.005542
2046.000000	0.005468
2045.000000	0.005435
2044.000000	0.005449
2043.000000	0.005516
2042.000000	0.005615
2041.000000	0.005704
2040.000000	0.005737
2039.000000	0.005690
2038.000000	0.005589
2037.000000	0.005488
2036.000000	0.005426
2035.000000	0.005406
2034.000000	0.005424
2033.000000	0.005461
2032.000000	0.005456
2031.000000	0.005349
2030.000000	0.005175
2029.000000	0.005045
2028.000000	0.005035
2027.000000	0.005110
2026.000000	0.005199
2025.000000	0.005277
2024.000000	0.005350
2023.000000	0.005419
2022.000000	0.005476
2021.000000	0.005510
2020.000000	0.005492
2019.000000	0.005400
2018.000000	0.005272
2017.000000	0.005187
2016.000000	0.005168
2015.000000	0.005138
2014.000000	0.005010
2013.000000	0.004795
2012.000000	0.004605
2011.000000	0.004561
2010.000000	0.004703
2009.000000	0.004958
2008.000000	0.005185
2007.000000	0.005296
2006.000000	0.005317
2005.000000	0.005316
2004.000000	0.005289
2003.000000	0.005181
2002.000000	0.004997
2001.000000	0.004828
2000.000000	0.004780
1999.000000	0.004899
1998.000000	0.005154
1997.000000	0.005437
1996.000000	0.005605
1995.000000	0.005584
1994.000000	0.005453
1993.000000	0.005368
1992.000000	0.005400
1991.000000	0.005468
1990.000000	0.005462
1989.000000	0.005364
1988.000000	0.005233
1987.000000	0.005119
1986.000000	0.005048
1985.000000	0.005038
1984.000000	0.005109
1983.000000	0.005282
1982.000000	0.005544
1981.000000	0.005814
1980.000000	0.005937
1979.000000	0.005803
1978.000000	0.005459
1977.000000	0.005086
1976.000000	0.004842
1975.000000	0.004760
1974.000000	0.004804
1973.000000	0.004908
1972.000000	0.004988
1971.000000	0.005002
1970.000000	0.005012
1969.000000	0.005094
1968.000000	0.005221
1967.000000	0.005292
1966.000000	0.005275
1965.000000	0.005238
1964.000000	0.005223
1963.000000	0.005200
1962.000000	0.005150
1961.000000	0.005099
1960.000000	0.005070
1959.000000	0.005055
1958.000000	0.005056
1957.000000	0.005092
1956.000000	0.005151
1955.000000	0.005187
1954.000000	0.005178
1953.000000	0.005142
1952.000000	0.005084
1951.000000	0.004989
1950.000000	0.004881
1949.000000	0.004818
1948.000000	0.004814
1947.000000	0.004822
1946.000000	0.004808
1945.000000	0.004798
1944.000000	0.004836
1943.000000	0.004913
1942.000000	0.004983
1941.000000	0.005012
1940.000000	0.005003
1939.000000	0.004988
1938.000000	0.005013
1937.000000	0.005090
1936.000000	0.005177
1935.000000	0.005219
1934.000000	0.005218
1933.000000	0.005218
1932.000000	0.005234
1931.000000	0.005229
1930.000000	0.005187
1929.000000	0.005130
1928.000000	0.005088
1927.000000	0.005067
1926.000000	0.005076
1925.000000	0.005126
1924.000000	0.005189
1923.000000	0.005210
1922.000000	0.005185
1921.000000	0.005169
1920.000000	0.005198
1919.000000	0.005245
1918.000000	0.005273
1917.000000	0.005299
1916.000000	0.005351
1915.000000	0.005407
1914.000000	0.005425
1913.000000	0.005399
1912.000000	0.005356
1911.000000	0.005319
1910.000000	0.005303
1909.000000	0.005311
1908.000000	0.005326
1907.000000	0.005316
1906.000000	0.005272
1905.000000	0.005229
1904.000000	0.005224
1903.000000	0.005248
1902.000000	0.005274
1901.000000	0.005282
1900.000000	0.005266
1899.000000	0.005230
1898.000000	0.005193
1897.000000	0.005188
1896.000000	0.005223
1895.000000	0.005258
1894.000000	0.005254
1893.000000	0.005217
1892.000000	0.005185
1891.000000	0.005182
1890.000000	0.005201
1889.000000	0.005225
1888.000000	0.005245
1887.000000	0.005262
1886.000000	0.005275
1885.000000	0.005277
1884.000000	0.005260
1883.000000	0.005228
1882.000000	0.005201
1881.000000	0.005186
1880.000000	0.005169
1879.000000	0.005138
1878.000000	0.005109
1877.000000	0.005115
1876.000000	0.005163
1875.000000	0.005209
1874.000000	0.005210
1873.000000	0.005169
1872.000000	0.005124
1871.000000	0.005106
1870.000000	0.005107
1869.000000	0.005102
1868.000000	0.005082
1867.000000	0.005068
1866.000000	0.005076
1865.000000	0.005094
1864.000000	0.005093
1863.000000	0.005061
1862.000000	0.005025
1861.000000	0.005025
1860.000000	0.005061
1859.000000	0.005104
1858.000000	0.005126
1857.000000	0.005126
1856.000000	0.005115
1855.000000	0.005103
1854.000000	0.005110
1853.000000	0.005135
1852.000000	0.005149
1851.000000	0.005127
1850.000000	0.005070
1849.000000	0.004993
1848.000000	0.004907
1847.000000	0.004825
1846.000000	0.004783
1845.000000	0.004795
1844.000000	0.004823
1843.000000	0.004835
1842.000000	0.004855
1841.000000	0.004898
1840.000000	0.004945
1839.000000	0.004962
1838.000000	0.004944
1837.000000	0.004926
1836.000000	0.004926
1835.000000	0.004927
1834.000000	0.004917
1833.000000	0.004911
1832.000000	0.004933
1831.000000	0.004972
1830.000000	0.004984
1829.000000	0.004962
1828.000000	0.004945
1827.000000	0.004951
1826.000000	0.004962
1825.000000	0.004953
1824.000000	0.004938
1823.000000	0.004942
1822.000000	0.004967
1821.000000	0.004987
1820.000000	0.004972
1819.000000	0.004922
1818.000000	0.004869
1817.000000	0.004850
1816.000000	0.004865
1815.000000	0.004884
1814.000000	0.004894
1813.000000	0.004905
1812.000000	0.004929
1811.000000	0.004948
1810.000000	0.004949
1809.000000	0.004942
1808.000000	0.004939
1807.000000	0.004940
1806.000000	0.004952
1805.000000	0.004986
1804.000000	0.005042
1803.000000	0.005110
1802.000000	0.005181
1801.000000	0.005248
1800.000000	0.005303
1799.000000	0.005331
1798.000000	0.005334
1797.000000	0.005319
1796.000000	0.005289
1795.000000	0.005257
1794.000000	0.005250
1793.000000	0.005258
1792.000000	0.005231
1791.000000	0.005147
1790.000000	0.005055
1789.000000	0.005000
1788.000000	0.004984
1787.000000	0.004980
1786.000000	0.004967
1785.000000	0.004945
1784.000000	0.004921
1783.000000	0.004912
1782.000000	0.004924
1781.000000	0.004938
1780.000000	0.004942
1779.000000	0.004937
1778.000000	0.004936
1777.000000	0.004928
1776.000000	0.004879
1775.000000	0.004804
1774.000000	0.004768
1773.000000	0.004795
1772.000000	0.004830
1771.000000	0.004844
1770.000000	0.004858
1769.000000	0.004899
1768.000000	0.004952
1767.000000	0.004982
1766.000000	0.004996
1765.000000	0.005034
1764.000000	0.005124
1763.000000	0.005252
1762.000000	0.005375
1761.000000	0.005489
1760.000000	0.005636
1759.000000	0.005841
1758.000000	0.006109
1757.000000	0.006416
1756.000000	0.006719
1755.000000	0.006991
1754.000000	0.007255
1753.000000	0.007581
1752.000000	0.008032
1751.000000	0.008582
1750.000000	0.009163
1749.000000	0.009727
1748.000000	0.010225
1747.000000	0.010635
1746.000000	0.010982
1745.000000	0.011295
1744.000000	0.011564
1743.000000	0.011756
1742.000000	0.011890
1741.000000	0.012003
1740.000000	0.012043
1739.000000	0.011940
1738.000000	0.011739
1737.000000	0.011525
1736.000000	0.011326
1735.000000	0.011055
1734.000000	0.010609
1733.000000	0.010215
1732.000000	0.010087
1731.000000	0.010062
1730.000000	0.009929
1729.000000	0.009659
1728.000000	0.009326
1727.000000	0.008997
1726.000000	0.008694
1725.000000	0.008428
1724.000000	0.008192
1723.000000	0.007948
1722.000000	0.007692
1721.000000	0.007449
1720.000000	0.007230
1719.000000	0.007004
1718.000000	0.006748
1717.000000	0.006570
1716.000000	0.006579
1715.000000	0.006685
1714.000000	0.006765
1713.000000	0.006818
1712.000000	0.006886
1711.000000	0.006960
1710.000000	0.007024
1709.000000	0.007104
1708.000000	0.007253
1707.000000	0.007470
1706.000000	0.007690
1705.000000	0.007834
1704.000000	0.007873
1703.000000	0.007860
1702.000000	0.007976
1701.000000	0.008315
1700.000000	0.008649
1699.000000	0.008820
1698.000000	0.008957
1697.000000	0.009217
1696.000000	0.009620
1695.000000	0.010048
1694.000000	0.010474
1693.000000	0.010925
1692.000000	0.011370
1691.000000	0.011784
1690.000000	0.012150
1689.000000	0.012407
1688.000000	0.012502
1687.000000	0.012501
1686.000000	0.012650
1685.000000	0.013160
1684.000000	0.013860
1683.000000	0.014455
1682.000000	0.014936
1681.000000	0.015397
1680.000000	0.015836
1679.000000	0.016216
1678.000000	0.016559
1677.000000	0.016978
1676.000000	0.017532
1675.000000	0.018106
1674.000000	0.018581
1673.000000	0.019015
1672.000000	0.019504
1671.000000	0.020080
1670.000000	0.020721
1669.000000	0.021364
1668.000000	0.021941
1667.000000	0.022420
1666.000000	0.022831
1665.000000	0.023277
1664.000000	0.023839
1663.000000	0.024468
1662.000000	0.025054
1661.000000	0.025564
1660.000000	0.026033
1659.000000	0.026457
1658.000000	0.026778
1657.000000	0.026928
1656.000000	0.026928
1655.000000	0.026989
1654.000000	0.027352
1653.000000	0.027882
1652.000000	0.028328
1651.000000	0.028758
1650.000000	0.029150
1649.000000	0.029425
1648.000000	0.029647
1647.000000	0.029840
1646.000000	0.029951
1645.000000	0.030040
1644.000000	0.030196
1643.000000	0.030379
1642.000000	0.030526
1641.000000	0.030624
1640.000000	0.030673
1639.000000	0.030662
1638.000000	0.030636
1637.000000	0.030707
1636.000000	0.030884
1635.000000	0.031023
1634.000000	0.031067
1633.000000	0.031094
1632.000000	0.031115
1631.000000	0.031111
1630.000000	0.031092
1629.000000	0.031048
1628.000000	0.030932
1627.000000	0.030711
1626.000000	0.030423
1625.000000	0.030134
1624.000000	0.029848
1623.000000	0.029507
1622.000000	0.029099
1621.000000	0.028657
1620.000000	0.028179
1619.000000	0.027647
1618.000000	0.027084
1617.000000	0.026517
1616.000000	0.025997
1615.000000	0.025601
1614.000000	0.025294
1613.000000	0.024972
1612.000000	0.024583
1611.000000	0.024147
1610.000000	0.023699
1609.000000	0.023252
1608.000000	0.022806
1607.000000	0.022377
1606.000000	0.021984
1605.000000	0.021614
1604.000000	0.021248
1603.000000	0.020887
1602.000000	0.020548
1601.000000	0.020238
1600.000000	0.019944
1599.000000	0.019663
1598.000000	0.019408
1597.000000	0.019190
1596.000000	0.019002
1595.000000	0.018834
1594.000000	0.018680
1593.000000	0.018538
1592.000000	0.018415
1591.000000	0.018325
1590.000000	0.018274
1589.000000	0.018245
1588.000000	0.018227
1587.000000	0.018226
1586.000000	0.018260
1585.000000	0.018326
1584.000000	0.018407
1583.000000	0.018516
1582.000000	0.018660
1581.000000	0.018796
1580.000000	0.018853
1579.000000	0.018816
1578.000000	0.018774
1577.000000	0.018845
1576.000000	0.019041
1575.000000	0.019306
1574.000000	0.019592
1573.000000	0.019829
1572.000000	0.020013
1571.000000	0.020222
1570.000000	0.020487
1569.000000	0.020746
1568.000000	0.020968
1567.000000	0.021218
1566.000000	0.021542
1565.000000	0.021886
1564.000000	0.022115
1563.000000	0.022140
1562.000000	0.022043
1561.000000	0.022119
1560.000000	0.022634
1559.000000	0.023405
1558.000000	0.023995
1557.000000	0.024373
1556.000000	0.024732
1555.000000	0.025112
1554.000000	0.025510
1553.000000	0.025909
1552.000000	0.026314
1551.000000	0.026719
1550.000000	0.027099
1549.000000	0.027414
1548.000000	0.027658
1547.000000	0.027884
1546.000000	0.028136
1545.000000	0.028382
1544.000000	0.028552
1543.000000	0.028627
1542.000000	0.028681
1541.000000	0.028808
1540.000000	0.028949
1539.000000	0.028997
1538.000000	0.029032
1537.000000	0.029122
1536.000000	0.029186
1535.000000	0.029186
1534.000000	0.029115
1533.000000	0.028964
1532.000000	0.028789
1531.000000	0.028638
1530.000000	0.028509
1529.000000	0.028386
1528.000000	0.028248
1527.000000	0.028087
1526.000000	0.027899
1525.000000	0.027689
1524.000000	0.027466
1523.000000	0.027249
1522.000000	0.027050
1521.000000	0.026889
1520.000000	0.026826
1519.000000	0.026871
1518.000000	0.026920
1517.000000	0.026858
1516.000000	0.026658
1515.000000	0.026393
1514.000000	0.026149
1513.000000	0.025950
1512.000000	0.025767
1511.000000	0.025537
1510.000000	0.025222
1509.000000	0.024849
1508.000000	0.024460
1507.000000	0.024015
1506.000000	0.023553
1505.000000	0.023300
1504.000000	0.023310
1503.000000	0.023367
1502.000000	0.023313
1501.000000	0.023143
1500.000000	0.022899
1499.000000	0.022601
1498.000000	0.022275
1497.000000	0.021983
1496.000000	0.021774
1495.000000	0.021646
1494.000000	0.021578
1493.000000	0.021547
1492.000000	0.021541
1491.000000	0.021517
1490.000000	0.021437
1489.000000	0.021343
1488.000000	0.021289
1487.000000	0.021256
1486.000000	0.021238
1485.000000	0.021269
1484.000000	0.021367
1483.000000	0.021518
1482.000000	0.021697
1481.000000	0.021905
1480.000000	0.022145
1479.000000	0.022414
1478.000000	0.022708
1477.000000	0.023022
1476.000000	0.023325
1475.000000	0.023621
1474.000000	0.023995
1473.000000	0.024505
1472.000000	0.025081
1471.000000	0.025619
1470.000000	0.026115
1469.000000	0.026593
1468.000000	0.027047
1467.000000	0.027466
1466.000000	0.027867
1465.000000	0.028258
1464.000000	0.028616
1463.000000	0.028933
1462.000000	0.029235
1461.000000	0.029526
1460.000000	0.029785
1459.000000	0.030028
1458.000000	0.030333
1457.000000	0.030721
1456.000000	0.031132
1455.000000	0.031569
1454.000000	0.032011
1453.000000	0.032387
1452.000000	0.032671
1451.000000	0.032885
1450.000000	0.033079
1449.000000	0.033286
1448.000000	0.033477
1447.000000	0.033608
1446.000000	0.033706
1445.000000	0.033817
1444.000000	0.033952
1443.000000	0.034087
1442.000000	0.034212
1441.000000	0.034326
1440.000000	0.034417
1439.000000	0.034483
1438.000000	0.034557
1437.000000	0.034645
1436.000000	0.034716
1435.000000	0.034801
1434.000000	0.034927
1433.000000	0.035061
1432.000000	0.035151
1431.000000	0.035184
1430.000000	0.035188
1429.000000	0.035218
1428.000000	0.035293
1427.000000	0.035403
1426.000000	0.035535
1425.000000	0.035653
1424.000000	0.035707
1423.000000	0.035690
1422.000000	0.035651
1421.000000	0.035648
1420.000000	0.035662
1419.000000	0.035614
1418.000000	0.035528
1417.000000	0.035486
1416.000000	0.035457
1415.000000	0.035376
1414.000000	0.035244
1413.000000	0.035088
1412.000000	0.034900
1411.000000	0.034664
1410.000000	0.034404
1409.000000	0.034168
1408.000000	0.033975
1407.000000	0.033802
1406.000000	0.033626
1405.000000	0.033429
1404.000000	0.033215
1403.000000	0.033018
1402.000000	0.032870
1401.000000	0.032757
1400.000000	0.032620
1399.000000	0.032423
1398.000000	0.032198
1397.000000	0.031980
1396.000000	0.031739
1395.000000	0.031447
1394.000000	0.031164
1393.000000	0.030964
1392.000000	0.030839
1391.000000	0.030717
1390.000000	0.030551
1389.000000	0.030333
1388.000000	0.030066
1387.000000	0.029775
1386.000000	0.029524
1385.000000	0.029350
1384.000000	0.029219
1383.000000	0.029087
1382.000000	0.028950
1381.000000	0.028830
1380.000000	0.028729
1379.000000	0.028629
1378.000000	0.028512
1377.000000	0.028370
1376.000000	0.028171
1375.000000	0.027880
1374.000000	0.027499
1373.000000	0.027087
1372.000000	0.026702
1371.000000	0.026365
1370.000000	0.026064
1369.000000	0.025773
1368.000000	0.025469
1367.000000	0.025153
1366.000000	0.024850
1365.000000	0.024573
1364.000000	0.024312
1363.000000	0.024054
1362.000000	0.023806
1361.000000	0.023585
1360.000000	0.023391
1359.000000	0.023218
1358.000000	0.023070
1357.000000	0.022950
1356.000000	0.022854
1355.000000	0.022779
1354.000000	0.022718
1353.000000	0.022666
1352.000000	0.022616
1351.000000	0.022569
1350.000000	0.022539
1349.000000	0.022533
1348.000000	0.022551
1347.000000	0.022592
1346.000000	0.022660
1345.000000	0.022748
1344.000000	0.022841
1343.000000	0.022934
1342.000000	0.023036
1341.000000	0.023153
1340.000000	0.023273
1339.000000	0.023387
1338.000000	0.023494
1337.000000	0.023586
1336.000000	0.023642
1335.000000	0.023646
1334.000000	0.023609
1333.000000	0.023545
1332.000000	0.023455
1331.000000	0.023334
1330.000000	0.023192
1329.000000	0.023046
1328.000000	0.022899
1327.000000	0.022744
1326.000000	0.022581
1325.000000	0.022414
1324.000000	0.022251
1323.000000	0.022101
1322.000000	0.021971
1321.000000	0.021859
1320.000000	0.021756
1319.000000	0.021659
1318.000000	0.021570
1317.000000	0.021484
1316.000000	0.021387
1315.000000	0.021267
1314.000000	0.021125
1313.000000	0.020969
1312.000000	0.020807
1311.000000	0.020645
1310.000000	0.020485
1309.000000	0.020322
1308.000000	0.020147
1307.000000	0.019971
1306.000000	0.019814
1305.000000	0.019684
1304.000000	0.019565
1303.000000	0.019435
1302.000000	0.019295
1301.000000	0.019155
1300.000000	0.019026
1299.000000	0.018908
1298.000000	0.018802
1297.000000	0.018703
1296.000000	0.018610
1295.000000	0.018531
1294.000000	0.018483
1293.000000	0.018466
1292.000000	0.018465
1291.000000	0.018471
1290.000000	0.018491
1289.000000	0.018534
1288.000000	0.018592
1287.000000	0.018645
1286.000000	0.018684
1285.000000	0.018710
1284.000000	0.018729
1283.000000	0.018747
1282.000000	0.018773
1281.000000	0.018814
1280.000000	0.018860
1279.000000	0.018899
1278.000000	0.018924
1277.000000	0.018945
1276.000000	0.018970
1275.000000	0.018999
1274.000000	0.019036
1273.000000	0.019084
1272.000000	0.019148
1271.000000	0.019229
1270.000000	0.019333
1269.000000	0.019462
1268.000000	0.019610
1267.000000	0.019770
1266.000000	0.019940
1265.000000	0.020122
1264.000000	0.020317
1263.000000	0.020519
1262.000000	0.020720
1261.000000	0.020919
1260.000000	0.021106
1259.000000	0.021282
1258.000000	0.021456
1257.000000	0.021642
1256.000000	0.021837
1255.000000	0.022024
1254.000000	0.022189
1253.000000	0.022330
1252.000000	0.022460
1251.000000	0.022596
1250.000000	0.022754
1249.000000	0.022939
1248.000000	0.023139
1247.000000	0.023338
1246.000000	0.023530
1245.000000	0.023712
1244.000000	0.023876
1243.000000	0.024020
1242.000000	0.024167
1241.000000	0.024338
1240.000000	0.024520
1239.000000	0.024671
1238.000000	0.024764
1237.000000	0.024807
1236.000000	0.024811
1235.000000	0.024772
1234.000000	0.024684
1233.000000	0.024556
1232.000000	0.024403
1231.000000	0.024229
1230.000000	0.024030
1229.000000	0.023802
1228.000000	0.023540
1227.000000	0.023234
1226.000000	0.022881
1225.000000	0.022494
1224.000000	0.022095
1223.000000	0.021698
1222.000000	0.021311
1221.000000	0.020940
1220.000000	0.020593
1219.000000	0.020277
1218.000000	0.019997
1217.000000	0.019756
1216.000000	0.019552
1215.000000	0.019383
1214.000000	0.019252
1213.000000	0.019160
1212.000000	0.019100
1211.000000	0.019068
1210.000000	0.019063
1209.000000	0.019089
1208.000000	0.019142
1207.000000	0.019209
1206.000000	0.019278
1205.000000	0.019345
1204.000000	0.019406
1203.000000	0.019451
1202.000000	0.019469
1201.000000	0.019460
1200.000000	0.019430
1199.000000	0.019381
1198.000000	0.019311
1197.000000	0.019221
1196.000000	0.019120
1195.000000	0.019020
1194.000000	0.018924
1193.000000	0.018830
1192.000000	0.018731
1191.000000	0.018622
1190.000000	0.018513
1189.000000	0.018424
1188.000000	0.018373
1187.000000	0.018354
1186.000000	0.018352
1185.000000	0.018354
1184.000000	0.018363
1183.000000	0.018386
1182.000000	0.018427
1181.000000	0.018490
1180.000000	0.018581
1179.000000	0.018697
1178.000000	0.018830
1177.000000	0.018974
1176.000000	0.019123
1175.000000	0.019276
1174.000000	0.019430
1173.000000	0.019585
1172.000000	0.019747
1171.000000	0.019915
1170.000000	0.020081
1169.000000	0.020236
1168.000000	0.020383
1167.000000	0.020533
1166.000000	0.020691
1165.000000	0.020846
1164.000000	0.020981
1163.000000	0.021078
1162.000000	0.021131
1161.000000	0.021139
1160.000000	0.021101
1159.000000	0.021019
1158.000000	0.020895
1157.000000	0.020735
1156.000000	0.020545
1155.000000	0.020332
1154.000000	0.020099
1153.000000	0.019840
1152.000000	0.019551
1151.000000	0.019244
1150.000000	0.018934
1149.000000	0.018622
1148.000000	0.018284
1147.000000	0.017905
1146.000000	0.017500
1145.000000	0.017111
1144.000000	0.016766
1143.000000	0.016463
1142.000000	0.016180
1141.000000	0.015900
1140.000000	0.015626
1139.000000	0.015375
1138.000000	0.015159
1137.000000	0.014976
1136.000000	0.014817
1135.000000	0.014672
1134.000000	0.014538
1133.000000	0.014413
1132.000000	0.014305
1131.000000	0.014226
1130.000000	0.014179
1129.000000	0.014160
1128.000000	0.014158
1127.000000	0.014172
1126.000000	0.014201
1125.000000	0.014239
1124.000000	0.014275
1123.000000	0.014301
1122.000000	0.014327
1121.000000	0.014372
1120.000000	0.014450
1119.000000	0.014558
1118.000000	0.014686
1117.000000	0.014830
1116.000000	0.014994
1115.000000	0.015183
1114.000000	0.015387
1113.000000	0.015586
1112.000000	0.015770
1111.000000	0.015933
1110.000000	0.016066
1109.000000	0.016151
1108.000000	0.016174
1107.000000	0.016149
1106.000000	0.016103
1105.000000	0.016064
1104.000000	0.016037
1103.000000	0.016023
1102.000000	0.016024
1101.000000	0.016043
1100.000000	0.016083
1099.000000	0.016138
1098.000000	0.016203
1097.000000	0.016272
1096.000000	0.016341
1095.000000	0.016409
1094.000000	0.016472
1093.000000	0.016518
1092.000000	0.016530
1091.000000	0.016505
1090.000000	0.016456
1089.000000	0.016409
1088.000000	0.016377
1087.000000	0.016357
1086.000000	0.016332
1085.000000	0.016286
1084.000000	0.016206
1083.000000	0.016090
1082.000000	0.015951
1081.000000	0.015808
1080.000000	0.015673
1079.000000	0.015538
1078.000000	0.015390
1077.000000	0.015218
1076.000000	0.015023
1075.000000	0.014820
1074.000000	0.014628
1073.000000	0.014469
1072.000000	0.014356
1071.000000	0.014286
1070.000000	0.014235
1069.000000	0.014180
1068.000000	0.014125
1067.000000	0.014102
1066.000000	0.014141
1065.000000	0.014236
1064.000000	0.014350
1063.000000	0.014450
1062.000000	0.014521
1061.000000	0.014550
1060.000000	0.014529
1059.000000	0.014466
1058.000000	0.014396
1057.000000	0.014347
1056.000000	0.014312
1055.000000	0.014260
1054.000000	0.014174
1053.000000	0.014063
1052.000000	0.013942
1051.000000	0.013819
1050.000000	0.013706
1049.000000	0.013624
1048.000000	0.013593
1047.000000	0.013604
1046.000000	0.013636
1045.000000	0.013672
1044.000000	0.013707
1043.000000	0.013745
1042.000000	0.013794
1041.000000	0.013866
1040.000000	0.013971
1039.000000	0.014115
1038.000000	0.014308
1037.000000	0.014563
1036.000000	0.014877
1035.000000	0.015212
1034.000000	0.015511
1033.000000	0.015734
1032.000000	0.015882
1031.000000	0.015966
1030.000000	0.015983
1029.000000	0.015932
1028.000000	0.015839
1027.000000	0.015747
1026.000000	0.015672
1025.000000	0.015592
1024.000000	0.015479
1023.000000	0.015339
1022.000000	0.015205
1021.000000	0.015096
1020.000000	0.015008
1019.000000	0.014929
1018.000000	0.014853
1017.000000	0.014777
1016.000000	0.014695
1015.000000	0.014604
1014.000000	0.014508
1013.000000	0.014404
1012.000000	0.014285
1011.000000	0.014146
1010.000000	0.013997
1009.000000	0.013842
1008.000000	0.013676
1007.000000	0.013491
1006.000000	0.013301
1005.000000	0.013133
1004.000000	0.013010
1003.000000	0.012925
1002.000000	0.012849
1001.000000	0.012749
1000.000000	0.012614
999.000000	0.012455
998.000000	0.012292
997.000000	0.012135
996.000000	0.011976
995.000000	0.011813
994.000000	0.011659
993.000000	0.011539
992.000000	0.011456
991.000000	0.011392
990.000000	0.011315
989.000000	0.011211
988.000000	0.011088
987.000000	0.010963
986.000000	0.010852
985.000000	0.010762
984.000000	0.010689
983.000000	0.010629
982.000000	0.010576
981.000000	0.010529
980.000000	0.010491
979.000000	0.010468
978.000000	0.010469
977.000000	0.010500
976.000000	0.010559
975.000000	0.010633
974.000000	0.010698
973.000000	0.010728
972.000000	0.010710
971.000000	0.010646
970.000000	0.010551
969.000000	0.010448
968.000000	0.010355
967.000000	0.010276
966.000000	0.010199
965.000000	0.010110
964.000000	0.010009
963.000000	0.009906
962.000000	0.009810
961.000000	0.009720
960.000000	0.009631
959.000000	0.009541
958.000000	0.009450
957.000000	0.009352
956.000000	0.009248
955.000000	0.009148
954.000000	0.009060
953.000000	0.008977
952.000000	0.008885
951.000000	0.008777
950.000000	0.008667
949.000000	0.008566
948.000000	0.008475
947.000000	0.008390
946.000000	0.008314
945.000000	0.008258
944.000000	0.008222
943.000000	0.008187
942.000000	0.008134
941.000000	0.008060
940.000000	0.007982
939.000000	0.007915
938.000000	0.007860
937.000000	0.007810
936.000000	0.007758
935.000000	0.007699
934.000000	0.007628
933.000000	0.007547
932.000000	0.007470
931.000000	0.007411
930.000000	0.007367
929.000000	0.007323
928.000000	0.007266
927.000000	0.007198
926.000000	0.007123
925.000000	0.007040
924.000000	0.006953
923.000000	0.006873
922.000000	0.006808
921.000000	0.006749
920.000000	0.006680
919.000000	0.006600
918.000000	0.006516
917.000000	0.006431
916.000000	0.006341
915.000000	0.006250
914.000000	0.006172
913.000000	0.006108
912.000000	0.006040
911.000000	0.005948
910.000000	0.005837
909.000000	0.005735
908.000000	0.005661
907.000000	0.005606
906.000000	0.005548
905.000000	0.005472
904.000000	0.005379
903.000000	0.005274
902.000000	0.005168
901.000000	0.005075
900.000000	0.005011
899.000000	0.004978
898.000000	0.004957
897.000000	0.004931
896.000000	0.004895
895.000000	0.004853
894.000000	0.004808
893.000000	0.004763
892.000000	0.004727
891.000000	0.004721
890.000000	0.004766
889.000000	0.004887
888.000000	0.005121
887.000000	0.005510
886.000000	0.006072
885.000000	0.006778
884.000000	0.007570
883.000000	0.008405
882.000000	0.009298
881.000000	0.010312
880.000000	0.011507
879.000000	0.012872
878.000000	0.014290
877.000000	0.015565
876.000000	0.016505
875.000000	0.016989
874.000000	0.017000
873.000000	0.016580
872.000000	0.015792
871.000000	0.014714
870.000000	0.013478
869.000000	0.012243
868.000000	0.011134
867.000000	0.010206
866.000000	0.009455
865.000000	0.008850
864.000000	0.008355
863.000000	0.007937
862.000000	0.007583
861.000000	0.007297
860.000000	0.007079
859.000000	0.006905
858.000000	0.006738
857.000000	0.006564
856.000000	0.006393
855.000000	0.006250
854.000000	0.006152
853.000000	0.006103
852.000000	0.006100
851.000000	0.006134
850.000000	0.006193
849.000000	0.006261
848.000000	0.006304
847.000000	0.006278
846.000000	0.006171
845.000000	0.006023
844.000000	0.005885
843.000000	0.005774
842.000000	0.005677
841.000000	0.005592
840.000000	0.005531
839.000000	0.005488
838.000000	0.005435
837.000000	0.005362
836.000000	0.005292
835.000000	0.005250
834.000000	0.005232
833.000000	0.005224
832.000000	0.005223
831.000000	0.005222
830.000000	0.005197
829.000000	0.005132
828.000000	0.005051
827.000000	0.004989
826.000000	0.004949
825.000000	0.004910
824.000000	0.004868
823.000000	0.004842
822.000000	0.004843
821.000000	0.004856
820.000000	0.004857
819.000000	0.004842
818.000000	0.004818
817.000000	0.004800
816.000000	0.004797
815.000000	0.004815
814.000000	0.004843
813.000000	0.004865
812.000000	0.004875
811.000000	0.004877
810.000000	0.004873
809.000000	0.004858
808.000000	0.004832
807.000000	0.004801
806.000000	0.004783
805.000000	0.004791
804.000000	0.004826
803.000000	0.004873
802.000000	0.004919
801.000000	0.004959
800.000000	0.004987
799.000000	0.004991
798.000000	0.004959
797.000000	0.004900
796.000000	0.004849
795.000000	0.004831
794.000000	0.004848
793.000000	0.004893
792.000000	0.004955
791.000000	0.005010
790.000000	0.005032
789.000000	0.005024
788.000000	0.005029
787.000000	0.005066
786.000000	0.005096
785.000000	0.005076
784.000000	0.005028
783.000000	0.005020
782.000000	0.005079
781.000000	0.005158
780.000000	0.005201
779.000000	0.005199
778.000000	0.005184
777.000000	0.005178
776.000000	0.005177
775.000000	0.005177
774.000000	0.005180
773.000000	0.005187
772.000000	0.005185
771.000000	0.005158
770.000000	0.005118
769.000000	0.005102
768.000000	0.005144
767.000000	0.005234
766.000000	0.005331
765.000000	0.005398
764.000000	0.005434
763.000000	0.005453
762.000000	0.005469
761.000000	0.005496
760.000000	0.005552
759.000000	0.005631
758.000000	0.005696
757.000000	0.005717
756.000000	0.005706
755.000000	0.005698
754.000000	0.005714
753.000000	0.005754
752.000000	0.005811
751.000000	0.005868
750.000000	0.005889
749.000000	0.005859
748.000000	0.005816
747.000000	0.005814
746.000000	0.005862
745.000000	0.005918
744.000000	0.005958
743.000000	0.006003
742.000000	0.006077
741.000000	0.006168
740.000000	0.006243
739.000000	0.006285
738.000000	0.006300
737.000000	0.006301
736.000000	0.006308
735.000000	0.006341
734.000000	0.006406
733.000000	0.006489
732.000000	0.006578
731.000000	0.006668
730.000000	0.006746
729.000000	0.006805
728.000000	0.006860
727.000000	0.006935
726.000000	0.007033
725.000000	0.007143
724.000000	0.007263
723.000000	0.007406
722.000000	0.007568
721.000000	0.007729
720.000000	0.007881
719.000000	0.008053
718.000000	0.008310
717.000000	0.008722
716.000000	0.009346
715.000000	0.010164
714.000000	0.011013
713.000000	0.011634
712.000000	0.011834
711.000000	0.011628
710.000000	0.011191
709.000000	0.010726
708.000000	0.010362
707.000000	0.010150
706.000000	0.010075
705.000000	0.010075
704.000000	0.010075
703.000000	0.010048
702.000000	0.010011
701.000000	0.009992
700.000000	0.009992
699.000000	0.010000
698.000000	0.010012
697.000000	0.010029
696.000000	0.010054
695.000000	0.010087
694.000000	0.010120
693.000000	0.010137
692.000000	0.010140
691.000000	0.010143
690.000000	0.010148
689.000000	0.010137
688.000000	0.010107
687.000000	0.010102
686.000000	0.010157
685.000000	0.010241
684.000000	0.010302
683.000000	0.010330
682.000000	0.010355
681.000000	0.010397
680.000000	0.010469
679.000000	0.010578
678.000000	0.010702
677.000000	0.010812
676.000000	0.010889
675.000000	0.010934
674.000000	0.010952
673.000000	0.010937
672.000000	0.010882
671.000000	0.010771
670.000000	0.010604
669.000000	0.010409
668.000000	0.010402
667.000000	0.010645
666.000000	0.010803
665.000000	0.010863
664.000000	0.010944
663.000000	0.010995
662.000000	0.010974
661.000000	0.010906
660.000000	0.010854
659.000000	0.010825
658.000000	0.010798
657.000000	0.010807
656.000000	0.010886
655.000000	0.010999
654.000000	0.011100
653.000000	0.011201
652.000000	0.011310
651.000000	0.011398
650.000000	0.011449
649.000000	0.011500
648.000000	0.011579
647.000000	0.011663
646.000000	0.011759
645.000000	0.011905
644.000000	0.012097
643.000000	0.012269
642.000000	0.012380
641.000000	0.012472
640.000000	0.012586
639.000000	0.012693
638.000000	0.012750
637.000000	0.012775
636.000000	0.012800
635.000000	0.012821
634.000000	0.012824
633.000000	0.012810
632.000000	0.012781
631.000000	0.012720
630.000000	0.012638
629.000000	0.012580
628.000000	0.012566
627.000000	0.012569
626.000000	0.012582
625.000000	0.012641
624.000000	0.012766
623.000000	0.012927
622.000000	0.013085
621.000000	0.013227
620.000000	0.013337
619.000000	0.013384
618.000000	0.013372
617.000000	0.013351
616.000000	0.013367
615.000000	0.013422
614.000000	0.013514
613.000000	0.013654
612.000000	0.013811
611.000000	0.013913
610.000000	0.013922
609.000000	0.013874
608.000000	0.013812
607.000000	0.013741
606.000000	0.013676
605.000000	0.013643
604.000000	0.013623
603.000000	0.013537
602.000000	0.013344
601.000000	0.013100
600.000000	0.012888
599.000000	0.012735
598.000000	0.012632
597.000000	0.012568
596.000000	0.012515
595.000000	0.012413
594.000000	0.012237
593.000000	0.012042
592.000000	0.011904
591.000000	0.011831
590.000000	0.011788
589.000000	0.011747
588.000000	0.011698
587.000000	0.011629
586.000000	0.011560
585.000000	0.011548
584.000000	0.011609
583.000000	0.011662
582.000000	0.011626
581.000000	0.011524
580.000000	0.011451
579.000000	0.011448
578.000000	0.011465
577.000000	0.011448
576.000000	0.011391
575.000000	0.011328
574.000000	0.011308
573.000000	0.011380
572.000000	0.011550
571.000000	0.011755
570.000000	0.011911
569.000000	0.011983
568.000000	0.011986
567.000000	0.011953
566.000000	0.011925
565.000000	0.011947
564.000000	0.012015
563.000000	0.012055
562.000000	0.012023
561.000000	0.011980
560.000000	0.012012
559.000000	0.012103
558.000000	0.012152
557.000000	0.012112
556.000000	0.012032
555.000000	0.011976
554.000000	0.011964
553.000000	0.011996
552.000000	0.012057
551.000000	0.012090
550.000000	0.012021
549.000000	0.011857
548.000000	0.011693
547.000000	0.011620
546.000000	0.011644
545.000000	0.011698
544.000000	0.011706
543.000000	0.011638
542.000000	0.011531
541.000000	0.011476
540.000000	0.011535
539.000000	0.011680
538.000000	0.011832
537.000000	0.011950
536.000000	0.012057
535.000000	0.012156
534.000000	0.012206
533.000000	0.012195
532.000000	0.012190
531.000000	0.012272
530.000000	0.012426
529.000000	0.012535
528.000000	0.012494
527.000000	0.012324
526.000000	0.012167
525.000000	0.012137
524.000000	0.012191
523.000000	0.012199
522.000000	0.012095
521.000000	0.011923
520.000000	0.011738
519.000000	0.011550
518.000000	0.011359
517.000000	0.011192
516.000000	0.011068
515.000000	0.010969
514.000000	0.010868
513.000000	0.010743
512.000000	0.010565
511.000000	0.010326
510.000000	0.010101
509.000000	0.010011
508.000000	0.010086
507.000000	0.010215
506.000000	0.010265
505.000000	0.010223
504.000000	0.010167
503.000000	0.010149
502.000000	0.010157
501.000000	0.010131
500.000000	0.009997
499.000000	0.009730
498.000000	0.009409
497.000000	0.009184
496.000000	0.009131
495.000000	0.009184
494.000000	0.009229
493.000000	0.009190
492.000000	0.009011
491.000000	0.008665
490.000000	0.008253
489.000000	0.007991
488.000000	0.007992
487.000000	0.008138
486.000000	0.008235
485.000000	0.008248
484.000000	0.008290
483.000000	0.008403
482.000000	0.008509
481.000000	0.008559
480.000000	0.008585
479.000000	0.008583
478.000000	0.008493
477.000000	0.008307
476.000000	0.008133
475.000000	0.008068
474.000000	0.008100
473.000000	0.008143
472.000000	0.008136
471.000000	0.008089
470.000000	0.008030
469.000000	0.007965
468.000000	0.007868
467.000000	0.007717
466.000000	0.007523
465.000000	0.007304
464.000000	0.007042
463.000000	0.006708
462.000000	0.006365
461.000000	0.006147
460.000000	0.006082
459.000000	0.006051
458.000000	0.005881
457.000000	0.005684
456.000000	0.005672
455.000000	0.005729
454.000000	0.005829
453.000000	0.005743
452.000000	0.005396
451.000000	0.004933
450.000000	0.004581
