PE IR       SUBTECH     SPECTRUM    ASCII       PEDS        4.00        
   -1
Peau030_1.ASC
23/06/14
15:11:44.00
23/06/14
15:12:57.00
uco
Sample 030 By uco Date Wednesday, June 14 2023
450.000000
#HDR
-1
-1
#GR
cm-1
A
1.0
0.0
4000.000000
-1.000000
3551
8
0.041076
0.004950
#DATA
4000.000000	0.005181
3999.000000	0.005185
3998.000000	0.005186
3997.000000	0.005186
3996.000000	0.005187
3995.000000	0.005189
3994.000000	0.005194
3993.000000	0.005205
3992.000000	0.005220
3991.000000	0.005236
3990.000000	0.005247
3989.000000	0.005249
3988.000000	0.005238
3987.000000	0.005216
3986.000000	0.005187
3985.000000	0.005158
3984.000000	0.005142
3983.000000	0.005146
3982.000000	0.005171
3981.000000	0.005210
3980.000000	0.005247
3979.000000	0.005275
3978.000000	0.005289
3977.000000	0.005294
3976.000000	0.005293
3975.000000	0.005288
3974.000000	0.005283
3973.000000	0.005281
3972.000000	0.005283
3971.000000	0.005289
3970.000000	0.005296
3969.000000	0.005299
3968.000000	0.005298
3967.000000	0.005298
3966.000000	0.005301
3965.000000	0.005305
3964.000000	0.005308
3963.000000	0.005311
3962.000000	0.005313
3961.000000	0.005318
3960.000000	0.005328
3959.000000	0.005341
3958.000000	0.005354
3957.000000	0.005360
3956.000000	0.005356
3955.000000	0.005342
3954.000000	0.005324
3953.000000	0.005312
3952.000000	0.005308
3951.000000	0.005314
3950.000000	0.005328
3949.000000	0.005348
3948.000000	0.005369
3947.000000	0.005388
3946.000000	0.005400
3945.000000	0.005408
3944.000000	0.005408
3943.000000	0.005400
3942.000000	0.005386
3941.000000	0.005371
3940.000000	0.005364
3939.000000	0.005367
3938.000000	0.005377
3937.000000	0.005390
3936.000000	0.005401
3935.000000	0.005405
3934.000000	0.005402
3933.000000	0.005393
3932.000000	0.005383
3931.000000	0.005377
3930.000000	0.005375
3929.000000	0.005374
3928.000000	0.005372
3927.000000	0.005372
3926.000000	0.005377
3925.000000	0.005388
3924.000000	0.005405
3923.000000	0.005425
3922.000000	0.005441
3921.000000	0.005450
3920.000000	0.005451
3919.000000	0.005451
3918.000000	0.005454
3917.000000	0.005462
3916.000000	0.005473
3915.000000	0.005483
3914.000000	0.005487
3913.000000	0.005484
3912.000000	0.005470
3911.000000	0.005444
3910.000000	0.005412
3909.000000	0.005382
3908.000000	0.005366
3907.000000	0.005371
3906.000000	0.005390
3905.000000	0.005404
3904.000000	0.005399
3903.000000	0.005377
3902.000000	0.005355
3901.000000	0.005349
3900.000000	0.005361
3899.000000	0.005381
3898.000000	0.005401
3897.000000	0.005418
3896.000000	0.005433
3895.000000	0.005448
3894.000000	0.005459
3893.000000	0.005458
3892.000000	0.005435
3891.000000	0.005396
3890.000000	0.005368
3889.000000	0.005371
3888.000000	0.005404
3887.000000	0.005444
3886.000000	0.005466
3885.000000	0.005460
3884.000000	0.005441
3883.000000	0.005420
3882.000000	0.005405
3881.000000	0.005397
3880.000000	0.005404
3879.000000	0.005432
3878.000000	0.005474
3877.000000	0.005517
3876.000000	0.005546
3875.000000	0.005557
3874.000000	0.005558
3873.000000	0.005562
3872.000000	0.005567
3871.000000	0.005556
3870.000000	0.005518
3869.000000	0.005468
3868.000000	0.005433
3867.000000	0.005415
3866.000000	0.005399
3865.000000	0.005376
3864.000000	0.005357
3863.000000	0.005358
3862.000000	0.005381
3861.000000	0.005415
3860.000000	0.005451
3859.000000	0.005488
3858.000000	0.005527
3857.000000	0.005561
3856.000000	0.005581
3855.000000	0.005573
3854.000000	0.005540
3853.000000	0.005502
3852.000000	0.005478
3851.000000	0.005472
3850.000000	0.005481
3849.000000	0.005500
3848.000000	0.005528
3847.000000	0.005556
3846.000000	0.005578
3845.000000	0.005584
3844.000000	0.005574
3843.000000	0.005554
3842.000000	0.005538
3841.000000	0.005535
3840.000000	0.005546
3839.000000	0.005557
3838.000000	0.005554
3837.000000	0.005532
3836.000000	0.005499
3835.000000	0.005468
3834.000000	0.005453
3833.000000	0.005459
3832.000000	0.005482
3831.000000	0.005515
3830.000000	0.005547
3829.000000	0.005568
3828.000000	0.005571
3827.000000	0.005558
3826.000000	0.005542
3825.000000	0.005540
3824.000000	0.005557
3823.000000	0.005577
3822.000000	0.005579
3821.000000	0.005562
3820.000000	0.005549
3819.000000	0.005559
3818.000000	0.005582
3817.000000	0.005595
3816.000000	0.005586
3815.000000	0.005567
3814.000000	0.005555
3813.000000	0.005549
3812.000000	0.005537
3811.000000	0.005518
3810.000000	0.005501
3809.000000	0.005498
3808.000000	0.005507
3807.000000	0.005518
3806.000000	0.005527
3805.000000	0.005542
3804.000000	0.005564
3803.000000	0.005575
3802.000000	0.005557
3801.000000	0.005512
3800.000000	0.005470
3799.000000	0.005451
3798.000000	0.005455
3797.000000	0.005471
3796.000000	0.005491
3795.000000	0.005511
3794.000000	0.005529
3793.000000	0.005546
3792.000000	0.005567
3791.000000	0.005594
3790.000000	0.005621
3789.000000	0.005634
3788.000000	0.005624
3787.000000	0.005592
3786.000000	0.005556
3785.000000	0.005533
3784.000000	0.005530
3783.000000	0.005542
3782.000000	0.005557
3781.000000	0.005568
3780.000000	0.005575
3779.000000	0.005583
3778.000000	0.005593
3777.000000	0.005598
3776.000000	0.005594
3775.000000	0.005579
3774.000000	0.005559
3773.000000	0.005544
3772.000000	0.005539
3771.000000	0.005543
3770.000000	0.005548
3769.000000	0.005552
3768.000000	0.005553
3767.000000	0.005553
3766.000000	0.005553
3765.000000	0.005556
3764.000000	0.005570
3763.000000	0.005595
3762.000000	0.005618
3761.000000	0.005625
3760.000000	0.005614
3759.000000	0.005598
3758.000000	0.005594
3757.000000	0.005604
3756.000000	0.005615
3755.000000	0.005611
3754.000000	0.005586
3753.000000	0.005547
3752.000000	0.005520
3751.000000	0.005518
3750.000000	0.005526
3749.000000	0.005519
3748.000000	0.005498
3747.000000	0.005479
3746.000000	0.005473
3745.000000	0.005480
3744.000000	0.005491
3743.000000	0.005496
3742.000000	0.005493
3741.000000	0.005485
3740.000000	0.005478
3739.000000	0.005478
3738.000000	0.005483
3737.000000	0.005479
3736.000000	0.005444
3735.000000	0.005384
3734.000000	0.005334
3733.000000	0.005328
3732.000000	0.005360
3731.000000	0.005404
3730.000000	0.005441
3729.000000	0.005467
3728.000000	0.005484
3727.000000	0.005491
3726.000000	0.005491
3725.000000	0.005493
3724.000000	0.005502
3723.000000	0.005515
3722.000000	0.005532
3721.000000	0.005551
3720.000000	0.005568
3719.000000	0.005573
3718.000000	0.005559
3717.000000	0.005533
3716.000000	0.005508
3715.000000	0.005489
3714.000000	0.005470
3713.000000	0.005447
3712.000000	0.005425
3711.000000	0.005412
3710.000000	0.005405
3709.000000	0.005395
3708.000000	0.005374
3707.000000	0.005348
3706.000000	0.005326
3705.000000	0.005315
3704.000000	0.005318
3703.000000	0.005333
3702.000000	0.005349
3701.000000	0.005356
3700.000000	0.005351
3699.000000	0.005344
3698.000000	0.005348
3697.000000	0.005370
3696.000000	0.005405
3695.000000	0.005434
3694.000000	0.005427
3693.000000	0.005368
3692.000000	0.005265
3691.000000	0.005157
3690.000000	0.005091
3689.000000	0.005085
3688.000000	0.005116
3687.000000	0.005153
3686.000000	0.005184
3685.000000	0.005211
3684.000000	0.005242
3683.000000	0.005276
3682.000000	0.005306
3681.000000	0.005319
3680.000000	0.005304
3679.000000	0.005263
3678.000000	0.005212
3677.000000	0.005170
3676.000000	0.005151
3675.000000	0.005157
3674.000000	0.005176
3673.000000	0.005192
3672.000000	0.005193
3671.000000	0.005174
3670.000000	0.005149
3669.000000	0.005143
3668.000000	0.005168
3667.000000	0.005214
3666.000000	0.005263
3665.000000	0.005299
3664.000000	0.005320
3663.000000	0.005327
3662.000000	0.005332
3661.000000	0.005346
3660.000000	0.005376
3659.000000	0.005419
3658.000000	0.005462
3657.000000	0.005487
3656.000000	0.005481
3655.000000	0.005455
3654.000000	0.005429
3653.000000	0.005419
3652.000000	0.005435
3651.000000	0.005477
3650.000000	0.005540
3649.000000	0.005605
3648.000000	0.005652
3647.000000	0.005685
3646.000000	0.005718
3645.000000	0.005753
3644.000000	0.005786
3643.000000	0.005811
3642.000000	0.005830
3641.000000	0.005852
3640.000000	0.005883
3639.000000	0.005922
3638.000000	0.005960
3637.000000	0.005985
3636.000000	0.005989
3635.000000	0.005966
3634.000000	0.005931
3633.000000	0.005915
3632.000000	0.005945
3631.000000	0.006030
3630.000000	0.006138
3629.000000	0.006211
3628.000000	0.006214
3627.000000	0.006177
3626.000000	0.006147
3625.000000	0.006139
3624.000000	0.006143
3623.000000	0.006144
3622.000000	0.006138
3621.000000	0.006143
3620.000000	0.006182
3619.000000	0.006256
3618.000000	0.006338
3617.000000	0.006394
3616.000000	0.006415
3615.000000	0.006413
3614.000000	0.006409
3613.000000	0.006417
3612.000000	0.006443
3611.000000	0.006480
3610.000000	0.006518
3609.000000	0.006552
3608.000000	0.006584
3607.000000	0.006620
3606.000000	0.006658
3605.000000	0.006692
3604.000000	0.006708
3603.000000	0.006704
3602.000000	0.006694
3601.000000	0.006694
3600.000000	0.006714
3599.000000	0.006745
3598.000000	0.006775
3597.000000	0.006807
3596.000000	0.006850
3595.000000	0.006905
3594.000000	0.006955
3593.000000	0.006988
3592.000000	0.007005
3591.000000	0.007021
3590.000000	0.007049
3589.000000	0.007093
3588.000000	0.007150
3587.000000	0.007203
3586.000000	0.007242
3585.000000	0.007266
3584.000000	0.007286
3583.000000	0.007310
3582.000000	0.007340
3581.000000	0.007378
3580.000000	0.007423
3579.000000	0.007474
3578.000000	0.007528
3577.000000	0.007577
3576.000000	0.007610
3575.000000	0.007621
3574.000000	0.007621
3573.000000	0.007627
3572.000000	0.007651
3571.000000	0.007687
3570.000000	0.007724
3569.000000	0.007759
3568.000000	0.007798
3567.000000	0.007851
3566.000000	0.007914
3565.000000	0.007972
3564.000000	0.008020
3563.000000	0.008056
3562.000000	0.008086
3561.000000	0.008117
3560.000000	0.008148
3559.000000	0.008180
3558.000000	0.008211
3557.000000	0.008247
3556.000000	0.008292
3555.000000	0.008348
3554.000000	0.008406
3553.000000	0.008460
3552.000000	0.008502
3551.000000	0.008529
3550.000000	0.008543
3549.000000	0.008551
3548.000000	0.008563
3547.000000	0.008584
3546.000000	0.008611
3545.000000	0.008641
3544.000000	0.008674
3543.000000	0.008713
3542.000000	0.008754
3541.000000	0.008791
3540.000000	0.008823
3539.000000	0.008860
3538.000000	0.008910
3537.000000	0.008967
3536.000000	0.009015
3535.000000	0.009042
3534.000000	0.009050
3533.000000	0.009049
3532.000000	0.009050
3531.000000	0.009054
3530.000000	0.009065
3529.000000	0.009084
3528.000000	0.009114
3527.000000	0.009154
3526.000000	0.009197
3525.000000	0.009240
3524.000000	0.009284
3523.000000	0.009328
3522.000000	0.009371
3521.000000	0.009407
3520.000000	0.009435
3519.000000	0.009458
3518.000000	0.009483
3517.000000	0.009514
3516.000000	0.009549
3515.000000	0.009584
3514.000000	0.009617
3513.000000	0.009651
3512.000000	0.009687
3511.000000	0.009726
3510.000000	0.009766
3509.000000	0.009805
3508.000000	0.009839
3507.000000	0.009866
3506.000000	0.009884
3505.000000	0.009899
3504.000000	0.009918
3503.000000	0.009946
3502.000000	0.009977
3501.000000	0.010001
3500.000000	0.010008
3499.000000	0.010003
3498.000000	0.010003
3497.000000	0.010025
3496.000000	0.010075
3495.000000	0.010141
3494.000000	0.010207
3493.000000	0.010262
3492.000000	0.010306
3491.000000	0.010344
3490.000000	0.010384
3489.000000	0.010426
3488.000000	0.010466
3487.000000	0.010497
3486.000000	0.010514
3485.000000	0.010520
3484.000000	0.010522
3483.000000	0.010522
3482.000000	0.010526
3481.000000	0.010542
3480.000000	0.010579
3479.000000	0.010635
3478.000000	0.010697
3477.000000	0.010752
3476.000000	0.010795
3475.000000	0.010826
3474.000000	0.010848
3473.000000	0.010862
3472.000000	0.010873
3471.000000	0.010887
3470.000000	0.010911
3469.000000	0.010942
3468.000000	0.010969
3467.000000	0.010979
3466.000000	0.010970
3465.000000	0.010958
3464.000000	0.010963
3463.000000	0.010992
3462.000000	0.011037
3461.000000	0.011080
3460.000000	0.011114
3459.000000	0.011144
3458.000000	0.011180
3457.000000	0.011222
3456.000000	0.011262
3455.000000	0.011291
3454.000000	0.011312
3453.000000	0.011334
3452.000000	0.011363
3451.000000	0.011396
3450.000000	0.011427
3449.000000	0.011453
3448.000000	0.011478
3447.000000	0.011506
3446.000000	0.011539
3445.000000	0.011576
3444.000000	0.011615
3443.000000	0.011652
3442.000000	0.011684
3441.000000	0.011711
3440.000000	0.011739
3439.000000	0.011773
3438.000000	0.011811
3437.000000	0.011847
3436.000000	0.011872
3435.000000	0.011882
3434.000000	0.011884
3433.000000	0.011889
3432.000000	0.011911
3431.000000	0.011952
3430.000000	0.012000
3429.000000	0.012041
3428.000000	0.012070
3427.000000	0.012098
3426.000000	0.012138
3425.000000	0.012192
3424.000000	0.012249
3423.000000	0.012300
3422.000000	0.012346
3421.000000	0.012385
3420.000000	0.012416
3419.000000	0.012438
3418.000000	0.012456
3417.000000	0.012476
3416.000000	0.012500
3415.000000	0.012526
3414.000000	0.012552
3413.000000	0.012587
3412.000000	0.012633
3411.000000	0.012681
3410.000000	0.012720
3409.000000	0.012748
3408.000000	0.012777
3407.000000	0.012818
3406.000000	0.012870
3405.000000	0.012921
3404.000000	0.012959
3403.000000	0.012984
3402.000000	0.013008
3401.000000	0.013041
3400.000000	0.013082
3399.000000	0.013117
3398.000000	0.013139
3397.000000	0.013151
3396.000000	0.013166
3395.000000	0.013187
3394.000000	0.013211
3393.000000	0.013234
3392.000000	0.013258
3391.000000	0.013283
3390.000000	0.013312
3389.000000	0.013341
3388.000000	0.013372
3387.000000	0.013404
3386.000000	0.013440
3385.000000	0.013480
3384.000000	0.013521
3383.000000	0.013556
3382.000000	0.013574
3381.000000	0.013579
3380.000000	0.013584
3379.000000	0.013608
3378.000000	0.013659
3377.000000	0.013731
3376.000000	0.013806
3375.000000	0.013870
3374.000000	0.013915
3373.000000	0.013943
3372.000000	0.013966
3371.000000	0.013997
3370.000000	0.014040
3369.000000	0.014091
3368.000000	0.014142
3367.000000	0.014188
3366.000000	0.014225
3365.000000	0.014254
3364.000000	0.014284
3363.000000	0.014328
3362.000000	0.014388
3361.000000	0.014458
3360.000000	0.014527
3359.000000	0.014589
3358.000000	0.014648
3357.000000	0.014707
3356.000000	0.014763
3355.000000	0.014812
3354.000000	0.014853
3353.000000	0.014883
3352.000000	0.014904
3351.000000	0.014926
3350.000000	0.014968
3349.000000	0.015039
3348.000000	0.015136
3347.000000	0.015240
3346.000000	0.015335
3345.000000	0.015413
3344.000000	0.015476
3343.000000	0.015528
3342.000000	0.015571
3341.000000	0.015608
3340.000000	0.015646
3339.000000	0.015693
3338.000000	0.015751
3337.000000	0.015813
3336.000000	0.015870
3335.000000	0.015920
3334.000000	0.015968
3333.000000	0.016018
3332.000000	0.016069
3331.000000	0.016118
3330.000000	0.016163
3329.000000	0.016203
3328.000000	0.016238
3327.000000	0.016273
3326.000000	0.016310
3325.000000	0.016355
3324.000000	0.016408
3323.000000	0.016470
3322.000000	0.016535
3321.000000	0.016595
3320.000000	0.016641
3319.000000	0.016672
3318.000000	0.016696
3317.000000	0.016718
3316.000000	0.016743
3315.000000	0.016772
3314.000000	0.016807
3313.000000	0.016847
3312.000000	0.016884
3311.000000	0.016909
3310.000000	0.016917
3309.000000	0.016913
3308.000000	0.016908
3307.000000	0.016915
3306.000000	0.016941
3305.000000	0.016985
3304.000000	0.017037
3303.000000	0.017090
3302.000000	0.017143
3301.000000	0.017195
3300.000000	0.017243
3299.000000	0.017280
3298.000000	0.017300
3297.000000	0.017304
3296.000000	0.017297
3295.000000	0.017288
3294.000000	0.017285
3293.000000	0.017293
3292.000000	0.017312
3291.000000	0.017337
3290.000000	0.017362
3289.000000	0.017384
3288.000000	0.017397
3287.000000	0.017400
3286.000000	0.017396
3285.000000	0.017392
3284.000000	0.017389
3283.000000	0.017387
3282.000000	0.017378
3281.000000	0.017359
3280.000000	0.017332
3279.000000	0.017302
3278.000000	0.017274
3277.000000	0.017253
3276.000000	0.017237
3275.000000	0.017225
3274.000000	0.017214
3273.000000	0.017199
3272.000000	0.017180
3271.000000	0.017156
3270.000000	0.017135
3269.000000	0.017122
3268.000000	0.017116
3267.000000	0.017111
3266.000000	0.017099
3265.000000	0.017082
3264.000000	0.017059
3263.000000	0.017027
3262.000000	0.016985
3261.000000	0.016938
3260.000000	0.016894
3259.000000	0.016863
3258.000000	0.016842
3257.000000	0.016825
3256.000000	0.016808
3255.000000	0.016790
3254.000000	0.016768
3253.000000	0.016739
3252.000000	0.016698
3251.000000	0.016647
3250.000000	0.016597
3249.000000	0.016554
3248.000000	0.016520
3247.000000	0.016491
3246.000000	0.016468
3245.000000	0.016455
3244.000000	0.016453
3243.000000	0.016460
3242.000000	0.016469
3241.000000	0.016471
3240.000000	0.016454
3239.000000	0.016416
3238.000000	0.016362
3237.000000	0.016307
3236.000000	0.016264
3235.000000	0.016236
3234.000000	0.016217
3233.000000	0.016197
3232.000000	0.016166
3231.000000	0.016125
3230.000000	0.016085
3229.000000	0.016054
3228.000000	0.016034
3227.000000	0.016017
3226.000000	0.016001
3225.000000	0.015989
3224.000000	0.015983
3223.000000	0.015979
3222.000000	0.015967
3221.000000	0.015942
3220.000000	0.015906
3219.000000	0.015869
3218.000000	0.015838
3217.000000	0.015815
3216.000000	0.015793
3215.000000	0.015770
3214.000000	0.015744
3213.000000	0.015719
3212.000000	0.015696
3211.000000	0.015673
3210.000000	0.015650
3209.000000	0.015631
3208.000000	0.015618
3207.000000	0.015606
3206.000000	0.015587
3205.000000	0.015554
3204.000000	0.015509
3203.000000	0.015462
3202.000000	0.015422
3201.000000	0.015394
3200.000000	0.015377
3199.000000	0.015366
3198.000000	0.015357
3197.000000	0.015349
3196.000000	0.015339
3195.000000	0.015321
3194.000000	0.015286
3193.000000	0.015231
3192.000000	0.015168
3191.000000	0.015112
3190.000000	0.015079
3189.000000	0.015070
3188.000000	0.015069
3187.000000	0.015055
3186.000000	0.015016
3185.000000	0.014959
3184.000000	0.014906
3183.000000	0.014873
3182.000000	0.014859
3181.000000	0.014845
3180.000000	0.014815
3179.000000	0.014766
3178.000000	0.014711
3177.000000	0.014665
3176.000000	0.014633
3175.000000	0.014608
3174.000000	0.014579
3173.000000	0.014540
3172.000000	0.014495
3171.000000	0.014453
3170.000000	0.014414
3169.000000	0.014375
3168.000000	0.014327
3167.000000	0.014271
3166.000000	0.014213
3165.000000	0.014161
3164.000000	0.014118
3163.000000	0.014084
3162.000000	0.014057
3161.000000	0.014035
3160.000000	0.014014
3159.000000	0.013990
3158.000000	0.013958
3157.000000	0.013920
3156.000000	0.013883
3155.000000	0.013851
3154.000000	0.013825
3153.000000	0.013801
3152.000000	0.013774
3151.000000	0.013742
3150.000000	0.013706
3149.000000	0.013665
3148.000000	0.013621
3147.000000	0.013580
3146.000000	0.013547
3145.000000	0.013525
3144.000000	0.013512
3143.000000	0.013503
3142.000000	0.013490
3141.000000	0.013465
3140.000000	0.013428
3139.000000	0.013386
3138.000000	0.013349
3137.000000	0.013324
3136.000000	0.013304
3135.000000	0.013281
3134.000000	0.013255
3133.000000	0.013237
3132.000000	0.013232
3131.000000	0.013232
3130.000000	0.013218
3129.000000	0.013179
3128.000000	0.013125
3127.000000	0.013072
3126.000000	0.013030
3125.000000	0.012996
3124.000000	0.012967
3123.000000	0.012947
3122.000000	0.012947
3121.000000	0.012969
3120.000000	0.013000
3119.000000	0.013018
3118.000000	0.013009
3117.000000	0.012974
3116.000000	0.012933
3115.000000	0.012909
3114.000000	0.012909
3113.000000	0.012924
3112.000000	0.012938
3111.000000	0.012943
3110.000000	0.012939
3109.000000	0.012933
3108.000000	0.012934
3107.000000	0.012949
3106.000000	0.012977
3105.000000	0.013009
3104.000000	0.013033
3103.000000	0.013048
3102.000000	0.013062
3101.000000	0.013076
3100.000000	0.013088
3099.000000	0.013094
3098.000000	0.013095
3097.000000	0.013096
3096.000000	0.013103
3095.000000	0.013117
3094.000000	0.013138
3093.000000	0.013164
3092.000000	0.013188
3091.000000	0.013205
3090.000000	0.013216
3089.000000	0.013224
3088.000000	0.013231
3087.000000	0.013243
3086.000000	0.013257
3085.000000	0.013272
3084.000000	0.013284
3083.000000	0.013294
3082.000000	0.013306
3081.000000	0.013318
3080.000000	0.013328
3079.000000	0.013336
3078.000000	0.013345
3077.000000	0.013351
3076.000000	0.013344
3075.000000	0.013324
3074.000000	0.013303
3073.000000	0.013298
3072.000000	0.013313
3071.000000	0.013337
3070.000000	0.013354
3069.000000	0.013359
3068.000000	0.013358
3067.000000	0.013360
3066.000000	0.013373
3065.000000	0.013394
3064.000000	0.013413
3063.000000	0.013423
3062.000000	0.013420
3061.000000	0.013400
3060.000000	0.013361
3059.000000	0.013310
3058.000000	0.013264
3057.000000	0.013236
3056.000000	0.013223
3055.000000	0.013207
3054.000000	0.013178
3053.000000	0.013140
3052.000000	0.013104
3051.000000	0.013075
3050.000000	0.013048
3049.000000	0.013010
3048.000000	0.012959
3047.000000	0.012904
3046.000000	0.012855
3045.000000	0.012814
3044.000000	0.012773
3043.000000	0.012724
3042.000000	0.012671
3041.000000	0.012625
3040.000000	0.012593
3039.000000	0.012576
3038.000000	0.012567
3037.000000	0.012554
3036.000000	0.012526
3035.000000	0.012487
3034.000000	0.012447
3033.000000	0.012413
3032.000000	0.012375
3031.000000	0.012323
3030.000000	0.012260
3029.000000	0.012199
3028.000000	0.012149
3027.000000	0.012104
3026.000000	0.012061
3025.000000	0.012017
3024.000000	0.011970
3023.000000	0.011913
3022.000000	0.011841
3021.000000	0.011762
3020.000000	0.011687
3019.000000	0.011622
3018.000000	0.011566
3017.000000	0.011517
3016.000000	0.011480
3015.000000	0.011460
3014.000000	0.011451
3013.000000	0.011440
3012.000000	0.011415
3011.000000	0.011377
3010.000000	0.011335
3009.000000	0.011293
3008.000000	0.011247
3007.000000	0.011191
3006.000000	0.011125
3005.000000	0.011053
3004.000000	0.010984
3003.000000	0.010933
3002.000000	0.010922
3001.000000	0.010952
3000.000000	0.010999
2999.000000	0.011028
2998.000000	0.011029
2997.000000	0.011015
2996.000000	0.011011
2995.000000	0.011030
2994.000000	0.011072
2993.000000	0.011125
2992.000000	0.011169
2991.000000	0.011190
2990.000000	0.011197
2989.000000	0.011217
2988.000000	0.011270
2987.000000	0.011355
2986.000000	0.011459
2985.000000	0.011575
2984.000000	0.011699
2983.000000	0.011826
2982.000000	0.011949
2981.000000	0.012067
2980.000000	0.012186
2979.000000	0.012303
2978.000000	0.012416
2977.000000	0.012522
2976.000000	0.012628
2975.000000	0.012741
2974.000000	0.012869
2973.000000	0.013017
2972.000000	0.013187
2971.000000	0.013376
2970.000000	0.013576
2969.000000	0.013780
2968.000000	0.013988
2967.000000	0.014195
2966.000000	0.014398
2965.000000	0.014593
2964.000000	0.014780
2963.000000	0.014962
2962.000000	0.015136
2961.000000	0.015289
2960.000000	0.015412
2959.000000	0.015500
2958.000000	0.015563
2957.000000	0.015613
2956.000000	0.015650
2955.000000	0.015669
2954.000000	0.015664
2953.000000	0.015641
2952.000000	0.015612
2951.000000	0.015590
2950.000000	0.015578
2949.000000	0.015577
2948.000000	0.015586
2947.000000	0.015606
2946.000000	0.015638
2945.000000	0.015688
2944.000000	0.015761
2943.000000	0.015866
2942.000000	0.016006
2941.000000	0.016175
2940.000000	0.016366
2939.000000	0.016573
2938.000000	0.016789
2937.000000	0.017003
2936.000000	0.017202
2935.000000	0.017377
2934.000000	0.017531
2933.000000	0.017671
2932.000000	0.017805
2931.000000	0.017933
2930.000000	0.018051
2929.000000	0.018151
2928.000000	0.018230
2927.000000	0.018293
2926.000000	0.018359
2925.000000	0.018440
2924.000000	0.018532
2923.000000	0.018615
2922.000000	0.018670
2921.000000	0.018689
2920.000000	0.018669
2919.000000	0.018605
2918.000000	0.018491
2917.000000	0.018324
2916.000000	0.018106
2915.000000	0.017837
2914.000000	0.017525
2913.000000	0.017182
2912.000000	0.016834
2911.000000	0.016506
2910.000000	0.016216
2909.000000	0.015964
2908.000000	0.015735
2907.000000	0.015513
2906.000000	0.015297
2905.000000	0.015090
2904.000000	0.014895
2903.000000	0.014709
2902.000000	0.014539
2901.000000	0.014398
2900.000000	0.014289
2899.000000	0.014195
2898.000000	0.014094
2897.000000	0.013971
2896.000000	0.013829
2895.000000	0.013679
2894.000000	0.013535
2893.000000	0.013411
2892.000000	0.013309
2891.000000	0.013226
2890.000000	0.013159
2889.000000	0.013113
2888.000000	0.013094
2887.000000	0.013098
2886.000000	0.013115
2885.000000	0.013139
2884.000000	0.013166
2883.000000	0.013198
2882.000000	0.013240
2881.000000	0.013301
2880.000000	0.013384
2879.000000	0.013480
2878.000000	0.013579
2877.000000	0.013683
2876.000000	0.013797
2875.000000	0.013916
2874.000000	0.014018
2873.000000	0.014084
2872.000000	0.014108
2871.000000	0.014106
2870.000000	0.014098
2869.000000	0.014095
2868.000000	0.014098
2867.000000	0.014106
2866.000000	0.014116
2865.000000	0.014135
2864.000000	0.014169
2863.000000	0.014222
2862.000000	0.014292
2861.000000	0.014373
2860.000000	0.014463
2859.000000	0.014562
2858.000000	0.014666
2857.000000	0.014769
2856.000000	0.014860
2855.000000	0.014931
2854.000000	0.014983
2853.000000	0.015015
2852.000000	0.015020
2851.000000	0.014978
2850.000000	0.014873
2849.000000	0.014694
2848.000000	0.014447
2847.000000	0.014149
2846.000000	0.013832
2845.000000	0.013528
2844.000000	0.013263
2843.000000	0.013039
2842.000000	0.012846
2841.000000	0.012679
2840.000000	0.012535
2839.000000	0.012414
2838.000000	0.012310
2837.000000	0.012212
2836.000000	0.012121
2835.000000	0.012042
2834.000000	0.011976
2833.000000	0.011918
2832.000000	0.011855
2831.000000	0.011782
2830.000000	0.011704
2829.000000	0.011631
2828.000000	0.011573
2827.000000	0.011530
2826.000000	0.011500
2825.000000	0.011475
2824.000000	0.011451
2823.000000	0.011426
2822.000000	0.011404
2821.000000	0.011390
2820.000000	0.011380
2819.000000	0.011367
2818.000000	0.011346
2817.000000	0.011321
2816.000000	0.011301
2815.000000	0.011290
2814.000000	0.011288
2813.000000	0.011284
2812.000000	0.011271
2811.000000	0.011241
2810.000000	0.011193
2809.000000	0.011136
2808.000000	0.011087
2807.000000	0.011054
2806.000000	0.011040
2805.000000	0.011036
2804.000000	0.011032
2803.000000	0.011019
2802.000000	0.010994
2801.000000	0.010964
2800.000000	0.010938
2799.000000	0.010922
2798.000000	0.010912
2797.000000	0.010904
2796.000000	0.010896
2795.000000	0.010884
2794.000000	0.010869
2793.000000	0.010851
2792.000000	0.010832
2791.000000	0.010810
2790.000000	0.010786
2789.000000	0.010762
2788.000000	0.010741
2787.000000	0.010724
2786.000000	0.010713
2785.000000	0.010707
2784.000000	0.010703
2783.000000	0.010695
2782.000000	0.010678
2781.000000	0.010653
2780.000000	0.010624
2779.000000	0.010594
2778.000000	0.010572
2777.000000	0.010566
2776.000000	0.010577
2775.000000	0.010592
2774.000000	0.010594
2773.000000	0.010580
2772.000000	0.010558
2771.000000	0.010540
2770.000000	0.010526
2769.000000	0.010511
2768.000000	0.010493
2767.000000	0.010469
2766.000000	0.010437
2765.000000	0.010401
2764.000000	0.010369
2763.000000	0.010351
2762.000000	0.010349
2761.000000	0.010362
2760.000000	0.010384
2759.000000	0.010405
2758.000000	0.010412
2757.000000	0.010398
2756.000000	0.010364
2755.000000	0.010324
2754.000000	0.010291
2753.000000	0.010272
2752.000000	0.010265
2751.000000	0.010262
2750.000000	0.010257
2749.000000	0.010248
2748.000000	0.010238
2747.000000	0.010232
2746.000000	0.010228
2745.000000	0.010227
2744.000000	0.010231
2743.000000	0.010238
2742.000000	0.010242
2741.000000	0.010240
2740.000000	0.010235
2739.000000	0.010233
2738.000000	0.010231
2737.000000	0.010224
2736.000000	0.010211
2735.000000	0.010198
2734.000000	0.010186
2733.000000	0.010175
2732.000000	0.010160
2731.000000	0.010145
2730.000000	0.010134
2729.000000	0.010127
2728.000000	0.010120
2727.000000	0.010108
2726.000000	0.010089
2725.000000	0.010065
2724.000000	0.010039
2723.000000	0.010019
2722.000000	0.010011
2721.000000	0.010011
2720.000000	0.010014
2719.000000	0.010015
2718.000000	0.010014
2717.000000	0.010014
2716.000000	0.010016
2715.000000	0.010018
2714.000000	0.010014
2713.000000	0.010002
2712.000000	0.009984
2711.000000	0.009963
2710.000000	0.009944
2709.000000	0.009931
2708.000000	0.009923
2707.000000	0.009914
2706.000000	0.009901
2705.000000	0.009882
2704.000000	0.009862
2703.000000	0.009845
2702.000000	0.009837
2701.000000	0.009839
2700.000000	0.009847
2699.000000	0.009852
2698.000000	0.009847
2697.000000	0.009834
2696.000000	0.009822
2695.000000	0.009818
2694.000000	0.009817
2693.000000	0.009811
2692.000000	0.009799
2691.000000	0.009788
2690.000000	0.009788
2689.000000	0.009801
2688.000000	0.009818
2687.000000	0.009827
2686.000000	0.009818
2685.000000	0.009796
2684.000000	0.009772
2683.000000	0.009761
2682.000000	0.009764
2681.000000	0.009773
2680.000000	0.009778
2679.000000	0.009777
2678.000000	0.009773
2677.000000	0.009770
2676.000000	0.009763
2675.000000	0.009753
2674.000000	0.009743
2673.000000	0.009736
2672.000000	0.009730
2671.000000	0.009721
2670.000000	0.009711
2669.000000	0.009707
2668.000000	0.009717
2667.000000	0.009737
2666.000000	0.009758
2665.000000	0.009770
2664.000000	0.009771
2663.000000	0.009766
2662.000000	0.009759
2661.000000	0.009752
2660.000000	0.009747
2659.000000	0.009747
2658.000000	0.009748
2657.000000	0.009745
2656.000000	0.009733
2655.000000	0.009714
2654.000000	0.009698
2653.000000	0.009690
2652.000000	0.009689
2651.000000	0.009688
2650.000000	0.009679
2649.000000	0.009658
2648.000000	0.009627
2647.000000	0.009594
2646.000000	0.009568
2645.000000	0.009555
2644.000000	0.009547
2643.000000	0.009533
2642.000000	0.009506
2641.000000	0.009477
2640.000000	0.009459
2639.000000	0.009454
2638.000000	0.009453
2637.000000	0.009441
2636.000000	0.009414
2635.000000	0.009371
2634.000000	0.009321
2633.000000	0.009276
2632.000000	0.009248
2631.000000	0.009235
2630.000000	0.009230
2629.000000	0.009219
2628.000000	0.009198
2627.000000	0.009165
2626.000000	0.009129
2625.000000	0.009099
2624.000000	0.009084
2623.000000	0.009082
2622.000000	0.009083
2621.000000	0.009078
2620.000000	0.009072
2619.000000	0.009068
2618.000000	0.009065
2617.000000	0.009058
2616.000000	0.009044
2615.000000	0.009030
2614.000000	0.009020
2613.000000	0.009013
2612.000000	0.009009
2611.000000	0.009006
2610.000000	0.009003
2609.000000	0.008997
2608.000000	0.008987
2607.000000	0.008974
2606.000000	0.008955
2605.000000	0.008930
2604.000000	0.008909
2603.000000	0.008904
2602.000000	0.008918
2601.000000	0.008930
2600.000000	0.008921
2599.000000	0.008895
2598.000000	0.008866
2597.000000	0.008847
2596.000000	0.008836
2595.000000	0.008820
2594.000000	0.008792
2593.000000	0.008751
2592.000000	0.008704
2591.000000	0.008669
2590.000000	0.008665
2589.000000	0.008703
2588.000000	0.008767
2587.000000	0.008826
2586.000000	0.008845
2585.000000	0.008809
2584.000000	0.008733
2583.000000	0.008652
2582.000000	0.008596
2581.000000	0.008567
2580.000000	0.008545
2579.000000	0.008522
2578.000000	0.008510
2577.000000	0.008524
2576.000000	0.008560
2575.000000	0.008592
2574.000000	0.008599
2573.000000	0.008580
2572.000000	0.008551
2571.000000	0.008526
2570.000000	0.008507
2569.000000	0.008490
2568.000000	0.008473
2567.000000	0.008456
2566.000000	0.008439
2565.000000	0.008422
2564.000000	0.008411
2563.000000	0.008413
2562.000000	0.008429
2561.000000	0.008446
2560.000000	0.008448
2559.000000	0.008427
2558.000000	0.008393
2557.000000	0.008358
2556.000000	0.008337
2555.000000	0.008333
2554.000000	0.008345
2553.000000	0.008367
2552.000000	0.008397
2551.000000	0.008433
2550.000000	0.008472
2549.000000	0.008504
2548.000000	0.008519
2547.000000	0.008520
2546.000000	0.008511
2545.000000	0.008488
2544.000000	0.008448
2543.000000	0.008398
2542.000000	0.008355
2541.000000	0.008327
2540.000000	0.008308
2539.000000	0.008298
2538.000000	0.008307
2537.000000	0.008335
2536.000000	0.008365
2535.000000	0.008386
2534.000000	0.008411
2533.000000	0.008453
2532.000000	0.008503
2531.000000	0.008533
2530.000000	0.008530
2529.000000	0.008504
2528.000000	0.008478
2527.000000	0.008458
2526.000000	0.008447
2525.000000	0.008449
2524.000000	0.008474
2523.000000	0.008523
2522.000000	0.008579
2521.000000	0.008619
2520.000000	0.008625
2519.000000	0.008602
2518.000000	0.008567
2517.000000	0.008539
2516.000000	0.008525
2515.000000	0.008526
2514.000000	0.008539
2513.000000	0.008556
2512.000000	0.008562
2511.000000	0.008552
2510.000000	0.008532
2509.000000	0.008515
2508.000000	0.008502
2507.000000	0.008493
2506.000000	0.008492
2505.000000	0.008491
2504.000000	0.008466
2503.000000	0.008396
2502.000000	0.008298
2501.000000	0.008221
2500.000000	0.008202
2499.000000	0.008231
2498.000000	0.008267
2497.000000	0.008283
2496.000000	0.008277
2495.000000	0.008260
2494.000000	0.008234
2493.000000	0.008198
2492.000000	0.008160
2491.000000	0.008133
2490.000000	0.008127
2489.000000	0.008136
2488.000000	0.008147
2487.000000	0.008149
2486.000000	0.008142
2485.000000	0.008135
2484.000000	0.008138
2483.000000	0.008150
2482.000000	0.008148
2481.000000	0.008108
2480.000000	0.008033
2479.000000	0.007960
2478.000000	0.007930
2477.000000	0.007948
2476.000000	0.007980
2475.000000	0.008000
2474.000000	0.008007
2473.000000	0.008013
2472.000000	0.008017
2471.000000	0.008009
2470.000000	0.007982
2469.000000	0.007942
2468.000000	0.007898
2467.000000	0.007866
2466.000000	0.007861
2465.000000	0.007881
2464.000000	0.007908
2463.000000	0.007925
2462.000000	0.007933
2461.000000	0.007943
2460.000000	0.007957
2459.000000	0.007972
2458.000000	0.007987
2457.000000	0.008000
2456.000000	0.007997
2455.000000	0.007972
2454.000000	0.007936
2453.000000	0.007918
2452.000000	0.007926
2451.000000	0.007942
2450.000000	0.007935
2449.000000	0.007905
2448.000000	0.007876
2447.000000	0.007878
2446.000000	0.007911
2445.000000	0.007947
2444.000000	0.007957
2443.000000	0.007939
2442.000000	0.007916
2441.000000	0.007905
2440.000000	0.007904
2439.000000	0.007902
2438.000000	0.007897
2437.000000	0.007896
2436.000000	0.007900
2435.000000	0.007907
2434.000000	0.007910
2433.000000	0.007902
2432.000000	0.007876
2431.000000	0.007848
2430.000000	0.007844
2429.000000	0.007874
2428.000000	0.007912
2427.000000	0.007915
2426.000000	0.007873
2425.000000	0.007813
2424.000000	0.007766
2423.000000	0.007745
2422.000000	0.007747
2421.000000	0.007760
2420.000000	0.007772
2419.000000	0.007775
2418.000000	0.007773
2417.000000	0.007779
2416.000000	0.007796
2415.000000	0.007815
2414.000000	0.007812
2413.000000	0.007770
2412.000000	0.007695
2411.000000	0.007618
2410.000000	0.007579
2409.000000	0.007591
2408.000000	0.007626
2407.000000	0.007647
2406.000000	0.007647
2405.000000	0.007644
2404.000000	0.007656
2403.000000	0.007680
2402.000000	0.007704
2401.000000	0.007723
2400.000000	0.007735
2399.000000	0.007737
2398.000000	0.007729
2397.000000	0.007713
2396.000000	0.007698
2395.000000	0.007689
2394.000000	0.007687
2393.000000	0.007693
2392.000000	0.007704
2391.000000	0.007714
2390.000000	0.007724
2389.000000	0.007735
2388.000000	0.007749
2387.000000	0.007765
2386.000000	0.007776
2385.000000	0.007765
2384.000000	0.007715
2383.000000	0.007631
2382.000000	0.007539
2381.000000	0.007466
2380.000000	0.007418
2379.000000	0.007388
2378.000000	0.007381
2377.000000	0.007411
2376.000000	0.007474
2375.000000	0.007550
2374.000000	0.007611
2373.000000	0.007638
2372.000000	0.007630
2371.000000	0.007609
2370.000000	0.007598
2369.000000	0.007599
2368.000000	0.007596
2367.000000	0.007590
2366.000000	0.007613
2365.000000	0.007676
2364.000000	0.007746
2363.000000	0.007780
2362.000000	0.007760
2361.000000	0.007695
2360.000000	0.007610
2359.000000	0.007540
2358.000000	0.007509
2357.000000	0.007518
2356.000000	0.007562
2355.000000	0.007640
2354.000000	0.007704
2353.000000	0.007702
2352.000000	0.007651
2351.000000	0.007623
2350.000000	0.007644
2349.000000	0.007677
2348.000000	0.007683
2347.000000	0.007640
2346.000000	0.007592
2345.000000	0.007620
2344.000000	0.007730
2343.000000	0.007846
2342.000000	0.007889
2341.000000	0.007846
2340.000000	0.007775
2339.000000	0.007745
2338.000000	0.007769
2337.000000	0.007815
2336.000000	0.007850
2335.000000	0.007854
2334.000000	0.007802
2333.000000	0.007688
2332.000000	0.007568
2331.000000	0.007523
2330.000000	0.007592
2329.000000	0.007742
2328.000000	0.007924
2327.000000	0.008099
2326.000000	0.008237
2325.000000	0.008313
2324.000000	0.008317
2323.000000	0.008273
2322.000000	0.008224
2321.000000	0.008217
2320.000000	0.008268
2319.000000	0.008345
2318.000000	0.008391
2317.000000	0.008365
2316.000000	0.008277
2315.000000	0.008171
2314.000000	0.008088
2313.000000	0.008042
2312.000000	0.008023
2311.000000	0.008011
2310.000000	0.007995
2309.000000	0.007975
2308.000000	0.007961
2307.000000	0.007960
2306.000000	0.007969
2305.000000	0.007975
2304.000000	0.007962
2303.000000	0.007933
2302.000000	0.007909
2301.000000	0.007910
2300.000000	0.007928
2299.000000	0.007937
2298.000000	0.007922
2297.000000	0.007892
2296.000000	0.007869
2295.000000	0.007862
2294.000000	0.007877
2293.000000	0.007915
2292.000000	0.007970
2291.000000	0.008026
2290.000000	0.008068
2289.000000	0.008086
2288.000000	0.008076
2287.000000	0.008043
2286.000000	0.007994
2285.000000	0.007941
2284.000000	0.007888
2283.000000	0.007846
2282.000000	0.007827
2281.000000	0.007831
2280.000000	0.007828
2279.000000	0.007783
2278.000000	0.007703
2277.000000	0.007632
2276.000000	0.007600
2275.000000	0.007589
2274.000000	0.007566
2273.000000	0.007527
2272.000000	0.007496
2271.000000	0.007489
2270.000000	0.007507
2269.000000	0.007542
2268.000000	0.007582
2267.000000	0.007606
2266.000000	0.007606
2265.000000	0.007591
2264.000000	0.007574
2263.000000	0.007565
2262.000000	0.007571
2261.000000	0.007596
2260.000000	0.007624
2259.000000	0.007623
2258.000000	0.007578
2257.000000	0.007502
2256.000000	0.007424
2255.000000	0.007359
2254.000000	0.007322
2253.000000	0.007330
2252.000000	0.007385
2251.000000	0.007453
2250.000000	0.007492
2249.000000	0.007484
2248.000000	0.007440
2247.000000	0.007375
2246.000000	0.007293
2245.000000	0.007198
2244.000000	0.007100
2243.000000	0.007025
2242.000000	0.007006
2241.000000	0.007057
2240.000000	0.007143
2239.000000	0.007195
2238.000000	0.007167
2237.000000	0.007076
2236.000000	0.006978
2235.000000	0.006915
2234.000000	0.006902
2233.000000	0.006929
2232.000000	0.006981
2231.000000	0.007051
2230.000000	0.007143
2229.000000	0.007251
2228.000000	0.007337
2227.000000	0.007355
2226.000000	0.007291
2225.000000	0.007182
2224.000000	0.007076
2223.000000	0.007002
2222.000000	0.006967
2221.000000	0.006966
2220.000000	0.006974
2219.000000	0.006965
2218.000000	0.006939
2217.000000	0.006929
2216.000000	0.006959
2215.000000	0.007036
2214.000000	0.007160
2213.000000	0.007318
2212.000000	0.007453
2211.000000	0.007493
2210.000000	0.007424
2209.000000	0.007309
2208.000000	0.007217
2207.000000	0.007171
2206.000000	0.007176
2205.000000	0.007234
2204.000000	0.007315
2203.000000	0.007338
2202.000000	0.007249
2201.000000	0.007094
2200.000000	0.006981
2199.000000	0.006971
2198.000000	0.007027
2197.000000	0.007070
2196.000000	0.007057
2195.000000	0.007006
2194.000000	0.006963
2193.000000	0.006944
2192.000000	0.006920
2191.000000	0.006852
2190.000000	0.006758
2189.000000	0.006709
2188.000000	0.006752
2187.000000	0.006848
2186.000000	0.006912
2185.000000	0.006888
2184.000000	0.006784
2183.000000	0.006639
2182.000000	0.006493
2181.000000	0.006388
2180.000000	0.006363
2179.000000	0.006438
2178.000000	0.006597
2177.000000	0.006786
2176.000000	0.006943
2175.000000	0.007044
2174.000000	0.007099
2173.000000	0.007096
2172.000000	0.006979
2171.000000	0.006729
2170.000000	0.006443
2169.000000	0.006291
2168.000000	0.006361
2167.000000	0.006597
2166.000000	0.006856
2165.000000	0.007020
2164.000000	0.007040
2163.000000	0.006936
2162.000000	0.006761
2161.000000	0.006519
2160.000000	0.006152
2159.000000	0.005655
2158.000000	0.005203
2157.000000	0.005008
2156.000000	0.005078
2155.000000	0.005242
2154.000000	0.005390
2153.000000	0.005543
2152.000000	0.005729
2151.000000	0.005894
2150.000000	0.005986
2149.000000	0.006052
2148.000000	0.006172
2147.000000	0.006340
2146.000000	0.006461
2145.000000	0.006469
2144.000000	0.006397
2143.000000	0.006332
2142.000000	0.006317
2141.000000	0.006325
2140.000000	0.006322
2139.000000	0.006327
2138.000000	0.006387
2137.000000	0.006486
2136.000000	0.006538
2135.000000	0.006478
2134.000000	0.006348
2133.000000	0.006243
2132.000000	0.006218
2131.000000	0.006271
2130.000000	0.006397
2129.000000	0.006592
2128.000000	0.006807
2127.000000	0.006959
2126.000000	0.007009
2125.000000	0.006986
2124.000000	0.006936
2123.000000	0.006877
2122.000000	0.006820
2121.000000	0.006811
2120.000000	0.006885
2119.000000	0.007015
2118.000000	0.007129
2117.000000	0.007187
2116.000000	0.007213
2115.000000	0.007261
2114.000000	0.007344
2113.000000	0.007423
2112.000000	0.007437
2111.000000	0.007366
2110.000000	0.007247
2109.000000	0.007149
2108.000000	0.007111
2107.000000	0.007123
2106.000000	0.007147
2105.000000	0.007151
2104.000000	0.007128
2103.000000	0.007091
2102.000000	0.007051
2101.000000	0.007008
2100.000000	0.006953
2099.000000	0.006892
2098.000000	0.006846
2097.000000	0.006823
2096.000000	0.006804
2095.000000	0.006773
2094.000000	0.006752
2093.000000	0.006784
2092.000000	0.006871
2091.000000	0.006969
2090.000000	0.007039
2089.000000	0.007083
2088.000000	0.007130
2087.000000	0.007193
2086.000000	0.007259
2085.000000	0.007289
2084.000000	0.007246
2083.000000	0.007133
2082.000000	0.007006
2081.000000	0.006930
2080.000000	0.006910
2079.000000	0.006892
2078.000000	0.006844
2077.000000	0.006801
2076.000000	0.006822
2075.000000	0.006912
2074.000000	0.007004
2073.000000	0.007021
2072.000000	0.006957
2071.000000	0.006882
2070.000000	0.006854
2069.000000	0.006844
2068.000000	0.006781
2067.000000	0.006669
2066.000000	0.006600
2065.000000	0.006627
2064.000000	0.006669
2063.000000	0.006626
2062.000000	0.006536
2061.000000	0.006541
2060.000000	0.006696
2059.000000	0.006879
2058.000000	0.006930
2057.000000	0.006800
2056.000000	0.006570
2055.000000	0.006382
2054.000000	0.006366
2053.000000	0.006567
2052.000000	0.006892
2051.000000	0.007161
2050.000000	0.007241
2049.000000	0.007148
2048.000000	0.006989
2047.000000	0.006842
2046.000000	0.006710
2045.000000	0.006572
2044.000000	0.006419
2043.000000	0.006249
2042.000000	0.006085
2041.000000	0.005986
2040.000000	0.006010
2039.000000	0.006154
2038.000000	0.006327
2037.000000	0.006381
2036.000000	0.006212
2035.000000	0.005876
2034.000000	0.005580
2033.000000	0.005504
2032.000000	0.005634
2031.000000	0.005813
2030.000000	0.005939
2029.000000	0.006021
2028.000000	0.006074
2027.000000	0.006065
2026.000000	0.005992
2025.000000	0.005934
2024.000000	0.005970
2023.000000	0.006089
2022.000000	0.006206
2021.000000	0.006233
2020.000000	0.006151
2019.000000	0.006032
2018.000000	0.005981
2017.000000	0.006011
2016.000000	0.005994
2015.000000	0.005798
2014.000000	0.005467
2013.000000	0.005205
2012.000000	0.005176
2011.000000	0.005377
2010.000000	0.005664
2009.000000	0.005887
2008.000000	0.005981
2007.000000	0.006012
2006.000000	0.006076
2005.000000	0.006152
2004.000000	0.006099
2003.000000	0.005838
2002.000000	0.005489
2001.000000	0.005285
2000.000000	0.005371
1999.000000	0.005737
1998.000000	0.006257
1997.000000	0.006729
1996.000000	0.006965
1995.000000	0.006940
1994.000000	0.006827
1993.000000	0.006805
1992.000000	0.006853
1991.000000	0.006821
1990.000000	0.006676
1989.000000	0.006527
1988.000000	0.006439
1987.000000	0.006361
1986.000000	0.006249
1985.000000	0.006160
1984.000000	0.006174
1983.000000	0.006306
1982.000000	0.006513
1981.000000	0.006705
1980.000000	0.006735
1979.000000	0.006512
1978.000000	0.006148
1977.000000	0.005906
1976.000000	0.005932
1975.000000	0.006131
1974.000000	0.006335
1973.000000	0.006444
1972.000000	0.006400
1971.000000	0.006181
1970.000000	0.005856
1969.000000	0.005557
1968.000000	0.005350
1967.000000	0.005202
1966.000000	0.005080
1965.000000	0.004993
1964.000000	0.004950
1963.000000	0.004967
1962.000000	0.005095
1961.000000	0.005341
1960.000000	0.005572
1959.000000	0.005625
1958.000000	0.005525
1957.000000	0.005458
1956.000000	0.005533
1955.000000	0.005684
1954.000000	0.005809
1953.000000	0.005886
1952.000000	0.005928
1951.000000	0.005926
1950.000000	0.005899
1949.000000	0.005912
1948.000000	0.005965
1947.000000	0.005966
1946.000000	0.005857
1945.000000	0.005719
1944.000000	0.005675
1943.000000	0.005738
1942.000000	0.005816
1941.000000	0.005833
1940.000000	0.005794
1939.000000	0.005740
1938.000000	0.005705
1937.000000	0.005708
1936.000000	0.005751
1935.000000	0.005822
1934.000000	0.005903
1933.000000	0.005967
1932.000000	0.005975
1931.000000	0.005915
1930.000000	0.005850
1929.000000	0.005860
1928.000000	0.005933
1927.000000	0.005979
1926.000000	0.005952
1925.000000	0.005907
1924.000000	0.005879
1923.000000	0.005816
1922.000000	0.005678
1921.000000	0.005548
1920.000000	0.005540
1919.000000	0.005655
1918.000000	0.005775
1917.000000	0.005825
1916.000000	0.005845
1915.000000	0.005906
1914.000000	0.006000
1913.000000	0.006064
1912.000000	0.006053
1911.000000	0.005975
1910.000000	0.005894
1909.000000	0.005865
1908.000000	0.005882
1907.000000	0.005890
1906.000000	0.005856
1905.000000	0.005815
1904.000000	0.005823
1903.000000	0.005873
1902.000000	0.005911
1901.000000	0.005895
1900.000000	0.005828
1899.000000	0.005749
1898.000000	0.005695
1897.000000	0.005686
1896.000000	0.005710
1895.000000	0.005727
1894.000000	0.005708
1893.000000	0.005667
1892.000000	0.005641
1891.000000	0.005647
1890.000000	0.005663
1889.000000	0.005657
1888.000000	0.005637
1887.000000	0.005648
1886.000000	0.005720
1885.000000	0.005825
1884.000000	0.005895
1883.000000	0.005891
1882.000000	0.005843
1881.000000	0.005794
1880.000000	0.005744
1879.000000	0.005675
1878.000000	0.005601
1877.000000	0.005565
1876.000000	0.005594
1875.000000	0.005651
1874.000000	0.005677
1873.000000	0.005644
1872.000000	0.005575
1871.000000	0.005520
1870.000000	0.005522
1869.000000	0.005578
1868.000000	0.005644
1867.000000	0.005686
1866.000000	0.005710
1865.000000	0.005723
1864.000000	0.005716
1863.000000	0.005679
1862.000000	0.005639
1861.000000	0.005633
1860.000000	0.005670
1859.000000	0.005723
1858.000000	0.005764
1857.000000	0.005771
1856.000000	0.005736
1855.000000	0.005671
1854.000000	0.005613
1853.000000	0.005587
1852.000000	0.005577
1851.000000	0.005574
1850.000000	0.005582
1849.000000	0.005587
1848.000000	0.005550
1847.000000	0.005462
1846.000000	0.005381
1845.000000	0.005362
1844.000000	0.005383
1843.000000	0.005383
1842.000000	0.005376
1841.000000	0.005409
1840.000000	0.005481
1839.000000	0.005541
1838.000000	0.005567
1837.000000	0.005568
1836.000000	0.005585
1835.000000	0.005589
1834.000000	0.005567
1833.000000	0.005550
1832.000000	0.005554
1831.000000	0.005530
1830.000000	0.005556
1829.000000	0.005436
1828.000000	0.005279
1827.000000	0.005306
1826.000000	0.005339
1825.000000	0.005403
1824.000000	0.005413
1823.000000	0.005402
1822.000000	0.005402
1821.000000	0.005428
1820.000000	0.005445
1819.000000	0.005423
1818.000000	0.005371
1817.000000	0.005335
1816.000000	0.005330
1815.000000	0.005341
1814.000000	0.005360
1813.000000	0.005392
1812.000000	0.005438
1811.000000	0.005474
1810.000000	0.005483
1809.000000	0.005486
1808.000000	0.005493
1807.000000	0.005491
1806.000000	0.005480
1805.000000	0.005493
1804.000000	0.005546
1803.000000	0.005621
1802.000000	0.005695
1801.000000	0.005759
1800.000000	0.005819
1799.000000	0.005876
1798.000000	0.005917
1797.000000	0.005924
1796.000000	0.005880
1795.000000	0.005807
1794.000000	0.005755
1793.000000	0.005749
1792.000000	0.005743
1791.000000	0.005683
1790.000000	0.005592
1789.000000	0.005525
1788.000000	0.005493
1787.000000	0.005474
1786.000000	0.005449
1785.000000	0.005418
1784.000000	0.005379
1783.000000	0.005346
1782.000000	0.005346
1781.000000	0.005366
1780.000000	0.005374
1779.000000	0.005356
1778.000000	0.005324
1777.000000	0.005281
1776.000000	0.005203
1775.000000	0.005114
1774.000000	0.005077
1773.000000	0.005099
1772.000000	0.005111
1771.000000	0.005094
1770.000000	0.005121
1769.000000	0.005239
1768.000000	0.005381
1767.000000	0.005449
1766.000000	0.005452
1765.000000	0.005482
1764.000000	0.005591
1763.000000	0.005751
1762.000000	0.005894
1761.000000	0.006004
1760.000000	0.006136
1759.000000	0.006336
1758.000000	0.006625
1757.000000	0.006973
1756.000000	0.007307
1755.000000	0.007606
1754.000000	0.007929
1753.000000	0.008346
1752.000000	0.008860
1751.000000	0.009392
1750.000000	0.009887
1749.000000	0.010383
1748.000000	0.010881
1747.000000	0.011332
1746.000000	0.011724
1745.000000	0.012070
1744.000000	0.012351
1743.000000	0.012522
1742.000000	0.012605
1741.000000	0.012677
1740.000000	0.012721
1739.000000	0.012632
1738.000000	0.012424
1737.000000	0.012228
1736.000000	0.012096
1735.000000	0.011901
1734.000000	0.011471
1733.000000	0.010969
1732.000000	0.010666
1731.000000	0.010517
1730.000000	0.010340
1729.000000	0.010066
1728.000000	0.009732
1727.000000	0.009412
1726.000000	0.009135
1725.000000	0.008897
1724.000000	0.008678
1723.000000	0.008424
1722.000000	0.008113
1721.000000	0.007803
1720.000000	0.007562
1719.000000	0.007397
1718.000000	0.007247
1717.000000	0.007112
1716.000000	0.007062
1715.000000	0.007091
1714.000000	0.007148
1713.000000	0.007228
1712.000000	0.007338
1711.000000	0.007451
1710.000000	0.007549
1709.000000	0.007642
1708.000000	0.007769
1707.000000	0.007965
1706.000000	0.008200
1705.000000	0.008374
1704.000000	0.008431
1703.000000	0.008456
1702.000000	0.008634
1701.000000	0.009066
1700.000000	0.009514
1699.000000	0.009739
1698.000000	0.009943
1697.000000	0.010391
1696.000000	0.011028
1695.000000	0.011564
1694.000000	0.011921
1693.000000	0.012270
1692.000000	0.012701
1691.000000	0.013169
1690.000000	0.013607
1689.000000	0.013947
1688.000000	0.014150
1687.000000	0.014288
1686.000000	0.014546
1685.000000	0.015130
1684.000000	0.015874
1683.000000	0.016422
1682.000000	0.016859
1681.000000	0.017386
1680.000000	0.017949
1679.000000	0.018415
1678.000000	0.018791
1677.000000	0.019252
1676.000000	0.019909
1675.000000	0.020621
1674.000000	0.021191
1673.000000	0.021655
1672.000000	0.022171
1671.000000	0.022807
1670.000000	0.023546
1669.000000	0.024318
1668.000000	0.025020
1667.000000	0.025597
1666.000000	0.026085
1665.000000	0.026601
1664.000000	0.027245
1663.000000	0.027964
1662.000000	0.028628
1661.000000	0.029202
1660.000000	0.029728
1659.000000	0.030193
1658.000000	0.030516
1657.000000	0.030646
1656.000000	0.030670
1655.000000	0.030800
1654.000000	0.031298
1653.000000	0.032051
1652.000000	0.032579
1651.000000	0.032815
1650.000000	0.032984
1649.000000	0.033213
1648.000000	0.033567
1647.000000	0.033961
1646.000000	0.034231
1645.000000	0.034398
1644.000000	0.034566
1643.000000	0.034728
1642.000000	0.034855
1641.000000	0.034921
1640.000000	0.034917
1639.000000	0.034860
1638.000000	0.034820
1637.000000	0.034914
1636.000000	0.035146
1635.000000	0.035355
1634.000000	0.035447
1633.000000	0.035503
1632.000000	0.035559
1631.000000	0.035568
1630.000000	0.035508
1629.000000	0.035392
1628.000000	0.035220
1627.000000	0.034973
1626.000000	0.034671
1625.000000	0.034359
1624.000000	0.034046
1623.000000	0.033674
1622.000000	0.033214
1621.000000	0.032701
1620.000000	0.032175
1619.000000	0.031653
1618.000000	0.031133
1617.000000	0.030577
1616.000000	0.029962
1615.000000	0.029365
1614.000000	0.028858
1613.000000	0.028419
1612.000000	0.027974
1611.000000	0.027477
1610.000000	0.026950
1609.000000	0.026427
1608.000000	0.025911
1607.000000	0.025402
1606.000000	0.024925
1605.000000	0.024483
1604.000000	0.024061
1603.000000	0.023660
1602.000000	0.023288
1601.000000	0.022940
1600.000000	0.022601
1599.000000	0.022272
1598.000000	0.021967
1597.000000	0.021689
1596.000000	0.021431
1595.000000	0.021204
1594.000000	0.021024
1593.000000	0.020889
1592.000000	0.020776
1591.000000	0.020673
1590.000000	0.020595
1589.000000	0.020545
1588.000000	0.020514
1587.000000	0.020501
1586.000000	0.020516
1585.000000	0.020560
1584.000000	0.020612
1583.000000	0.020687
1582.000000	0.020796
1581.000000	0.020892
1580.000000	0.020917
1579.000000	0.020905
1578.000000	0.020965
1577.000000	0.021186
1576.000000	0.021501
1575.000000	0.021754
1574.000000	0.021919
1573.000000	0.022045
1572.000000	0.022187
1571.000000	0.022404
1570.000000	0.022725
1569.000000	0.023078
1568.000000	0.023389
1567.000000	0.023706
1566.000000	0.024096
1565.000000	0.024517
1564.000000	0.024831
1563.000000	0.024949
1562.000000	0.024944
1561.000000	0.025007
1560.000000	0.025426
1559.000000	0.026188
1558.000000	0.026815
1557.000000	0.027229
1556.000000	0.027679
1555.000000	0.028209
1554.000000	0.028744
1553.000000	0.029197
1552.000000	0.029598
1551.000000	0.030011
1550.000000	0.030409
1549.000000	0.030725
1548.000000	0.030947
1547.000000	0.031142
1546.000000	0.031368
1545.000000	0.031590
1544.000000	0.031723
1543.000000	0.031747
1542.000000	0.031762
1541.000000	0.031926
1540.000000	0.032232
1539.000000	0.032473
1538.000000	0.032566
1537.000000	0.032587
1536.000000	0.032589
1535.000000	0.032598
1534.000000	0.032605
1533.000000	0.032554
1532.000000	0.032459
1531.000000	0.032365
1530.000000	0.032273
1529.000000	0.032180
1528.000000	0.032087
1527.000000	0.031980
1526.000000	0.031818
1525.000000	0.031580
1524.000000	0.031314
1523.000000	0.031096
1522.000000	0.030942
1521.000000	0.030797
1520.000000	0.030647
1519.000000	0.030562
1518.000000	0.030571
1517.000000	0.030595
1516.000000	0.030519
1515.000000	0.030323
1514.000000	0.030086
1513.000000	0.029855
1512.000000	0.029614
1511.000000	0.029315
1510.000000	0.028958
1509.000000	0.028602
1508.000000	0.028279
1507.000000	0.027887
1506.000000	0.027422
1505.000000	0.027112
1504.000000	0.027013
1503.000000	0.026973
1502.000000	0.026875
1501.000000	0.026687
1500.000000	0.026434
1499.000000	0.026157
1498.000000	0.025879
1497.000000	0.025620
1496.000000	0.025391
1495.000000	0.025182
1494.000000	0.024995
1493.000000	0.024848
1492.000000	0.024738
1491.000000	0.024622
1490.000000	0.024465
1489.000000	0.024319
1488.000000	0.024260
1487.000000	0.024264
1486.000000	0.024303
1485.000000	0.024390
1484.000000	0.024527
1483.000000	0.024705
1482.000000	0.024903
1481.000000	0.025115
1480.000000	0.025339
1479.000000	0.025581
1478.000000	0.025857
1477.000000	0.026173
1476.000000	0.026503
1475.000000	0.026832
1474.000000	0.027235
1473.000000	0.027768
1472.000000	0.028357
1471.000000	0.028901
1470.000000	0.029407
1469.000000	0.029910
1468.000000	0.030392
1467.000000	0.030824
1466.000000	0.031236
1465.000000	0.031666
1464.000000	0.032086
1463.000000	0.032458
1462.000000	0.032781
1461.000000	0.033073
1460.000000	0.033338
1459.000000	0.033615
1458.000000	0.034006
1457.000000	0.034552
1456.000000	0.035123
1455.000000	0.035626
1454.000000	0.036094
1453.000000	0.036534
1452.000000	0.036908
1451.000000	0.037193
1450.000000	0.037435
1449.000000	0.037703
1448.000000	0.037983
1447.000000	0.038219
1446.000000	0.038427
1445.000000	0.038639
1444.000000	0.038847
1443.000000	0.039018
1442.000000	0.039144
1441.000000	0.039241
1440.000000	0.039327
1439.000000	0.039419
1438.000000	0.039546
1437.000000	0.039704
1436.000000	0.039829
1435.000000	0.039919
1434.000000	0.040027
1433.000000	0.040152
1432.000000	0.040243
1431.000000	0.040278
1430.000000	0.040305
1429.000000	0.040390
1428.000000	0.040529
1427.000000	0.040684
1426.000000	0.040852
1425.000000	0.041006
1424.000000	0.041076
1423.000000	0.041040
1422.000000	0.040966
1421.000000	0.040929
1420.000000	0.040915
1419.000000	0.040859
1418.000000	0.040765
1417.000000	0.040705
1416.000000	0.040667
1415.000000	0.040591
1414.000000	0.040467
1413.000000	0.040318
1412.000000	0.040152
1411.000000	0.039954
1410.000000	0.039727
1409.000000	0.039494
1408.000000	0.039263
1407.000000	0.039027
1406.000000	0.038798
1405.000000	0.038582
1404.000000	0.038367
1403.000000	0.038159
1402.000000	0.037988
1401.000000	0.037855
1400.000000	0.037710
1399.000000	0.037508
1398.000000	0.037263
1397.000000	0.037004
1396.000000	0.036709
1395.000000	0.036362
1394.000000	0.036042
1393.000000	0.035823
1392.000000	0.035676
1391.000000	0.035524
1390.000000	0.035327
1389.000000	0.035081
1388.000000	0.034777
1387.000000	0.034419
1386.000000	0.034065
1385.000000	0.033772
1384.000000	0.033525
1383.000000	0.033276
1382.000000	0.033008
1381.000000	0.032739
1380.000000	0.032472
1379.000000	0.032195
1378.000000	0.031906
1377.000000	0.031616
1376.000000	0.031310
1375.000000	0.030964
1374.000000	0.030587
1373.000000	0.030224
1372.000000	0.029906
1371.000000	0.029626
1370.000000	0.029363
1369.000000	0.029082
1368.000000	0.028760
1367.000000	0.028411
1366.000000	0.028077
1365.000000	0.027779
1364.000000	0.027498
1363.000000	0.027209
1362.000000	0.026918
1361.000000	0.026655
1360.000000	0.026439
1359.000000	0.026266
1358.000000	0.026130
1357.000000	0.026018
1356.000000	0.025906
1355.000000	0.025787
1354.000000	0.025679
1353.000000	0.025605
1352.000000	0.025570
1351.000000	0.025565
1350.000000	0.025592
1349.000000	0.025642
1348.000000	0.025695
1347.000000	0.025739
1346.000000	0.025787
1345.000000	0.025857
1344.000000	0.025946
1343.000000	0.026051
1342.000000	0.026173
1341.000000	0.026314
1340.000000	0.026454
1339.000000	0.026575
1338.000000	0.026675
1337.000000	0.026768
1336.000000	0.026844
1335.000000	0.026885
1334.000000	0.026880
1333.000000	0.026830
1332.000000	0.026735
1331.000000	0.026600
1330.000000	0.026437
1329.000000	0.026264
1328.000000	0.026078
1327.000000	0.025871
1326.000000	0.025653
1325.000000	0.025445
1324.000000	0.025265
1323.000000	0.025116
1322.000000	0.024989
1321.000000	0.024871
1320.000000	0.024751
1319.000000	0.024622
1318.000000	0.024487
1317.000000	0.024350
1316.000000	0.024211
1315.000000	0.024067
1314.000000	0.023918
1313.000000	0.023765
1312.000000	0.023610
1311.000000	0.023454
1310.000000	0.023287
1309.000000	0.023100
1308.000000	0.022894
1307.000000	0.022685
1306.000000	0.022495
1305.000000	0.022322
1304.000000	0.022157
1303.000000	0.021999
1302.000000	0.021859
1301.000000	0.021737
1300.000000	0.021617
1299.000000	0.021485
1298.000000	0.021335
1297.000000	0.021171
1296.000000	0.021004
1295.000000	0.020867
1294.000000	0.020792
1293.000000	0.020784
1292.000000	0.020813
1291.000000	0.020848
1290.000000	0.020880
1289.000000	0.020920
1288.000000	0.020977
1287.000000	0.021052
1286.000000	0.021134
1285.000000	0.021207
1284.000000	0.021256
1283.000000	0.021280
1282.000000	0.021296
1281.000000	0.021320
1280.000000	0.021352
1279.000000	0.021379
1278.000000	0.021399
1277.000000	0.021419
1276.000000	0.021447
1275.000000	0.021486
1274.000000	0.021538
1273.000000	0.021607
1272.000000	0.021694
1271.000000	0.021802
1270.000000	0.021931
1269.000000	0.022073
1268.000000	0.022217
1267.000000	0.022361
1266.000000	0.022519
1265.000000	0.022703
1264.000000	0.022911
1263.000000	0.023127
1262.000000	0.023346
1261.000000	0.023566
1260.000000	0.023779
1259.000000	0.023981
1258.000000	0.024185
1257.000000	0.024412
1256.000000	0.024663
1255.000000	0.024896
1254.000000	0.025055
1253.000000	0.025126
1252.000000	0.025165
1251.000000	0.025264
1250.000000	0.025487
1249.000000	0.025810
1248.000000	0.026153
1247.000000	0.026451
1246.000000	0.026699
1245.000000	0.026921
1244.000000	0.027125
1243.000000	0.027306
1242.000000	0.027476
1241.000000	0.027660
1240.000000	0.027855
1239.000000	0.028028
1238.000000	0.028153
1237.000000	0.028231
1236.000000	0.028266
1235.000000	0.028249
1234.000000	0.028175
1233.000000	0.028057
1232.000000	0.027910
1231.000000	0.027731
1230.000000	0.027515
1229.000000	0.027258
1228.000000	0.026962
1227.000000	0.026617
1226.000000	0.026220
1225.000000	0.025786
1224.000000	0.025340
1223.000000	0.024906
1222.000000	0.024490
1221.000000	0.024089
1220.000000	0.023706
1219.000000	0.023349
1218.000000	0.023028
1217.000000	0.022744
1216.000000	0.022495
1215.000000	0.022283
1214.000000	0.022119
1213.000000	0.022009
1212.000000	0.021942
1211.000000	0.021903
1210.000000	0.021890
1209.000000	0.021911
1208.000000	0.021966
1207.000000	0.022044
1206.000000	0.022129
1205.000000	0.022220
1204.000000	0.022317
1203.000000	0.022406
1202.000000	0.022459
1201.000000	0.022455
1200.000000	0.022397
1199.000000	0.022310
1198.000000	0.022212
1197.000000	0.022101
1196.000000	0.021968
1195.000000	0.021822
1194.000000	0.021684
1193.000000	0.021561
1192.000000	0.021440
1191.000000	0.021310
1190.000000	0.021182
1189.000000	0.021079
1188.000000	0.021009
1187.000000	0.020968
1186.000000	0.020945
1185.000000	0.020937
1184.000000	0.020934
1183.000000	0.020930
1182.000000	0.020929
1181.000000	0.020949
1180.000000	0.021006
1179.000000	0.021102
1178.000000	0.021233
1177.000000	0.021387
1176.000000	0.021543
1175.000000	0.021681
1174.000000	0.021807
1173.000000	0.021946
1172.000000	0.022116
1171.000000	0.022299
1170.000000	0.022459
1169.000000	0.022583
1168.000000	0.022693
1167.000000	0.022815
1166.000000	0.022951
1165.000000	0.023081
1164.000000	0.023181
1163.000000	0.023243
1162.000000	0.023270
1161.000000	0.023271
1160.000000	0.023244
1159.000000	0.023176
1158.000000	0.023053
1157.000000	0.022873
1156.000000	0.022658
1155.000000	0.022427
1154.000000	0.022180
1153.000000	0.021898
1152.000000	0.021566
1151.000000	0.021196
1150.000000	0.020818
1149.000000	0.020446
1148.000000	0.020062
1147.000000	0.019650
1146.000000	0.019223
1145.000000	0.018817
1144.000000	0.018460
1143.000000	0.018140
1142.000000	0.017830
1141.000000	0.017508
1140.000000	0.017184
1139.000000	0.016885
1138.000000	0.016632
1137.000000	0.016424
1136.000000	0.016243
1135.000000	0.016071
1134.000000	0.015903
1133.000000	0.015741
1132.000000	0.015598
1131.000000	0.015490
1130.000000	0.015432
1129.000000	0.015417
1128.000000	0.015420
1127.000000	0.015417
1126.000000	0.015402
1125.000000	0.015394
1124.000000	0.015407
1123.000000	0.015440
1122.000000	0.015477
1121.000000	0.015510
1120.000000	0.015552
1119.000000	0.015615
1118.000000	0.015702
1117.000000	0.015809
1116.000000	0.015935
1115.000000	0.016093
1114.000000	0.016288
1113.000000	0.016509
1112.000000	0.016732
1111.000000	0.016923
1110.000000	0.017055
1109.000000	0.017123
1108.000000	0.017147
1107.000000	0.017147
1106.000000	0.017129
1105.000000	0.017090
1104.000000	0.017040
1103.000000	0.017011
1102.000000	0.017026
1101.000000	0.017085
1100.000000	0.017168
1099.000000	0.017255
1098.000000	0.017337
1097.000000	0.017420
1096.000000	0.017513
1095.000000	0.017623
1094.000000	0.017740
1093.000000	0.017830
1092.000000	0.017858
1091.000000	0.017826
1090.000000	0.017772
1089.000000	0.017736
1088.000000	0.017721
1087.000000	0.017697
1086.000000	0.017634
1085.000000	0.017529
1084.000000	0.017398
1083.000000	0.017259
1082.000000	0.017125
1081.000000	0.016996
1080.000000	0.016864
1079.000000	0.016711
1078.000000	0.016530
1077.000000	0.016325
1076.000000	0.016110
1075.000000	0.015894
1074.000000	0.015682
1073.000000	0.015482
1072.000000	0.015316
1071.000000	0.015200
1070.000000	0.015120
1069.000000	0.015040
1068.000000	0.014940
1067.000000	0.014846
1066.000000	0.014811
1065.000000	0.014868
1064.000000	0.014991
1063.000000	0.015126
1062.000000	0.015214
1061.000000	0.015219
1060.000000	0.015135
1059.000000	0.014990
1058.000000	0.014842
1057.000000	0.014744
1056.000000	0.014701
1055.000000	0.014666
1054.000000	0.014593
1053.000000	0.014473
1052.000000	0.014338
1051.000000	0.014226
1050.000000	0.014152
1049.000000	0.014121
1048.000000	0.014129
1047.000000	0.014162
1046.000000	0.014198
1045.000000	0.014220
1044.000000	0.014233
1043.000000	0.014260
1042.000000	0.014323
1041.000000	0.014436
1040.000000	0.014592
1039.000000	0.014776
1038.000000	0.014983
1037.000000	0.015224
1036.000000	0.015507
1035.000000	0.015807
1034.000000	0.016083
1033.000000	0.016312
1032.000000	0.016493
1031.000000	0.016617
1030.000000	0.016657
1029.000000	0.016609
1028.000000	0.016519
1027.000000	0.016449
1026.000000	0.016413
1025.000000	0.016382
1024.000000	0.016324
1023.000000	0.016244
1022.000000	0.016153
1021.000000	0.016051
1020.000000	0.015927
1019.000000	0.015783
1018.000000	0.015631
1017.000000	0.015482
1016.000000	0.015351
1015.000000	0.015263
1014.000000	0.015226
1013.000000	0.015214
1012.000000	0.015174
1011.000000	0.015069
1010.000000	0.014893
1009.000000	0.014675
1008.000000	0.014447
1007.000000	0.014239
1006.000000	0.014062
1005.000000	0.013908
1004.000000	0.013769
1003.000000	0.013644
1002.000000	0.013534
1001.000000	0.013422
1000.000000	0.013280
999.000000	0.013100
998.000000	0.012900
997.000000	0.012715
996.000000	0.012563
995.000000	0.012438
994.000000	0.012320
993.000000	0.012198
992.000000	0.012074
991.000000	0.011958
990.000000	0.011850
989.000000	0.011741
988.000000	0.011633
987.000000	0.011541
986.000000	0.011479
985.000000	0.011445
984.000000	0.011420
983.000000	0.011388
982.000000	0.011345
981.000000	0.011306
980.000000	0.011291
979.000000	0.011313
978.000000	0.011365
977.000000	0.011429
976.000000	0.011495
975.000000	0.011561
974.000000	0.011621
973.000000	0.011653
972.000000	0.011642
971.000000	0.011592
970.000000	0.011519
969.000000	0.011442
968.000000	0.011370
967.000000	0.011305
966.000000	0.011238
965.000000	0.011161
964.000000	0.011072
963.000000	0.010984
962.000000	0.010908
961.000000	0.010835
960.000000	0.010744
959.000000	0.010627
958.000000	0.010492
957.000000	0.010354
956.000000	0.010221
955.000000	0.010096
954.000000	0.009982
953.000000	0.009876
952.000000	0.009766
951.000000	0.009643
950.000000	0.009513
949.000000	0.009390
948.000000	0.009287
947.000000	0.009205
946.000000	0.009139
945.000000	0.009084
944.000000	0.009038
943.000000	0.009000
942.000000	0.008959
941.000000	0.008904
940.000000	0.008828
939.000000	0.008737
938.000000	0.008641
937.000000	0.008551
936.000000	0.008474
935.000000	0.008410
934.000000	0.008343
933.000000	0.008254
932.000000	0.008130
931.000000	0.007985
930.000000	0.007853
929.000000	0.007770
928.000000	0.007745
927.000000	0.007744
926.000000	0.007721
925.000000	0.007661
924.000000	0.007591
923.000000	0.007550
922.000000	0.007536
921.000000	0.007512
920.000000	0.007445
919.000000	0.007333
918.000000	0.007194
917.000000	0.007043
916.000000	0.006889
915.000000	0.006744
914.000000	0.006613
913.000000	0.006495
912.000000	0.006387
911.000000	0.006290
910.000000	0.006210
909.000000	0.006141
908.000000	0.006073
907.000000	0.005999
906.000000	0.005915
905.000000	0.005828
904.000000	0.005749
903.000000	0.005685
902.000000	0.005626
901.000000	0.005560
900.000000	0.005482
899.000000	0.005398
898.000000	0.005313
897.000000	0.005232
896.000000	0.005168
895.000000	0.005134
894.000000	0.005122
893.000000	0.005103
892.000000	0.005067
891.000000	0.005037
890.000000	0.005063
889.000000	0.005186
888.000000	0.005438
887.000000	0.005854
886.000000	0.006465
885.000000	0.007266
884.000000	0.008203
883.000000	0.009215
882.000000	0.010293
881.000000	0.011509
880.000000	0.012949
879.000000	0.014599
878.000000	0.016299
877.000000	0.017799
876.000000	0.018879
875.000000	0.019416
874.000000	0.019385
873.000000	0.018831
872.000000	0.017846
871.000000	0.016561
870.000000	0.015133
869.000000	0.013714
868.000000	0.012430
867.000000	0.011355
866.000000	0.010501
865.000000	0.009821
864.000000	0.009261
863.000000	0.008800
862.000000	0.008437
861.000000	0.008158
860.000000	0.007921
859.000000	0.007691
858.000000	0.007468
857.000000	0.007276
856.000000	0.007129
855.000000	0.007013
854.000000	0.006909
853.000000	0.006813
852.000000	0.006744
851.000000	0.006734
850.000000	0.006794
849.000000	0.006887
848.000000	0.006937
847.000000	0.006874
846.000000	0.006694
845.000000	0.006461
844.000000	0.006256
843.000000	0.006120
842.000000	0.006047
841.000000	0.006006
840.000000	0.005965
839.000000	0.005895
838.000000	0.005788
837.000000	0.005670
836.000000	0.005584
835.000000	0.005545
834.000000	0.005533
833.000000	0.005522
832.000000	0.005509
831.000000	0.005503
830.000000	0.005497
829.000000	0.005473
828.000000	0.005425
827.000000	0.005362
826.000000	0.005293
825.000000	0.005224
824.000000	0.005170
823.000000	0.005146
822.000000	0.005155
821.000000	0.005178
820.000000	0.005194
819.000000	0.005192
818.000000	0.005172
817.000000	0.005136
816.000000	0.005095
815.000000	0.005066
814.000000	0.005072
813.000000	0.005122
812.000000	0.005204
811.000000	0.005283
810.000000	0.005315
809.000000	0.005286
808.000000	0.005216
807.000000	0.005147
806.000000	0.005115
805.000000	0.005129
804.000000	0.005170
803.000000	0.005196
802.000000	0.005181
801.000000	0.005135
800.000000	0.005101
799.000000	0.005104
798.000000	0.005141
797.000000	0.005195
796.000000	0.005258
795.000000	0.005319
794.000000	0.005364
793.000000	0.005392
792.000000	0.005418
791.000000	0.005446
790.000000	0.005464
789.000000	0.005472
788.000000	0.005488
787.000000	0.005511
786.000000	0.005509
785.000000	0.005467
784.000000	0.005424
783.000000	0.005443
782.000000	0.005529
781.000000	0.005634
780.000000	0.005708
779.000000	0.005741
778.000000	0.005744
777.000000	0.005733
776.000000	0.005724
775.000000	0.005725
774.000000	0.005719
773.000000	0.005686
772.000000	0.005634
771.000000	0.005595
770.000000	0.005593
769.000000	0.005618
768.000000	0.005645
767.000000	0.005658
766.000000	0.005661
765.000000	0.005679
764.000000	0.005738
763.000000	0.005832
762.000000	0.005920
761.000000	0.005961
760.000000	0.005962
759.000000	0.005957
758.000000	0.005970
757.000000	0.005998
756.000000	0.006031
755.000000	0.006067
754.000000	0.006112
753.000000	0.006177
752.000000	0.006267
751.000000	0.006357
750.000000	0.006404
749.000000	0.006402
748.000000	0.006401
747.000000	0.006454
746.000000	0.006537
745.000000	0.006585
744.000000	0.006579
743.000000	0.006563
742.000000	0.006584
741.000000	0.006630
740.000000	0.006666
739.000000	0.006667
738.000000	0.006638
737.000000	0.006616
736.000000	0.006657
735.000000	0.006796
734.000000	0.006991
733.000000	0.007163
732.000000	0.007273
731.000000	0.007342
730.000000	0.007397
729.000000	0.007447
728.000000	0.007501
727.000000	0.007579
726.000000	0.007685
725.000000	0.007798
724.000000	0.007902
723.000000	0.008001
722.000000	0.008098
721.000000	0.008199
720.000000	0.008332
719.000000	0.008541
718.000000	0.008864
717.000000	0.009341
716.000000	0.010030
715.000000	0.010944
714.000000	0.011931
713.000000	0.012693
712.000000	0.012987
711.000000	0.012800
710.000000	0.012315
709.000000	0.011748
708.000000	0.011253
707.000000	0.010916
706.000000	0.010756
705.000000	0.010734
704.000000	0.010775
703.000000	0.010825
702.000000	0.010865
701.000000	0.010883
700.000000	0.010879
699.000000	0.010878
698.000000	0.010913
697.000000	0.011000
696.000000	0.011115
695.000000	0.011216
694.000000	0.011257
693.000000	0.011206
692.000000	0.011089
691.000000	0.010959
690.000000	0.010853
689.000000	0.010775
688.000000	0.010744
687.000000	0.010802
686.000000	0.010943
685.000000	0.011081
684.000000	0.011145
683.000000	0.011150
682.000000	0.011163
681.000000	0.011227
680.000000	0.011353
679.000000	0.011527
678.000000	0.011688
677.000000	0.011789
676.000000	0.011841
675.000000	0.011877
674.000000	0.011884
673.000000	0.011807
672.000000	0.011619
671.000000	0.011340
670.000000	0.010996
669.000000	0.010662
668.000000	0.010688
667.000000	0.011216
666.000000	0.011623
665.000000	0.011785
664.000000	0.011858
663.000000	0.011861
662.000000	0.011807
661.000000	0.011751
660.000000	0.011729
659.000000	0.011722
658.000000	0.011712
657.000000	0.011746
656.000000	0.011843
655.000000	0.011936
654.000000	0.011974
653.000000	0.011997
652.000000	0.012039
651.000000	0.012072
650.000000	0.012084
649.000000	0.012140
648.000000	0.012281
647.000000	0.012472
646.000000	0.012673
645.000000	0.012891
644.000000	0.013115
643.000000	0.013296
642.000000	0.013414
641.000000	0.013520
640.000000	0.013662
639.000000	0.013809
638.000000	0.013916
637.000000	0.013980
636.000000	0.014001
635.000000	0.013966
634.000000	0.013896
633.000000	0.013854
632.000000	0.013858
631.000000	0.013851
630.000000	0.013810
629.000000	0.013826
628.000000	0.014012
627.000000	0.014332
626.000000	0.014603
625.000000	0.014660
624.000000	0.014503
623.000000	0.014293
622.000000	0.014196
621.000000	0.014248
620.000000	0.014352
619.000000	0.014412
618.000000	0.014434
617.000000	0.014473
616.000000	0.014543
615.000000	0.014608
614.000000	0.014661
613.000000	0.014744
612.000000	0.014873
611.000000	0.015008
610.000000	0.015109
609.000000	0.015163
608.000000	0.015160
607.000000	0.015085
606.000000	0.014976
605.000000	0.014901
604.000000	0.014872
603.000000	0.014826
602.000000	0.014695
601.000000	0.014488
600.000000	0.014271
599.000000	0.014105
598.000000	0.014004
597.000000	0.013934
596.000000	0.013839
595.000000	0.013687
594.000000	0.013502
593.000000	0.013334
592.000000	0.013211
591.000000	0.013130
590.000000	0.013088
589.000000	0.013094
588.000000	0.013135
587.000000	0.013182
586.000000	0.013218
585.000000	0.013251
584.000000	0.013284
583.000000	0.013292
582.000000	0.013246
581.000000	0.013138
580.000000	0.012998
579.000000	0.012889
578.000000	0.012861
577.000000	0.012896
576.000000	0.012919
575.000000	0.012904
574.000000	0.012908
573.000000	0.012979
572.000000	0.013056
571.000000	0.013032
570.000000	0.012911
569.000000	0.012813
568.000000	0.012833
567.000000	0.012948
566.000000	0.013085
565.000000	0.013205
564.000000	0.013296
563.000000	0.013333
562.000000	0.013302
561.000000	0.013236
560.000000	0.013202
559.000000	0.013263
558.000000	0.013424
557.000000	0.013609
556.000000	0.013694
555.000000	0.013629
554.000000	0.013511
553.000000	0.013473
552.000000	0.013529
551.000000	0.013575
550.000000	0.013553
549.000000	0.013506
548.000000	0.013472
547.000000	0.013433
546.000000	0.013393
545.000000	0.013427
544.000000	0.013558
543.000000	0.013668
542.000000	0.013624
541.000000	0.013440
540.000000	0.013256
539.000000	0.013173
538.000000	0.013161
537.000000	0.013131
536.000000	0.013050
535.000000	0.012988
534.000000	0.013037
533.000000	0.013211
532.000000	0.013429
531.000000	0.013619
530.000000	0.013783
529.000000	0.013944
528.000000	0.014042
527.000000	0.013989
526.000000	0.013815
525.000000	0.013674
524.000000	0.013659
523.000000	0.013696
522.000000	0.013662
521.000000	0.013503
520.000000	0.013242
519.000000	0.012950
518.000000	0.012723
517.000000	0.012604
516.000000	0.012520
515.000000	0.012379
514.000000	0.012221
513.000000	0.012168
512.000000	0.012230
511.000000	0.012250
510.000000	0.012099
509.000000	0.011824
508.000000	0.011563
507.000000	0.011394
506.000000	0.011304
505.000000	0.011248
504.000000	0.011168
503.000000	0.011009
502.000000	0.010788
501.000000	0.010593
500.000000	0.010474
499.000000	0.010397
498.000000	0.010334
497.000000	0.010302
496.000000	0.010290
495.000000	0.010235
494.000000	0.010113
493.000000	0.009995
492.000000	0.009934
491.000000	0.009894
490.000000	0.009820
489.000000	0.009719
488.000000	0.009612
487.000000	0.009472
486.000000	0.009277
485.000000	0.009074
484.000000	0.008921
483.000000	0.008821
482.000000	0.008767
481.000000	0.008779
480.000000	0.008832
479.000000	0.008825
478.000000	0.008699
477.000000	0.008545
476.000000	0.008484
475.000000	0.008508
474.000000	0.008510
473.000000	0.008430
472.000000	0.008316
471.000000	0.008249
470.000000	0.008260
469.000000	0.008322
468.000000	0.008368
467.000000	0.008341
466.000000	0.008288
465.000000	0.008317
464.000000	0.008400
463.000000	0.008314
462.000000	0.007888
461.000000	0.007258
460.000000	0.006748
459.000000	0.006534
458.000000	0.006508
457.000000	0.006437
456.000000	0.006240
455.000000	0.006011
454.000000	0.005835
453.000000	0.005720
452.000000	0.005620
451.000000	0.005335
450.000000	0.004978
