PE UV       SUBTECH     SPECTRUM    ASCII       PEDS        4.00        
   -1
veau2_chair_2.Sample.asc
23/09/14
11:27:50.00
23/09/14
11:27:50.00
Administrator

250.000000
1
Lambda 750
750N8071901
PerkinElmer UV WinLab 6.0.4.0738 / 1.61.00 Lambda 900

0
0
3350/servo 860.8/2
0
0
UV/VIS
1
1
1
CommonBeamDepol,150mm sphere / downward view
0
0
0
0
Program
Program
3350/servo 860.8/2
3350/0.2 860.8/0.2
3350/0.2 860.8/0.2
0
1
 
 
 
0
 
860.8
319.2
860.8
Front
100
on
 
 
0
0
0
 
0
 
 
 
0
 
 
0
0
0
0
0
 
 
 
 
0
0


0
0
#HDR
-1
-1
#GR
nm
%R
1.0
0.0
2500.000000
-10.000000
226
8
60.124707
14.542305
#DATA
2500.000000	18.013988
2490.000000	19.191776
2480.000000	19.442950
2470.000000	20.403538
2460.000000	21.346087
2450.000000	21.418684
2440.000000	22.188032
2430.000000	23.041289
2420.000000	23.402906
2410.000000	22.799174
2400.000000	23.167033
2390.000000	23.585797
2380.000000	24.101524
2370.000000	23.240035
2360.000000	23.578025
2350.000000	23.970966
2340.000000	23.492269
2330.000000	23.514808
2320.000000	22.805520
2310.000000	22.512972
2300.000000	21.886287
2290.000000	21.999665
2280.000000	22.898874
2270.000000	23.767428
2260.000000	26.041618
2250.000000	26.943510
2240.000000	27.337615
2230.000000	26.765844
2220.000000	26.545631
2210.000000	25.710664
2200.000000	25.176003
2190.000000	25.271135
2180.000000	25.719698
2170.000000	26.878419
2160.000000	28.166470
2150.000000	29.163287
2140.000000	29.604165
2130.000000	29.766775
2120.000000	29.954110
2110.000000	29.942013
2100.000000	29.581969
2090.000000	28.650865
2080.000000	27.484442
2070.000000	26.280015
2060.000000	25.512458
2050.000000	25.806118
2040.000000	26.464326
2030.000000	26.383071
2020.000000	25.612436
2010.000000	24.555749
2000.000000	23.509444
1990.000000	22.423163
1980.000000	21.635491
1970.000000	20.808711
1960.000000	20.675677
1950.000000	21.363827
1940.000000	23.033072
1930.000000	25.564470
1920.000000	29.656819
1910.000000	34.480257
1900.000000	38.634584
1890.000000	42.030736
1880.000000	44.084391
1870.000000	44.873924
1860.000000	44.944311
1850.000000	44.659878
1840.000000	44.341637
1830.000000	43.973642
1820.000000	43.614042
1810.000000	43.306335
1800.000000	43.102441
1790.000000	42.955170
1780.000000	42.604194
1770.000000	42.271936
1760.000000	41.883682
1750.000000	41.605432
1740.000000	41.876879
1730.000000	42.791518
1720.000000	43.395766
1710.000000	43.552279
1700.000000	44.274913
1690.000000	45.653891
1680.000000	46.932028
1670.000000	47.444325
1660.000000	47.542136
1650.000000	47.244804
1640.000000	46.792002
1630.000000	46.232161
1620.000000	45.578870
1610.000000	44.953070
1600.000000	44.402563
1590.000000	43.918052
1580.000000	43.463817
1570.000000	43.203396
1560.000000	42.795933
1550.000000	41.969200
1540.000000	41.199473
1530.000000	40.775356
1520.000000	40.469983
1510.000000	40.326245
1500.000000	40.335756
1490.000000	40.450285
1480.000000	40.653423
1470.000000	41.012267
1460.000000	41.643323
1450.000000	42.601943
1440.000000	43.988464
1430.000000	45.877118
1420.000000	48.183716
1410.000000	50.371087
1400.000000	52.003844
1390.000000	52.997451
1380.000000	53.615371
1370.000000	54.168019
1360.000000	54.719718
1350.000000	55.213658
1340.000000	55.617133
1330.000000	56.052994
1320.000000	56.379747
1310.000000	56.583012
1300.000000	56.577731
1290.000000	56.520296
1280.000000	56.493037
1270.000000	56.490856
1260.000000	56.470691
1250.000000	56.373011
1240.000000	56.238924
1230.000000	56.051246
1220.000000	55.706357
1210.000000	55.473108
1200.000000	55.401979
1190.000000	55.670424
1180.000000	56.173743
1170.000000	56.820489
1160.000000	57.400230
1150.000000	57.793452
1140.000000	58.072763
1130.000000	58.196613
1120.000000	58.261661
1110.000000	58.334338
1100.000000	58.327463
1090.000000	58.289826
1080.000000	58.253061
1070.000000	58.248358
1060.000000	58.201133
1050.000000	58.171956
1040.000000	58.133631
1030.000000	58.075472
1020.000000	58.151214
1010.000000	58.241205
1000.000000	58.325957
990.000000	58.432772
980.000000	58.576175
970.000000	58.729364
960.000000	58.905402
950.000000	58.999736
940.000000	59.122925
930.000000	59.165353
920.000000	59.269611
910.000000	59.429672
900.000000	59.563796
890.000000	59.765082
880.000000	59.764023
870.000000	60.124707
860.000000	59.885006
850.000000	58.893814
840.000000	59.104094
830.000000	59.227796
820.000000	59.117205
810.000000	59.075843
800.000000	59.060207
790.000000	59.151447
780.000000	59.140368
770.000000	59.088428
760.000000	59.128642
750.000000	59.107762
740.000000	58.983813
730.000000	58.978573
720.000000	58.920512
710.000000	58.839603
700.000000	58.814813
690.000000	58.738815
680.000000	58.593878
670.000000	58.453131
660.000000	58.299829
650.000000	58.167320
640.000000	57.936414
630.000000	57.818714
620.000000	57.722053
610.000000	57.523181
600.000000	57.365910
590.000000	57.175362
580.000000	56.962064
570.000000	56.879696
560.000000	56.638487
550.000000	56.426681
540.000000	56.151103
530.000000	55.886783
520.000000	55.598424
510.000000	55.225832
500.000000	54.838540
490.000000	54.267341
480.000000	53.758493
470.000000	52.985650
460.000000	51.872507
450.000000	50.835531
440.000000	49.526172
430.000000	48.002313
420.000000	46.536271
410.000000	45.177062
400.000000	43.965711
390.000000	42.815366
380.000000	41.195925
370.000000	39.378598
360.000000	37.651696
350.000000	35.436267
340.000000	32.987550
330.000000	30.655147
320.000000	27.995629
310.000000	26.242424
300.000000	23.130016
290.000000	18.023288
280.000000	14.579401
270.000000	14.949602
260.000000	15.350172
250.000000	14.542305
