PE UV       SUBTECH     SPECTRUM    ASCII       PEDS        4.00        
   -1
TDmsopph201.Sample.asc
18/03/19
12:26:46.00
18/03/19
12:26:46.00
Administrator

200.000000
1
Lambda 750
750N8071901
PerkinElmer UV WinLab 6.0.4.0738 / 1.61.00 Lambda 900

0
0
3350/servo 860.8/2
0
0
UV/VIS
1
1
1
CommonBeamDepol,150mm sphere / downward view
0
0
0
0
Program
Program
3350/servo 860.8/2
3350/0.2 860.8/0.2
3350/0.2 860.8/0.2
0
1
 
 
 
0
 
860.8
319.2
860.8
Front
100
on
 
 
0
0
0
 
0
 
 
 
0
 
 
0
0
0
0
0
 
 
 
 
0
0


0
0
#HDR
-1
-1
#GR
nm
%T
1.0
0.0
2350.000000
-1.000000
2151
8
8.382141
-0.021419
#DATA
2350.000000	1.675071
2349.000000	1.468300
2348.000000	1.616150
2347.000000	2.381544
2346.000000	1.808727
2345.000000	1.496790
2344.000000	1.506582
2343.000000	1.574900
2342.000000	1.729659
2341.000000	1.499924
2340.000000	1.534914
2339.000000	2.079788
2338.000000	2.074619
2337.000000	2.283870
2336.000000	2.187900
2335.000000	2.716336
2334.000000	2.320395
2333.000000	2.596108
2332.000000	2.555441
2331.000000	2.439654
2330.000000	2.440850
2329.000000	2.592145
2328.000000	2.704409
2327.000000	2.473813
2326.000000	2.140730
2325.000000	2.443132
2324.000000	2.409183
2323.000000	2.205251
2322.000000	2.311490
2321.000000	2.222085
2320.000000	2.209913
2319.000000	2.233504
2318.000000	2.512959
2317.000000	2.385324
2316.000000	2.447010
2315.000000	2.217721
2314.000000	1.999198
2313.000000	1.958687
2312.000000	1.778765
2311.000000	1.909545
2310.000000	1.904701
2309.000000	2.033333
2308.000000	1.853105
2307.000000	1.743990
2306.000000	1.866344
2305.000000	2.011518
2304.000000	1.924124
2303.000000	2.115528
2302.000000	2.285616
2301.000000	2.218746
2300.000000	2.188361
2299.000000	1.831315
2298.000000	1.583353
2297.000000	1.689180
2296.000000	1.904081
2295.000000	2.173622
2294.000000	1.918014
2293.000000	1.902175
2292.000000	1.677861
2291.000000	1.672994
2290.000000	1.736743
2289.000000	1.910180
2288.000000	2.004303
2287.000000	1.870810
2286.000000	1.975132
2285.000000	1.919995
2284.000000	1.813644
2283.000000	1.848513
2282.000000	1.830294
2281.000000	2.011003
2280.000000	1.914235
2279.000000	1.724051
2278.000000	1.655378
2277.000000	1.769968
2276.000000	1.700974
2275.000000	1.675590
2274.000000	1.719990
2273.000000	1.808492
2272.000000	1.862765
2271.000000	1.742764
2270.000000	1.654058
2269.000000	1.671109
2268.000000	1.709780
2267.000000	1.748412
2266.000000	1.839759
2265.000000	1.902306
2264.000000	1.924555
2263.000000	1.823885
2262.000000	1.884883
2261.000000	1.959485
2260.000000	1.938601
2259.000000	1.963201
2258.000000	2.009967
2257.000000	2.071823
2256.000000	2.137858
2255.000000	2.066927
2254.000000	2.056671
2253.000000	1.980314
2252.000000	1.979479
2251.000000	2.048771
2250.000000	2.128409
2249.000000	2.307207
2248.000000	2.421172
2247.000000	2.418843
2246.000000	2.450501
2245.000000	2.494052
2244.000000	2.602372
2243.000000	2.613141
2242.000000	2.535210
2241.000000	2.525362
2240.000000	2.427986
2239.000000	2.466729
2238.000000	2.627589
2237.000000	2.652276
2236.000000	2.604422
2235.000000	2.532128
2234.000000	2.683132
2233.000000	2.636158
2232.000000	2.636272
2231.000000	2.750709
2230.000000	2.735926
2229.000000	2.691502
2228.000000	2.742065
2227.000000	2.744532
2226.000000	2.721866
2225.000000	2.707533
2224.000000	2.658622
2223.000000	2.628023
2222.000000	2.678989
2221.000000	2.695350
2220.000000	2.610227
2219.000000	2.537837
2218.000000	2.584396
2217.000000	2.532163
2216.000000	2.626973
2215.000000	2.690726
2214.000000	2.637228
2213.000000	2.746427
2212.000000	2.657206
2211.000000	2.542804
2210.000000	2.508523
2209.000000	2.623660
2208.000000	2.577053
2207.000000	2.569203
2206.000000	2.645465
2205.000000	2.463787
2204.000000	2.521452
2203.000000	2.516000
2202.000000	2.594484
2201.000000	2.533990
2200.000000	2.426501
2199.000000	2.526028
2198.000000	2.431241
2197.000000	2.438291
2196.000000	2.396079
2195.000000	2.352935
2194.000000	2.394257
2193.000000	2.182886
2192.000000	2.156422
2191.000000	2.227733
2190.000000	2.359331
2189.000000	2.245049
2188.000000	2.134402
2187.000000	2.219512
2186.000000	2.384713
2185.000000	2.395123
2184.000000	2.177026
2183.000000	2.236200
2182.000000	2.192808
2181.000000	2.213056
2180.000000	2.249285
2179.000000	2.281746
2178.000000	2.369388
2177.000000	2.343765
2176.000000	2.092639
2175.000000	2.162008
2174.000000	2.300847
2173.000000	2.268073
2172.000000	2.446995
2171.000000	2.396742
2170.000000	2.395036
2169.000000	2.391343
2168.000000	2.451483
2167.000000	2.401119
2166.000000	2.501441
2165.000000	2.338327
2164.000000	2.448032
2163.000000	2.301022
2162.000000	2.248090
2161.000000	2.315635
2160.000000	2.348018
2159.000000	2.533999
2158.000000	2.595520
2157.000000	2.448753
2156.000000	2.504821
2155.000000	2.483176
2154.000000	2.531922
2153.000000	2.650732
2152.000000	2.403048
2151.000000	2.496389
2150.000000	2.527696
2149.000000	2.495892
2148.000000	2.472768
2147.000000	2.875620
2146.000000	2.639462
2145.000000	2.692360
2144.000000	2.636268
2143.000000	2.890890
2142.000000	2.771053
2141.000000	2.871640
2140.000000	2.683077
2139.000000	2.800144
2138.000000	2.924500
2137.000000	2.980431
2136.000000	2.941503
2135.000000	2.734762
2134.000000	3.047314
2133.000000	2.747230
2132.000000	2.916999
2131.000000	2.935374
2130.000000	2.942478
2129.000000	3.125605
2128.000000	2.940859
2127.000000	3.029380
2126.000000	2.886428
2125.000000	2.718312
2124.000000	2.786996
2123.000000	2.897109
2122.000000	3.039936
2121.000000	2.999070
2120.000000	2.990193
2119.000000	2.889626
2118.000000	2.960055
2117.000000	2.963846
2116.000000	2.956333
2115.000000	3.055523
2114.000000	2.877251
2113.000000	3.006679
2112.000000	3.033487
2111.000000	2.921688
2110.000000	2.918269
2109.000000	2.928671
2108.000000	2.929865
2107.000000	2.984574
2106.000000	3.001464
2105.000000	2.995328
2104.000000	3.056706
2103.000000	3.013363
2102.000000	3.040467
2101.000000	3.000035
2100.000000	3.138428
2099.000000	3.035438
2098.000000	2.951708
2097.000000	2.905021
2096.000000	2.839421
2095.000000	2.960232
2094.000000	2.969386
2093.000000	2.922237
2092.000000	3.077824
2091.000000	3.043298
2090.000000	3.043869
2089.000000	2.936590
2088.000000	2.931506
2087.000000	3.003329
2086.000000	2.870581
2085.000000	2.981665
2084.000000	2.952847
2083.000000	2.983558
2082.000000	2.866697
2081.000000	2.911453
2080.000000	2.911697
2079.000000	2.874226
2078.000000	2.856808
2077.000000	2.842329
2076.000000	2.842180
2075.000000	2.889950
2074.000000	2.839440
2073.000000	2.879834
2072.000000	2.795041
2071.000000	2.801598
2070.000000	2.731596
2069.000000	2.674473
2068.000000	2.655119
2067.000000	2.601684
2066.000000	2.555729
2065.000000	2.495999
2064.000000	2.458845
2063.000000	2.432623
2062.000000	2.462398
2061.000000	2.406327
2060.000000	2.403874
2059.000000	2.393214
2058.000000	2.409441
2057.000000	2.373810
2056.000000	2.298585
2055.000000	2.293860
2054.000000	2.300708
2053.000000	2.212484
2052.000000	2.153121
2051.000000	2.090480
2050.000000	2.116201
2049.000000	2.147412
2048.000000	2.121666
2047.000000	2.077383
2046.000000	2.097010
2045.000000	2.083099
2044.000000	2.066355
2043.000000	2.071684
2042.000000	2.021197
2041.000000	2.091429
2040.000000	2.174763
2039.000000	2.144864
2038.000000	2.122029
2037.000000	2.135092
2036.000000	2.110537
2035.000000	2.116501
2034.000000	2.135508
2033.000000	2.136311
2032.000000	2.158347
2031.000000	2.157009
2030.000000	2.154231
2029.000000	2.178798
2028.000000	2.211693
2027.000000	2.247567
2026.000000	2.274628
2025.000000	2.282204
2024.000000	2.263549
2023.000000	2.259116
2022.000000	2.266725
2021.000000	2.298244
2020.000000	2.309580
2019.000000	2.322472
2018.000000	2.353941
2017.000000	2.362438
2016.000000	2.343279
2015.000000	2.298883
2014.000000	2.295930
2013.000000	2.303804
2012.000000	2.312996
2011.000000	2.333619
2010.000000	2.345231
2009.000000	2.309004
2008.000000	2.263256
2007.000000	2.262397
2006.000000	2.277825
2005.000000	2.226569
2004.000000	2.199396
2003.000000	2.222975
2002.000000	2.242479
2001.000000	2.207197
2000.000000	2.187668
1999.000000	2.126813
1998.000000	2.128087
1997.000000	2.106695
1996.000000	2.137065
1995.000000	2.117089
1994.000000	2.091334
1993.000000	2.081244
1992.000000	2.081100
1991.000000	2.019384
1990.000000	1.982726
1989.000000	1.943316
1988.000000	1.977581
1987.000000	1.976424
1986.000000	1.982480
1985.000000	1.962037
1984.000000	1.904916
1983.000000	1.882495
1982.000000	1.927904
1981.000000	1.934648
1980.000000	1.909163
1979.000000	1.885876
1978.000000	1.850234
1977.000000	1.813831
1976.000000	1.800227
1975.000000	1.815063
1974.000000	1.787918
1973.000000	1.814712
1972.000000	1.745408
1971.000000	1.763342
1970.000000	1.781601
1969.000000	1.759087
1968.000000	1.748751
1967.000000	1.737885
1966.000000	1.758012
1965.000000	1.745002
1964.000000	1.752459
1963.000000	1.751984
1962.000000	1.709291
1961.000000	1.731741
1960.000000	1.660669
1959.000000	1.698053
1958.000000	1.705720
1957.000000	1.663013
1956.000000	1.702508
1955.000000	1.672193
1954.000000	1.600206
1953.000000	1.665422
1952.000000	1.703251
1951.000000	1.621559
1950.000000	1.635018
1949.000000	1.638371
1948.000000	1.610112
1947.000000	1.599443
1946.000000	1.610054
1945.000000	1.630288
1944.000000	1.632174
1943.000000	1.729280
1942.000000	1.718302
1941.000000	1.676772
1940.000000	1.698015
1939.000000	1.714868
1938.000000	1.769225
1937.000000	1.729145
1936.000000	1.862416
1935.000000	1.905009
1934.000000	1.850495
1933.000000	1.811567
1932.000000	1.810027
1931.000000	1.799197
1930.000000	1.876617
1929.000000	1.796567
1928.000000	1.854352
1927.000000	1.818001
1926.000000	1.911210
1925.000000	1.940855
1924.000000	1.977381
1923.000000	1.957882
1922.000000	2.000801
1921.000000	2.133817
1920.000000	2.030805
1919.000000	2.089411
1918.000000	2.170996
1917.000000	2.307239
1916.000000	2.255084
1915.000000	2.342869
1914.000000	2.445711
1913.000000	2.502543
1912.000000	2.571114
1911.000000	2.581225
1910.000000	2.589955
1909.000000	2.582035
1908.000000	2.747405
1907.000000	2.891130
1906.000000	2.940258
1905.000000	3.058708
1904.000000	3.094579
1903.000000	3.214492
1902.000000	3.325350
1901.000000	3.332806
1900.000000	3.457387
1899.000000	3.570356
1898.000000	3.774046
1897.000000	3.765482
1896.000000	3.923201
1895.000000	4.047107
1894.000000	4.069952
1893.000000	4.214805
1892.000000	4.324535
1891.000000	4.417874
1890.000000	4.577819
1889.000000	4.680835
1888.000000	4.791766
1887.000000	4.895446
1886.000000	4.990559
1885.000000	5.130248
1884.000000	5.172697
1883.000000	5.335489
1882.000000	5.387343
1881.000000	5.457483
1880.000000	5.540130
1879.000000	5.656823
1878.000000	5.765598
1877.000000	5.827315
1876.000000	5.868541
1875.000000	5.990436
1874.000000	6.041147
1873.000000	6.092352
1872.000000	6.147648
1871.000000	6.213480
1870.000000	6.175555
1869.000000	6.248729
1868.000000	6.318514
1867.000000	6.298583
1866.000000	6.323827
1865.000000	6.365666
1864.000000	6.424373
1863.000000	6.425558
1862.000000	6.384419
1861.000000	6.405104
1860.000000	6.470845
1859.000000	6.470022
1858.000000	6.480591
1857.000000	6.462230
1856.000000	6.475801
1855.000000	6.472138
1854.000000	6.507128
1853.000000	6.475382
1852.000000	6.463356
1851.000000	6.482705
1850.000000	6.517112
1849.000000	6.508857
1848.000000	6.527299
1847.000000	6.497497
1846.000000	6.497651
1845.000000	6.526436
1844.000000	6.512204
1843.000000	6.478420
1842.000000	6.485345
1841.000000	6.504118
1840.000000	6.457591
1839.000000	6.459932
1838.000000	6.447737
1837.000000	6.419411
1836.000000	6.399450
1835.000000	6.373365
1834.000000	6.366592
1833.000000	6.333195
1832.000000	6.333245
1831.000000	6.292910
1830.000000	6.272358
1829.000000	6.290632
1828.000000	6.274675
1827.000000	6.241647
1826.000000	6.218894
1825.000000	6.228817
1824.000000	6.227982
1823.000000	6.216828
1822.000000	6.190259
1821.000000	6.160672
1820.000000	6.167152
1819.000000	6.168298
1818.000000	6.152467
1817.000000	6.141763
1816.000000	6.120990
1815.000000	6.116341
1814.000000	6.100921
1813.000000	6.073995
1812.000000	6.068454
1811.000000	6.069461
1810.000000	6.069269
1809.000000	6.058575
1808.000000	6.049121
1807.000000	6.043784
1806.000000	6.033806
1805.000000	6.028586
1804.000000	6.021281
1803.000000	6.001363
1802.000000	5.988855
1801.000000	5.991965
1800.000000	5.989121
1799.000000	5.989091
1798.000000	5.995309
1797.000000	5.991599
1796.000000	5.976713
1795.000000	5.968031
1794.000000	5.990706
1793.000000	6.004598
1792.000000	5.999018
1791.000000	5.976048
1790.000000	5.960721
1789.000000	5.968970
1788.000000	5.985427
1787.000000	5.969034
1786.000000	5.985547
1785.000000	5.981480
1784.000000	5.955752
1783.000000	5.946534
1782.000000	5.939726
1781.000000	5.910562
1780.000000	5.890954
1779.000000	5.890286
1778.000000	5.904365
1777.000000	5.876787
1776.000000	5.856116
1775.000000	5.861913
1774.000000	5.840423
1773.000000	5.802955
1772.000000	5.797543
1771.000000	5.781116
1770.000000	5.775717
1769.000000	5.764606
1768.000000	5.745483
1767.000000	5.727958
1766.000000	5.722777
1765.000000	5.667576
1764.000000	5.662807
1763.000000	5.670908
1762.000000	5.638963
1761.000000	5.584566
1760.000000	5.557249
1759.000000	5.564115
1758.000000	5.555403
1757.000000	5.550756
1756.000000	5.535020
1755.000000	5.513400
1754.000000	5.497726
1753.000000	5.483850
1752.000000	5.472393
1751.000000	5.456899
1750.000000	5.469563
1749.000000	5.422307
1748.000000	5.402942
1747.000000	5.387824
1746.000000	5.384099
1745.000000	5.364002
1744.000000	5.309820
1743.000000	5.309685
1742.000000	5.265618
1741.000000	5.249949
1740.000000	5.282592
1739.000000	5.272313
1738.000000	5.239451
1737.000000	5.240538
1736.000000	5.225258
1735.000000	5.221054
1734.000000	5.230408
1733.000000	5.255916
1732.000000	5.213910
1731.000000	5.219591
1730.000000	5.222510
1729.000000	5.222340
1728.000000	5.224000
1727.000000	5.235996
1726.000000	5.233652
1725.000000	5.250240
1724.000000	5.282553
1723.000000	5.319961
1722.000000	5.321074
1721.000000	5.372881
1720.000000	5.377410
1719.000000	5.399579
1718.000000	5.407723
1717.000000	5.448319
1716.000000	5.493199
1715.000000	5.480962
1714.000000	5.515094
1713.000000	5.495466
1712.000000	5.525471
1711.000000	5.568068
1710.000000	5.531598
1709.000000	5.561837
1708.000000	5.576106
1707.000000	5.581624
1706.000000	5.585105
1705.000000	5.590243
1704.000000	5.620254
1703.000000	5.597618
1702.000000	5.592156
1701.000000	5.625353
1700.000000	5.615615
1699.000000	5.614311
1698.000000	5.620662
1697.000000	5.646127
1696.000000	5.622650
1695.000000	5.636513
1694.000000	5.652772
1693.000000	5.683604
1692.000000	5.668787
1691.000000	5.679919
1690.000000	5.674976
1689.000000	5.686380
1688.000000	5.731689
1687.000000	5.766581
1686.000000	5.790819
1685.000000	5.840583
1684.000000	5.880447
1683.000000	5.930941
1682.000000	5.976809
1681.000000	6.002515
1680.000000	6.048186
1679.000000	6.099428
1678.000000	6.112427
1677.000000	6.121475
1676.000000	6.206175
1675.000000	6.268830
1674.000000	6.315274
1673.000000	6.358881
1672.000000	6.384894
1671.000000	6.427170
1670.000000	6.481889
1669.000000	6.513271
1668.000000	6.569015
1667.000000	6.616041
1666.000000	6.605506
1665.000000	6.617198
1664.000000	6.638574
1663.000000	6.663979
1662.000000	6.694242
1661.000000	6.709952
1660.000000	6.741347
1659.000000	6.746734
1658.000000	6.741382
1657.000000	6.781196
1656.000000	6.797206
1655.000000	6.800777
1654.000000	6.821826
1653.000000	6.834704
1652.000000	6.859078
1651.000000	6.851354
1650.000000	6.828106
1649.000000	6.808982
1648.000000	6.788323
1647.000000	6.802803
1646.000000	6.806570
1645.000000	6.823522
1644.000000	6.801139
1643.000000	6.795918
1642.000000	6.776423
1641.000000	6.768558
1640.000000	6.756137
1639.000000	6.723609
1638.000000	6.727024
1637.000000	6.743539
1636.000000	6.730385
1635.000000	6.689169
1634.000000	6.673347
1633.000000	6.658620
1632.000000	6.649165
1631.000000	6.644791
1630.000000	6.630184
1629.000000	6.605304
1628.000000	6.584990
1627.000000	6.577869
1626.000000	6.560101
1625.000000	6.535149
1624.000000	6.521265
1623.000000	6.505436
1622.000000	6.501675
1621.000000	6.487857
1620.000000	6.471967
1619.000000	6.460725
1618.000000	6.446746
1617.000000	6.427442
1616.000000	6.396026
1615.000000	6.375541
1614.000000	6.362315
1613.000000	6.348006
1612.000000	6.337155
1611.000000	6.324591
1610.000000	6.298037
1609.000000	6.275604
1608.000000	6.278608
1607.000000	6.253915
1606.000000	6.211925
1605.000000	6.205075
1604.000000	6.189433
1603.000000	6.154352
1602.000000	6.130482
1601.000000	6.119519
1600.000000	6.111083
1599.000000	6.095610
1598.000000	6.072489
1597.000000	6.059646
1596.000000	6.040232
1595.000000	6.013653
1594.000000	6.005270
1593.000000	6.009220
1592.000000	5.991044
1591.000000	5.976034
1590.000000	5.953730
1589.000000	5.932070
1588.000000	5.915050
1587.000000	5.898900
1586.000000	5.895443
1585.000000	5.891334
1584.000000	5.865115
1583.000000	5.846372
1582.000000	5.835137
1581.000000	5.832176
1580.000000	5.817837
1579.000000	5.796189
1578.000000	5.793473
1577.000000	5.781479
1576.000000	5.766299
1575.000000	5.747118
1574.000000	5.727205
1573.000000	5.707990
1572.000000	5.713181
1571.000000	5.708547
1570.000000	5.687542
1569.000000	5.660513
1568.000000	5.652063
1567.000000	5.645135
1566.000000	5.629596
1565.000000	5.630675
1564.000000	5.628043
1563.000000	5.613205
1562.000000	5.603096
1561.000000	5.609974
1560.000000	5.583689
1559.000000	5.556700
1558.000000	5.538950
1557.000000	5.537332
1556.000000	5.535884
1555.000000	5.522422
1554.000000	5.525779
1553.000000	5.521174
1552.000000	5.520908
1551.000000	5.495446
1550.000000	5.484678
1549.000000	5.467015
1548.000000	5.462861
1547.000000	5.447575
1546.000000	5.429547
1545.000000	5.403327
1544.000000	5.373311
1543.000000	5.341814
1542.000000	5.325946
1541.000000	5.297531
1540.000000	5.276550
1539.000000	5.252402
1538.000000	5.238365
1537.000000	5.205059
1536.000000	5.147758
1535.000000	5.135816
1534.000000	5.122302
1533.000000	5.109619
1532.000000	5.070834
1531.000000	5.044923
1530.000000	5.022613
1529.000000	4.995535
1528.000000	4.972766
1527.000000	4.957276
1526.000000	4.934653
1525.000000	4.919652
1524.000000	4.894272
1523.000000	4.888340
1522.000000	4.885271
1521.000000	4.868413
1520.000000	4.858020
1519.000000	4.859251
1518.000000	4.850668
1517.000000	4.827602
1516.000000	4.816978
1515.000000	4.798679
1514.000000	4.791695
1513.000000	4.774246
1512.000000	4.767814
1511.000000	4.771286
1510.000000	4.762765
1509.000000	4.758951
1508.000000	4.764461
1507.000000	4.742632
1506.000000	4.748453
1505.000000	4.742431
1504.000000	4.734874
1503.000000	4.747339
1502.000000	4.754631
1501.000000	4.770758
1500.000000	4.786438
1499.000000	4.784118
1498.000000	4.765867
1497.000000	4.765331
1496.000000	4.780855
1495.000000	4.755357
1494.000000	4.771478
1493.000000	4.766118
1492.000000	4.774078
1491.000000	4.789623
1490.000000	4.783933
1489.000000	4.783515
1488.000000	4.804372
1487.000000	4.796165
1486.000000	4.804683
1485.000000	4.821302
1484.000000	4.824168
1483.000000	4.833568
1482.000000	4.816867
1481.000000	4.868291
1480.000000	4.877465
1479.000000	4.882701
1478.000000	4.887915
1477.000000	4.875537
1476.000000	4.890770
1475.000000	4.894439
1474.000000	4.905704
1473.000000	4.912245
1472.000000	4.901382
1471.000000	4.935743
1470.000000	4.937402
1469.000000	4.945336
1468.000000	4.961164
1467.000000	4.982634
1466.000000	5.018236
1465.000000	5.013974
1464.000000	5.022253
1463.000000	5.056933
1462.000000	5.068784
1461.000000	5.061470
1460.000000	5.059341
1459.000000	5.079550
1458.000000	5.111385
1457.000000	5.117954
1456.000000	5.109485
1455.000000	5.126832
1454.000000	5.165252
1453.000000	5.183405
1452.000000	5.179647
1451.000000	5.180601
1450.000000	5.177202
1449.000000	5.207371
1448.000000	5.251124
1447.000000	5.265176
1446.000000	5.255775
1445.000000	5.275878
1444.000000	5.281478
1443.000000	5.299900
1442.000000	5.352434
1441.000000	5.391768
1440.000000	5.394985
1439.000000	5.397040
1438.000000	5.409320
1437.000000	5.433970
1436.000000	5.448073
1435.000000	5.475066
1434.000000	5.493473
1433.000000	5.507570
1432.000000	5.528549
1431.000000	5.569763
1430.000000	5.611514
1429.000000	5.634800
1428.000000	5.669468
1427.000000	5.715224
1426.000000	5.746654
1425.000000	5.792147
1424.000000	5.834552
1423.000000	5.876933
1422.000000	5.924809
1421.000000	5.956916
1420.000000	6.011682
1419.000000	6.053961
1418.000000	6.075490
1417.000000	6.110555
1416.000000	6.159271
1415.000000	6.210466
1414.000000	6.250310
1413.000000	6.275980
1412.000000	6.335474
1411.000000	6.391625
1410.000000	6.453824
1409.000000	6.492434
1408.000000	6.523847
1407.000000	6.568604
1406.000000	6.634428
1405.000000	6.691329
1404.000000	6.755051
1403.000000	6.799891
1402.000000	6.834867
1401.000000	6.865821
1400.000000	6.912906
1399.000000	6.967564
1398.000000	7.008275
1397.000000	7.050073
1396.000000	7.091898
1395.000000	7.137665
1394.000000	7.186110
1393.000000	7.230042
1392.000000	7.257734
1391.000000	7.297027
1390.000000	7.329680
1389.000000	7.377239
1388.000000	7.439913
1387.000000	7.476114
1386.000000	7.491108
1385.000000	7.516708
1384.000000	7.566494
1383.000000	7.588684
1382.000000	7.592555
1381.000000	7.630214
1380.000000	7.666683
1379.000000	7.674951
1378.000000	7.687184
1377.000000	7.713897
1376.000000	7.726692
1375.000000	7.718918
1374.000000	7.716105
1373.000000	7.750408
1372.000000	7.794552
1371.000000	7.799870
1370.000000	7.798351
1369.000000	7.801365
1368.000000	7.800519
1367.000000	7.805963
1366.000000	7.804262
1365.000000	7.803566
1364.000000	7.814754
1363.000000	7.841044
1362.000000	7.873517
1361.000000	7.893915
1360.000000	7.896535
1359.000000	7.892471
1358.000000	7.892662
1357.000000	7.895426
1356.000000	7.926950
1355.000000	7.963049
1354.000000	7.971050
1353.000000	7.958904
1352.000000	7.977324
1351.000000	8.011896
1350.000000	8.026467
1349.000000	8.055859
1348.000000	8.070629
1347.000000	8.062624
1346.000000	8.064577
1345.000000	8.090338
1344.000000	8.129922
1343.000000	8.135788
1342.000000	8.122240
1341.000000	8.131025
1340.000000	8.136457
1339.000000	8.152729
1338.000000	8.182780
1337.000000	8.202564
1336.000000	8.218619
1335.000000	8.211827
1334.000000	8.208228
1333.000000	8.204064
1332.000000	8.217155
1331.000000	8.243922
1330.000000	8.257782
1329.000000	8.270118
1328.000000	8.268684
1327.000000	8.286065
1326.000000	8.313653
1325.000000	8.301271
1324.000000	8.289278
1323.000000	8.313772
1322.000000	8.326038
1321.000000	8.318919
1320.000000	8.327116
1319.000000	8.345174
1318.000000	8.367351
1317.000000	8.369186
1316.000000	8.344865
1315.000000	8.332954
1314.000000	8.344748
1313.000000	8.351672
1312.000000	8.373414
1311.000000	8.367683
1310.000000	8.350663
1309.000000	8.331030
1308.000000	8.333148
1307.000000	8.351027
1306.000000	8.366813
1305.000000	8.355846
1304.000000	8.342961
1303.000000	8.361186
1302.000000	8.382141
1301.000000	8.363004
1300.000000	8.341587
1299.000000	8.327030
1298.000000	8.338186
1297.000000	8.314105
1296.000000	8.316163
1295.000000	8.303327
1294.000000	8.298704
1293.000000	8.312890
1292.000000	8.309009
1291.000000	8.299081
1290.000000	8.290925
1289.000000	8.283384
1288.000000	8.293990
1287.000000	8.285678
1286.000000	8.231989
1285.000000	8.232419
1284.000000	8.233053
1283.000000	8.235983
1282.000000	8.231702
1281.000000	8.231155
1280.000000	8.233404
1279.000000	8.244309
1278.000000	8.233988
1277.000000	8.248580
1276.000000	8.245201
1275.000000	8.239008
1274.000000	8.230357
1273.000000	8.232962
1272.000000	8.237268
1271.000000	8.235263
1270.000000	8.225947
1269.000000	8.213906
1268.000000	8.217951
1267.000000	8.216940
1266.000000	8.226461
1265.000000	8.185204
1264.000000	8.222499
1263.000000	8.257677
1262.000000	8.276256
1261.000000	8.266767
1260.000000	8.240065
1259.000000	8.195855
1258.000000	8.206645
1257.000000	8.262045
1256.000000	8.263643
1255.000000	8.254288
1254.000000	8.232544
1253.000000	8.224174
1252.000000	8.209550
1251.000000	8.212598
1250.000000	8.204589
1249.000000	8.189226
1248.000000	8.190190
1247.000000	8.200031
1246.000000	8.190562
1245.000000	8.178637
1244.000000	8.181610
1243.000000	8.180503
1242.000000	8.165505
1241.000000	8.127876
1240.000000	8.097742
1239.000000	8.111705
1238.000000	8.111271
1237.000000	8.060344
1236.000000	8.055825
1235.000000	8.053211
1234.000000	8.062400
1233.000000	8.015114
1232.000000	7.997334
1231.000000	8.019153
1230.000000	8.025025
1229.000000	8.036971
1228.000000	7.980454
1227.000000	7.980401
1226.000000	7.974009
1225.000000	7.994539
1224.000000	7.997186
1223.000000	7.974913
1222.000000	7.972230
1221.000000	7.973545
1220.000000	7.965532
1219.000000	7.962910
1218.000000	7.962114
1217.000000	7.935405
1216.000000	7.925548
1215.000000	7.913258
1214.000000	7.899499
1213.000000	7.903405
1212.000000	7.931503
1211.000000	7.928281
1210.000000	7.909181
1209.000000	7.924993
1208.000000	7.912389
1207.000000	7.868087
1206.000000	7.852072
1205.000000	7.868073
1204.000000	7.872478
1203.000000	7.861720
1202.000000	7.862024
1201.000000	7.839103
1200.000000	7.804320
1199.000000	7.795128
1198.000000	7.804579
1197.000000	7.806221
1196.000000	7.772960
1195.000000	7.755922
1194.000000	7.741443
1193.000000	7.711930
1192.000000	7.699649
1191.000000	7.698386
1190.000000	7.684856
1189.000000	7.631781
1188.000000	7.626912
1187.000000	7.641915
1186.000000	7.635723
1185.000000	7.628375
1184.000000	7.621970
1183.000000	7.618460
1182.000000	7.631979
1181.000000	7.636072
1180.000000	7.643854
1179.000000	7.651791
1178.000000	7.674150
1177.000000	7.685233
1176.000000	7.693106
1175.000000	7.721603
1174.000000	7.741941
1173.000000	7.743163
1172.000000	7.744214
1171.000000	7.753735
1170.000000	7.773103
1169.000000	7.779328
1168.000000	7.787304
1167.000000	7.813404
1166.000000	7.835706
1165.000000	7.852102
1164.000000	7.861925
1163.000000	7.877627
1162.000000	7.892505
1161.000000	7.905484
1160.000000	7.921745
1159.000000	7.940399
1158.000000	7.952810
1157.000000	7.963494
1156.000000	7.991503
1155.000000	7.996630
1154.000000	7.977079
1153.000000	7.974558
1152.000000	7.986578
1151.000000	8.006484
1150.000000	8.025169
1149.000000	8.038846
1148.000000	8.048013
1147.000000	8.053227
1146.000000	8.065491
1145.000000	8.088615
1144.000000	8.096992
1143.000000	8.109462
1142.000000	8.120188
1141.000000	8.125647
1140.000000	8.135424
1139.000000	8.152483
1138.000000	8.160034
1137.000000	8.163319
1136.000000	8.177802
1135.000000	8.158930
1134.000000	8.138639
1133.000000	8.150226
1132.000000	8.157429
1131.000000	8.161692
1130.000000	8.173469
1129.000000	8.182182
1128.000000	8.195332
1127.000000	8.200047
1126.000000	8.205794
1125.000000	8.210921
1124.000000	8.217254
1123.000000	8.221753
1122.000000	8.227749
1121.000000	8.219426
1120.000000	8.186829
1119.000000	8.173001
1118.000000	8.176801
1117.000000	8.174090
1116.000000	8.160590
1115.000000	8.166639
1114.000000	8.197267
1113.000000	8.195004
1112.000000	8.194899
1111.000000	8.191868
1110.000000	8.200627
1109.000000	8.194120
1108.000000	8.199386
1107.000000	8.200932
1106.000000	8.193747
1105.000000	8.194282
1104.000000	8.196318
1103.000000	8.167617
1102.000000	8.155907
1101.000000	8.162407
1100.000000	8.176765
1099.000000	8.162195
1098.000000	8.153896
1097.000000	8.163968
1096.000000	8.163642
1095.000000	8.173702
1094.000000	8.134254
1093.000000	8.119575
1092.000000	8.125317
1091.000000	8.122044
1090.000000	8.133497
1089.000000	8.140851
1088.000000	8.146910
1087.000000	8.105075
1086.000000	8.094044
1085.000000	8.109541
1084.000000	8.105898
1083.000000	8.106493
1082.000000	8.123199
1081.000000	8.067533
1080.000000	8.073848
1079.000000	8.067523
1078.000000	8.063325
1077.000000	8.090833
1076.000000	8.082193
1075.000000	8.090363
1074.000000	8.046750
1073.000000	8.024757
1072.000000	8.032753
1071.000000	8.047201
1070.000000	8.053693
1069.000000	8.053001
1068.000000	8.057967
1067.000000	8.009425
1066.000000	7.992837
1065.000000	7.997404
1064.000000	8.017237
1063.000000	7.997611
1062.000000	8.016228
1061.000000	8.033417
1060.000000	7.995387
1059.000000	7.988548
1058.000000	7.993534
1057.000000	7.987479
1056.000000	8.003709
1055.000000	7.998839
1054.000000	7.968865
1053.000000	7.947324
1052.000000	7.944612
1051.000000	7.943972
1050.000000	7.913859
1049.000000	7.922598
1048.000000	7.893002
1047.000000	7.917144
1046.000000	7.950130
1045.000000	7.953227
1044.000000	7.888974
1043.000000	7.909100
1042.000000	7.895192
1041.000000	7.862655
1040.000000	7.866118
1039.000000	7.882206
1038.000000	7.892294
1037.000000	7.891449
1036.000000	7.859585
1035.000000	7.862549
1034.000000	7.865453
1033.000000	7.872041
1032.000000	7.854081
1031.000000	7.851716
1030.000000	7.852885
1029.000000	7.820765
1028.000000	7.821772
1027.000000	7.831657
1026.000000	7.838187
1025.000000	7.800775
1024.000000	7.799523
1023.000000	7.792824
1022.000000	7.775168
1021.000000	7.790745
1020.000000	7.810109
1019.000000	7.802624
1018.000000	7.785201
1017.000000	7.779084
1016.000000	7.786569
1015.000000	7.772635
1014.000000	7.770212
1013.000000	7.787741
1012.000000	7.758223
1011.000000	7.732491
1010.000000	7.753619
1009.000000	7.764151
1008.000000	7.765818
1007.000000	7.767475
1006.000000	7.775084
1005.000000	7.788319
1004.000000	7.790708
1003.000000	7.793335
1002.000000	7.803403
1001.000000	7.795698
1000.000000	7.789561
999.000000	7.795549
998.000000	7.808316
997.000000	7.820252
996.000000	7.829473
995.000000	7.808930
994.000000	7.815098
993.000000	7.812084
992.000000	7.813024
991.000000	7.826493
990.000000	7.819421
989.000000	7.813441
988.000000	7.807541
987.000000	7.816419
986.000000	7.814346
985.000000	7.813705
984.000000	7.819329
983.000000	7.821080
982.000000	7.827058
981.000000	7.820613
980.000000	7.804224
979.000000	7.814413
978.000000	7.801761
977.000000	7.801778
976.000000	7.813171
975.000000	7.821472
974.000000	7.819374
973.000000	7.811512
972.000000	7.802591
971.000000	7.803934
970.000000	7.794203
969.000000	7.793487
968.000000	7.809929
967.000000	7.812194
966.000000	7.799359
965.000000	7.803480
964.000000	7.803053
963.000000	7.791128
962.000000	7.796179
961.000000	7.799206
960.000000	7.800072
959.000000	7.800578
958.000000	7.787770
957.000000	7.777566
956.000000	7.783836
955.000000	7.792167
954.000000	7.798291
953.000000	7.802706
952.000000	7.812831
951.000000	7.793371
950.000000	7.777402
949.000000	7.793617
948.000000	7.792796
947.000000	7.777300
946.000000	7.769477
945.000000	7.780094
944.000000	7.771814
943.000000	7.756564
942.000000	7.771186
941.000000	7.771473
940.000000	7.768045
939.000000	7.787179
938.000000	7.778520
937.000000	7.783597
936.000000	7.778211
935.000000	7.762486
934.000000	7.757770
933.000000	7.748237
932.000000	7.754674
931.000000	7.738715
930.000000	7.734478
929.000000	7.747090
928.000000	7.740048
927.000000	7.732054
926.000000	7.724073
925.000000	7.736992
924.000000	7.746391
923.000000	7.730271
922.000000	7.708169
921.000000	7.701417
920.000000	7.700535
919.000000	7.701302
918.000000	7.707234
917.000000	7.692028
916.000000	7.693753
915.000000	7.708356
914.000000	7.693065
913.000000	7.699914
912.000000	7.673588
911.000000	7.646701
910.000000	7.663376
909.000000	7.684809
908.000000	7.677903
907.000000	7.678947
906.000000	7.668388
905.000000	7.649895
904.000000	7.677104
903.000000	7.724840
902.000000	7.665790
901.000000	7.640085
900.000000	7.660500
899.000000	7.629633
898.000000	7.631118
897.000000	7.674681
896.000000	7.698067
895.000000	7.680269
894.000000	7.657562
893.000000	7.666330
892.000000	7.634838
891.000000	7.658250
890.000000	7.678072
889.000000	7.712139
888.000000	7.702769
887.000000	7.701695
886.000000	7.650086
885.000000	7.651924
884.000000	7.672310
883.000000	7.687405
882.000000	7.656656
881.000000	7.671630
880.000000	7.652506
879.000000	7.613045
878.000000	7.694371
877.000000	7.700232
876.000000	7.684974
875.000000	7.675043
874.000000	7.666209
873.000000	7.562005
872.000000	7.574209
871.000000	7.578502
870.000000	7.692775
869.000000	7.649903
868.000000	7.513226
867.000000	7.469543
866.000000	7.539747
865.000000	7.494054
864.000000	7.631506
863.000000	7.603498
862.000000	7.658500
861.000000	7.636858
860.000000	7.601449
859.000000	7.579234
858.000000	7.579782
857.000000	7.577277
856.000000	7.554346
855.000000	7.636388
854.000000	7.577462
853.000000	7.585900
852.000000	7.517217
851.000000	7.544480
850.000000	7.553287
849.000000	7.485037
848.000000	7.528356
847.000000	7.541282
846.000000	7.519503
845.000000	7.515154
844.000000	7.537171
843.000000	7.466488
842.000000	7.520967
841.000000	7.503815
840.000000	7.474308
839.000000	7.503727
838.000000	7.514937
837.000000	7.502238
836.000000	7.478070
835.000000	7.502477
834.000000	7.465344
833.000000	7.460498
832.000000	7.442041
831.000000	7.434369
830.000000	7.421061
829.000000	7.408544
828.000000	7.435116
827.000000	7.432122
826.000000	7.404691
825.000000	7.392774
824.000000	7.405790
823.000000	7.394103
822.000000	7.389529
821.000000	7.374286
820.000000	7.401854
819.000000	7.365687
818.000000	7.357770
817.000000	7.340023
816.000000	7.316981
815.000000	7.328604
814.000000	7.352119
813.000000	7.344946
812.000000	7.332244
811.000000	7.317851
810.000000	7.274362
809.000000	7.288138
808.000000	7.258144
807.000000	7.276333
806.000000	7.271760
805.000000	7.300803
804.000000	7.249628
803.000000	7.263484
802.000000	7.256723
801.000000	7.235587
800.000000	7.225540
799.000000	7.221343
798.000000	7.218021
797.000000	7.218541
796.000000	7.230933
795.000000	7.237481
794.000000	7.230674
793.000000	7.219063
792.000000	7.214488
791.000000	7.200200
790.000000	7.180565
789.000000	7.174333
788.000000	7.174638
787.000000	7.158535
786.000000	7.148954
785.000000	7.166867
784.000000	7.148513
783.000000	7.142115
782.000000	7.150564
781.000000	7.118965
780.000000	7.096273
779.000000	7.087608
778.000000	7.087680
777.000000	7.102516
776.000000	7.084053
775.000000	7.078331
774.000000	7.073785
773.000000	7.093815
772.000000	7.063532
771.000000	7.071033
770.000000	7.037373
769.000000	7.039328
768.000000	7.027412
767.000000	7.015964
766.000000	7.015836
765.000000	7.012097
764.000000	7.004841
763.000000	7.007721
762.000000	6.991075
761.000000	6.980046
760.000000	6.980165
759.000000	6.980179
758.000000	6.968587
757.000000	6.954869
756.000000	6.937169
755.000000	6.918830
754.000000	6.906567
753.000000	6.891749
752.000000	6.899929
751.000000	6.895418
750.000000	6.879318
749.000000	6.870387
748.000000	6.871625
747.000000	6.863766
746.000000	6.852472
745.000000	6.854450
744.000000	6.848332
743.000000	6.833092
742.000000	6.806587
741.000000	6.799650
740.000000	6.787120
739.000000	6.785099
738.000000	6.779936
737.000000	6.788681
736.000000	6.772538
735.000000	6.756512
734.000000	6.763596
733.000000	6.749002
732.000000	6.734149
731.000000	6.728597
730.000000	6.723595
729.000000	6.711179
728.000000	6.697877
727.000000	6.673822
726.000000	6.671821
725.000000	6.672162
724.000000	6.667753
723.000000	6.659289
722.000000	6.649629
721.000000	6.638545
720.000000	6.628605
719.000000	6.633076
718.000000	6.616427
717.000000	6.603178
716.000000	6.591054
715.000000	6.571131
714.000000	6.557151
713.000000	6.552053
712.000000	6.541318
711.000000	6.534648
710.000000	6.531005
709.000000	6.520647
708.000000	6.509631
707.000000	6.497761
706.000000	6.483080
705.000000	6.469154
704.000000	6.460487
703.000000	6.449638
702.000000	6.440302
701.000000	6.431160
700.000000	6.421569
699.000000	6.406160
698.000000	6.391883
697.000000	6.381684
696.000000	6.372013
695.000000	6.354099
694.000000	6.344371
693.000000	6.331935
692.000000	6.319944
691.000000	6.313775
690.000000	6.302353
689.000000	6.277866
688.000000	6.261325
687.000000	6.251657
686.000000	6.242537
685.000000	6.236719
684.000000	6.224856
683.000000	6.209160
682.000000	6.197467
681.000000	6.195935
680.000000	6.179352
679.000000	6.164799
678.000000	6.156675
677.000000	6.140602
676.000000	6.121965
675.000000	6.108236
674.000000	6.090595
673.000000	6.079679
672.000000	6.064076
671.000000	6.060204
670.000000	6.038604
669.000000	6.021315
668.000000	6.014329
667.000000	6.006946
666.000000	5.998922
665.000000	5.975318
664.000000	5.965057
663.000000	5.953638
662.000000	5.939182
661.000000	5.927500
660.000000	5.904282
659.000000	5.895234
658.000000	5.879152
657.000000	5.869662
656.000000	5.849848
655.000000	5.844770
654.000000	5.834721
653.000000	5.814689
652.000000	5.802609
651.000000	5.790694
650.000000	5.764110
649.000000	5.754809
648.000000	5.744269
647.000000	5.722102
646.000000	5.697888
645.000000	5.686991
644.000000	5.672529
643.000000	5.672909
642.000000	5.661245
641.000000	5.642111
640.000000	5.625928
639.000000	5.617915
638.000000	5.600594
637.000000	5.582287
636.000000	5.556270
635.000000	5.542494
634.000000	5.523232
633.000000	5.512929
632.000000	5.512673
631.000000	5.488975
630.000000	5.476513
629.000000	5.455907
628.000000	5.423251
627.000000	5.420898
626.000000	5.400384
625.000000	5.397659
624.000000	5.379623
623.000000	5.353861
622.000000	5.334838
621.000000	5.331693
620.000000	5.318874
619.000000	5.301184
618.000000	5.282493
617.000000	5.263783
616.000000	5.245997
615.000000	5.229448
614.000000	5.205609
613.000000	5.197034
612.000000	5.185261
611.000000	5.164450
610.000000	5.142618
609.000000	5.130104
608.000000	5.112677
607.000000	5.084728
606.000000	5.071032
605.000000	5.066996
604.000000	5.035150
603.000000	5.012716
602.000000	4.994999
601.000000	4.992460
600.000000	4.969477
599.000000	4.947599
598.000000	4.939676
597.000000	4.917678
596.000000	4.891997
595.000000	4.874506
594.000000	4.857458
593.000000	4.841106
592.000000	4.817764
591.000000	4.799544
590.000000	4.777512
589.000000	4.767098
588.000000	4.750624
587.000000	4.716997
586.000000	4.706756
585.000000	4.689172
584.000000	4.675631
583.000000	4.658141
582.000000	4.631692
581.000000	4.602118
580.000000	4.582717
579.000000	4.560569
578.000000	4.552767
577.000000	4.524539
576.000000	4.505449
575.000000	4.491399
574.000000	4.455917
573.000000	4.443200
572.000000	4.417582
571.000000	4.405008
570.000000	4.385552
569.000000	4.363032
568.000000	4.335264
567.000000	4.322869
566.000000	4.297897
565.000000	4.275110
564.000000	4.253715
563.000000	4.222956
562.000000	4.203505
561.000000	4.182104
560.000000	4.158648
559.000000	4.139233
558.000000	4.118574
557.000000	4.103600
556.000000	4.073721
555.000000	4.051399
554.000000	4.024844
553.000000	4.007817
552.000000	3.981439
551.000000	3.965654
550.000000	3.942894
549.000000	3.918224
548.000000	3.891780
547.000000	3.868890
546.000000	3.847621
545.000000	3.832522
544.000000	3.803644
543.000000	3.782012
542.000000	3.753353
541.000000	3.732637
540.000000	3.707703
539.000000	3.687552
538.000000	3.664506
537.000000	3.641348
536.000000	3.622550
535.000000	3.596093
534.000000	3.571409
533.000000	3.554270
532.000000	3.530994
531.000000	3.507666
530.000000	3.480155
529.000000	3.458055
528.000000	3.440891
527.000000	3.419397
526.000000	3.398001
525.000000	3.370088
524.000000	3.350257
523.000000	3.325271
522.000000	3.300420
521.000000	3.280699
520.000000	3.257365
519.000000	3.234838
518.000000	3.208101
517.000000	3.187830
516.000000	3.166295
515.000000	3.141882
514.000000	3.114936
513.000000	3.091739
512.000000	3.064353
511.000000	3.038741
510.000000	3.016010
509.000000	2.989929
508.000000	2.964149
507.000000	2.935100
506.000000	2.908608
505.000000	2.879615
504.000000	2.852335
503.000000	2.827883
502.000000	2.801492
501.000000	2.780087
500.000000	2.755935
499.000000	2.724655
498.000000	2.704253
497.000000	2.685424
496.000000	2.654134
495.000000	2.626441
494.000000	2.607885
493.000000	2.584053
492.000000	2.554936
491.000000	2.533294
490.000000	2.513481
489.000000	2.488229
488.000000	2.466192
487.000000	2.444501
486.000000	2.421488
485.000000	2.403224
484.000000	2.385002
483.000000	2.356305
482.000000	2.325753
481.000000	2.305839
480.000000	2.282978
479.000000	2.250432
478.000000	2.222676
477.000000	2.195375
476.000000	2.171280
475.000000	2.146039
474.000000	2.122868
473.000000	2.100705
472.000000	2.072715
471.000000	2.048260
470.000000	2.025334
469.000000	2.002305
468.000000	1.973608
467.000000	1.951249
466.000000	1.925446
465.000000	1.902686
464.000000	1.878638
463.000000	1.852658
462.000000	1.826517
461.000000	1.804382
460.000000	1.782213
459.000000	1.752729
458.000000	1.726798
457.000000	1.703245
456.000000	1.682285
455.000000	1.658474
454.000000	1.631539
453.000000	1.607850
452.000000	1.581567
451.000000	1.558249
450.000000	1.533482
449.000000	1.511684
448.000000	1.489123
447.000000	1.462569
446.000000	1.441078
445.000000	1.418324
444.000000	1.401017
443.000000	1.380074
442.000000	1.356977
441.000000	1.330390
440.000000	1.301315
439.000000	1.276065
438.000000	1.258821
437.000000	1.243836
436.000000	1.216052
435.000000	1.191729
434.000000	1.167365
433.000000	1.145111
432.000000	1.122804
431.000000	1.101721
430.000000	1.080305
429.000000	1.060000
428.000000	1.042812
427.000000	1.021525
426.000000	1.001738
425.000000	0.975320
424.000000	0.954358
423.000000	0.937791
422.000000	0.918734
421.000000	0.898353
420.000000	0.881607
419.000000	0.861342
418.000000	0.843359
417.000000	0.823334
416.000000	0.804161
415.000000	0.783280
414.000000	0.770019
413.000000	0.750914
412.000000	0.733689
411.000000	0.714051
410.000000	0.696340
409.000000	0.677052
408.000000	0.660503
407.000000	0.642586
406.000000	0.627237
405.000000	0.607029
404.000000	0.596009
403.000000	0.579391
402.000000	0.567249
401.000000	0.550928
400.000000	0.538066
399.000000	0.521207
398.000000	0.506517
397.000000	0.495616
396.000000	0.490191
395.000000	0.472152
394.000000	0.455220
393.000000	0.451287
392.000000	0.439196
391.000000	0.426084
390.000000	0.416963
389.000000	0.404061
388.000000	0.395299
387.000000	0.382952
386.000000	0.372628
385.000000	0.358646
384.000000	0.358472
383.000000	0.342555
382.000000	0.333154
381.000000	0.325668
380.000000	0.317246
379.000000	0.306988
378.000000	0.299451
377.000000	0.314961
376.000000	0.302341
375.000000	0.298253
374.000000	0.294990
373.000000	0.275504
372.000000	0.262830
371.000000	0.258761
370.000000	0.252545
369.000000	0.248278
368.000000	0.242418
367.000000	0.231873
366.000000	0.228009
365.000000	0.217771
364.000000	0.213220
363.000000	0.206156
362.000000	0.207177
361.000000	0.196729
360.000000	0.189020
359.000000	0.183246
358.000000	0.176575
357.000000	0.178890
356.000000	0.172435
355.000000	0.162554
354.000000	0.164710
353.000000	0.154302
352.000000	0.144869
351.000000	0.147394
350.000000	0.154469
349.000000	0.149055
348.000000	0.137322
347.000000	0.129517
346.000000	0.132639
345.000000	0.116504
344.000000	0.125227
343.000000	0.123464
342.000000	0.122964
341.000000	0.113203
340.000000	0.116617
339.000000	0.110565
338.000000	0.118891
337.000000	0.116272
336.000000	0.100226
335.000000	0.102331
334.000000	0.107343
333.000000	0.085514
332.000000	0.100314
331.000000	0.089549
330.000000	0.081774
329.000000	0.081038
328.000000	0.080969
327.000000	0.071288
326.000000	0.086227
325.000000	0.074470
324.000000	0.079967
323.000000	0.086406
322.000000	0.090144
321.000000	0.070199
320.000000	0.067875
319.000000	0.070879
318.000000	0.080363
317.000000	0.077196
316.000000	0.086424
315.000000	0.085925
314.000000	0.086985
313.000000	0.085214
312.000000	0.075831
311.000000	0.072638
310.000000	0.081070
309.000000	0.082109
308.000000	0.084178
307.000000	0.071836
306.000000	0.080064
305.000000	0.079418
304.000000	0.075057
303.000000	0.077806
302.000000	0.078893
301.000000	0.073389
300.000000	0.080307
299.000000	0.073985
298.000000	0.073407
297.000000	0.074748
296.000000	0.077639
295.000000	0.073951
294.000000	0.075557
293.000000	0.069852
292.000000	0.076775
291.000000	0.080405
290.000000	0.076241
289.000000	0.073419
288.000000	0.074917
287.000000	0.066794
286.000000	0.069239
285.000000	0.072508
284.000000	0.072835
283.000000	0.073552
282.000000	0.078488
281.000000	0.072580
280.000000	0.075401
279.000000	0.080202
278.000000	0.075697
277.000000	0.074364
276.000000	0.077437
275.000000	0.082849
274.000000	0.086059
273.000000	0.090678
272.000000	0.090783
271.000000	0.083526
270.000000	0.088986
269.000000	0.089067
268.000000	0.091881
267.000000	0.088772
266.000000	0.093464
265.000000	0.096716
264.000000	0.097678
263.000000	0.098757
262.000000	0.101792
261.000000	0.101691
260.000000	0.105581
259.000000	0.100634
258.000000	0.106569
257.000000	0.114225
256.000000	0.121242
255.000000	0.121014
254.000000	0.115841
253.000000	0.109799
252.000000	0.107751
251.000000	0.104229
250.000000	0.113485
249.000000	0.126775
248.000000	0.126600
247.000000	0.118549
246.000000	0.112508
245.000000	0.114481
244.000000	0.110205
243.000000	0.111855
242.000000	0.115590
241.000000	0.108434
240.000000	0.097716
239.000000	0.092093
238.000000	0.091646
237.000000	0.089652
236.000000	0.089533
235.000000	0.084331
234.000000	0.075962
233.000000	0.065378
232.000000	0.062917
231.000000	0.063905
230.000000	0.064639
229.000000	0.068437
228.000000	0.062157
227.000000	0.043722
226.000000	0.041896
225.000000	0.049917
224.000000	0.053855
223.000000	0.044204
222.000000	0.033288
221.000000	0.038926
220.000000	0.027237
219.000000	0.009128
218.000000	0.016869
217.000000	0.024117
216.000000	0.022821
215.000000	0.018776
214.000000	0.022394
213.000000	0.026614
212.000000	0.003928
211.000000	0.000850
210.000000	0.015048
209.000000	0.000966
208.000000	0.014359
207.000000	0.016890
206.000000	0.013470
205.000000	0.018435
204.000000	-0.008750
203.000000	-0.021419
202.000000	0.006376
201.000000	-0.009515
200.000000	-0.014395
